#Acq. time (s)=	10
#Accumulations=	1
#Range (cm-¹)=	100...2000
#Windows=	2
#Autofocus=	Off
#AutoExposure=	Off
#Spike filter=	Off
#Delay time (s)=	0
#Binning=	1
#Readout mode=	Signal
#DeNoise=	Off
#ICS correction=	Off
#Dark correction=	Off
#Inst. Process=	Off
#Instrument=	LabRAM HR Evol
#Detector=	Syncerity OE
#Objective=	x100_VIS
#Grating=	600 (500nm)
#ND Filter=	5%
#Laser=	633nm_Edge
#Hole=	24.99
#Range=	Visible
#Project=	Omar
#Sample=	20-06-23
#Site=	2
#Title=	Organic
#Remark=	
#Date=	20.06.2023 11:50
#Acquired=	20.06.2023 11:50:00
101.054	38
102.338	32
103.621	42
104.904	36
106.187	40
107.469	38
108.752	34
110.036	32
111.317	36
112.599	34
113.881	36
115.162	40
116.443	40
117.724	32
119.005	42
120.285	36
121.566	40
122.846	32
124.126	36
125.405	40
126.685	38
127.964	28
129.243	28
130.522	32
131.801	36
133.079	38
134.356	30
135.634	40
136.911	36
138.189	36
139.466	32
140.744	36
142.021	38
143.297	40
144.574	34
145.85	36
147.125	36
148.401	26
149.676	32
150.952	32
152.227	30
153.502	36
154.776	38
156.05	38
157.325	40
158.599	38
159.873	26
161.145	42
162.419	36
163.693	40
164.966	32
166.237	38
167.51	34
168.783	34
170.055	30
171.326	38
172.598	26
173.869	34
175.141	30
176.411	28
177.682	40
178.953	32
180.222	38
181.493	40
182.763	36
184.032	30
185.302	38
186.571	28
187.839	42
189.109	34
190.376	40
191.645	44
192.914	40
194.181	42
195.449	40
196.716	32
197.983	36
199.25	32
200.517	36
201.784	34
203.05	36
204.317	36
205.582	30
206.848	34
208.113	30
209.379	38
210.643	38
211.909	32
213.173	38
214.438	38
215.701	38
216.966	34
218.229	40
219.492	40
220.756	34
222.019	36
223.282	32
224.544	40
225.808	32
227.069	36
228.331	34
229.594	36
230.855	36
232.115	46
233.378	34
234.638	30
235.898	36
237.16	40
238.419	42
239.679	34
240.94	38
242.199	38
243.458	42
244.718	36
245.977	38
247.235	32
248.495	26
249.753	34
251.011	32
252.268	42
253.527	36
254.784	32
256.041	38
257.298	30
258.555	38
259.812	34
261.068	32
262.324	36
263.58	34
264.836	38
266.092	38
267.348	30
268.603	40
269.857	36
271.112	30
272.366	36
273.62	32
274.874	40
276.129	42
277.383	36
278.636	38
279.889	38
281.142	34
282.395	28
283.647	32
284.9	38
286.152	36
287.404	30
288.655	34
289.907	30
291.158	38
292.409	46
293.66	36
294.911	36
296.161	32
297.411	32
298.661	32
299.911	38
301.161	30
302.41	36
303.66	38
304.909	30
306.158	38
307.406	30
308.655	40
309.903	38
311.15	44
312.397	34
313.645	42
314.893	44
316.14	34
317.387	42
318.634	34
319.879	44
321.125	36
322.372	40
323.618	32
324.864	42
326.109	34
327.353	40
328.598	36
329.844	42
331.088	38
332.332	36
333.576	44
334.82	40
336.064	36
337.307	40
338.55	38
339.794	36
341.037	40
342.279	38
343.521	40
344.764	52
346.005	34
347.247	36
348.489	40
349.73	34
350.971	40
352.213	32
353.453	40
354.694	48
355.933	48
357.174	36
358.414	42
359.653	42
360.893	44
362.131	40
363.371	32
364.611	36
365.848	44
367.087	32
368.325	46
369.564	42
370.801	38
372.039	32
373.275	32
374.513	38
375.75	42
376.987	38
378.223	42
379.46	40
380.695	42
381.932	36
383.167	40
384.402	34
385.638	38
386.872	32
388.108	38
389.342	40
390.577	38
391.811	42
393.044	36
394.279	42
395.512	38
396.745	44
397.979	40
399.212	34
400.444	38
401.677	38
402.909	28
404.141	40
405.374	40
406.605	38
407.836	32
409.069	38
410.299	34
411.53	42
412.76	36
413.992	44
415.221	42
416.451	42
417.681	38
418.911	36
420.141	36
421.369	42
422.598	50
423.827	32
425.057	36
426.285	32
427.513	44
428.74	42
429.968	34
431.195	44
432.422	36
433.651	34
434.878	36
436.104	40
437.33	36
438.557	42
439.783	32
441.008	40
442.234	40
443.459	38
444.685	40
445.91	36
447.134	40
448.359	44
449.583	40
450.808	48
452.032	36
453.255	38
454.479	44
455.703	42
456.926	38
458.149	48
459.372	40
460.594	44
461.817	34
463.039	40
464.261	46
465.483	46
466.705	36
467.926	40
469.147	32
470.369	42
471.588	36
472.809	40
474.029	40
475.25	48
476.47	38
477.69	40
478.909	42
480.127	38
481.347	40
482.566	40
483.785	34
485.004	40
486.221	36
487.439	36
488.657	40
489.875	34
491.092	44
492.309	40
493.527	46
494.744	36
495.96	28
497.176	34
498.393	38
499.608	44
500.824	38
502.04	40
503.255	46
504.471	36
505.686	32
506.9	28
508.115	38
509.33	36
510.543	38
511.758	36
512.972	42
514.185	36
515.399	34
516.611	34
517.825	40
519.036	40
520.25	40
521.463	44
522.674	40
523.887	38
525.097	34
526.31	44
527.52	48
528.732	46
529.942	36
531.154	42
532.364	38
533.575	44
534.784	24
535.993	40
537.204	42
538.413	32
539.623	40
540.831	40
542.041	36
543.249	36
544.457	34
545.666	30
546.874	46
548.082	38
549.289	38
550.496	34
551.705	44
552.911	40
554.118	32
555.325	38
556.531	36
557.737	34
558.943	34
560.149	42
561.355	40
562.56	42
563.766	44
564.971	46
566.175	40
567.379	32
568.585	36
569.789	42
570.992	42
572.196	34
573.399	38
574.604	36
575.807	40
577.01	38
578.212	38
579.414	44
580.617	40
581.82	36
583.022	28
584.224	36
585.425	42
586.626	38
587.827	28
589.028	40
590.229	36
591.429	46
592.63	38
593.83	36
595.03	40
596.231	36
597.43	46
598.63	42
599.829	36
601.028	44
602.226	46
603.425	44
604.623	46
605.822	36
607.02	40
608.216	36
609.414	36
610.611	38
611.808	40
613.005	48
614.202	38
615.399	40
616.596	38
617.792	40
618.988	38
620.184	42
621.378	48
622.574	30
623.769	50
624.964	42
626.159	36
627.354	36
628.548	38
629.742	32
630.936	44
632.13	34
633.324	44
634.516	34
635.71	36
636.903	36
638.096	40
639.288	32
640.481	40
641.673	42
642.866	36
644.056	42
645.248	48
646.44	44
647.63	40
648.822	30
650.013	36
651.203	50
652.394	46
653.584	36
654.773	40
655.964	44
657.154	40
658.342	36
659.532	42
660.72	38
661.91	38
663.099	36
664.286	34
665.475	38
666.663	38
667.851	38
669.038	42
670.226	42
671.412	50
672.6	44
673.786	30
674.974	46
676.159	42
677.346	40
678.532	46
679.718	34
680.903	34
682.089	44
683.274	36
684.459	46
685.644	42
686.828	46
688.014	32
689.197	46
690.381	46
691.565	40
692.749	36
693.932	34
695.116	42
696.298	44
697.481	30
698.664	36
699.846	34
701.028	34
702.211	32
703.393	36
704.574	38
705.757	42
706.938	44
708.118	40
709.299	34
710.481	40
711.661	34
712.841	38
714.021	34
715.2	38
716.381	36
717.56	42
718.739	42
719.918	38
721.097	38
722.276	40
723.455	34
724.633	36
725.811	38
726.989	30
728.167	38
729.344	38
730.521	32
731.698	38
732.875	34
734.052	46
735.23	48
736.406	46
737.582	34
738.758	40
739.934	40
741.11	36
742.285	34
743.46	34
744.635	34
745.81	44
746.985	44
748.159	46
749.332	40
750.506	36
751.68	42
752.854	40
754.028	42
755.201	32
756.374	34
757.547	30
758.72	40
759.893	38
761.065	36
762.236	44
763.408	40
764.58	36
765.752	42
766.923	36
768.095	34
769.265	34
770.436	40
771.606	38
772.777	34
773.946	32
775.116	36
776.287	48
777.456	34
778.625	40
779.794	34
780.964	42
782.133	46
783.301	36
784.469	44
785.638	36
786.805	42
787.973	38
789.141	44
790.308	32
791.476	38
792.643	34
793.809	38
794.977	34
796.142	38
797.309	34
798.476	40
799.641	28
800.807	38
801.972	38
803.138	42
804.302	34
805.468	38
806.633	34
807.797	40
808.962	32
810.125	32
811.29	32
812.453	36
813.617	36
814.78	38
815.943	36
817.106	40
818.268	44
819.432	44
820.594	32
821.757	44
822.918	40
824.08	38
825.242	34
826.403	36
827.565	38
828.726	42
829.886	38
831.048	38
832.208	38
833.368	46
834.529	48
835.688	38
836.847	34
838.007	40
839.167	44
840.326	36
841.484	36
842.644	40
843.802	48
844.96	34
846.118	38
847.276	38
848.435	40
849.592	30
850.749	36
851.906	36
853.063	36
854.221	40
855.378	36
856.534	38
857.69	32
858.846	34
860.002	44
861.157	38
862.313	38
863.469	32
864.624	40
865.779	36
866.934	34
868.088	38
869.242	32
870.396	46
871.55	36
872.704	24
873.858	40
875.011	30
876.164	38
877.318	38
878.47	36
879.623	46
880.776	38
881.928	30
883.08	38
884.232	36
885.384	44
886.536	34
887.687	42
888.837	36
889.988	42
891.139	38
892.29	38
893.44	40
894.591	40
895.741	36
896.89	34
898.039	44
899.189	40
900.339	40
901.488	30
902.637	30
903.785	40
904.933	42
906.082	40
907.231	36
908.377	36
909.526	40
910.673	38
911.821	34
912.967	42
914.115	32
915.262	32
916.408	34
917.554	38
918.701	38
919.846	38
920.993	30
922.139	38
923.283	40
924.429	42
925.573	40
926.719	38
927.864	40
929.008	38
930.153	42
931.296	40
932.441	40
933.584	38
934.728	46
935.872	34
937.014	34
938.158	34
939.3	36
940.444	36
941.585	24
942.728	34
943.87	36
945.011	40
946.154	38
947.294	40
948.437	42
949.577	42
950.719	36
951.859	32
952.999	40
954.14	34
955.28	32
956.421	36
957.56	40
958.699	44
959.84	40
960.979	40
962.117	36
963.257	40
964.395	36
965.533	32
966.671	32
967.81	42
968.948	38
970.086	36
971.223	48
972.361	43
973.498	38
974.635	38
975.771	42
976.909	30
978.045	44
979.181	34
980.317	36
981.453	36
982.588	38
983.725	38
984.86	40
985.995	38
987.13	44
988.265	40
989.399	32
990.533	34
991.667	36
992.801	40
993.937	38
995.07	38
996.204	48
997.337	36
998.47	42
999.603	30
1000.74	34
1001.87	38
1003	32
1004.13	34
1005.26	34
1006.4	42
1007.53	38
1008.66	44
1009.79	34
1010.92	40
1012.05	36
1013.18	34
1014.31	38
1015.44	42
1016.57	34
1017.7	38
1018.83	38
1019.96	34
1021.09	34
1022.22	36
1023.35	28
1024.48	34
1025.61	32
1026.74	38
1027.87	32
1028.99	36
1030.12	40
1031.25	42
1032.38	38
1033.5	38
1034.63	36
1035.76	40
1036.88	42
1038.01	36
1039.14	38
1040.26	40
1041.39	32
1042.52	34
1043.64	38
1044.77	42
1045.89	42
1047.02	36
1048.14	38
1049.27	28
1050.39	32
1051.52	38
1052.64	40
1053.77	38
1054.89	38
1056.01	46
1057.14	34
1058.26	42
1059.38	38
1060.51	32
1061.63	30
1062.75	34
1063.87	34
1065	38
1066.12	30
1067.24	44
1068.36	40
1069.48	38
1070.6	40
1071.73	34
1072.85	38
1073.97	40
1075.09	38
1076.21	32
1077.33	38
1078.45	34
1079.57	42
1080.69	36
1081.81	34
1082.93	34
1084.05	40
1085.16	44
1086.28	38
1087.4	34
1088.52	40
1089.64	32
1090.76	32
1091.87	24
1092.99	38
1094.11	40
1095.23	38
1096.34	36
1097.46	38
1098.58	38
1099.69	42
1100.81	36
1101.93	30
1103.04	36
1104.16	38
1105.27	36
1106.39	34
1107.5	32
1108.62	34
1109.74	34
1110.85	36
1111.96	30
1113.08	32
1114.19	34
1115.31	36
1116.42	32
1117.53	42
1118.65	32
1119.76	34
1120.87	32
1121.99	36
1123.1	36
1124.21	40
1125.32	34
1126.44	40
1127.55	36
1128.66	32
1129.77	38
1130.88	38
1132	38
1133.11	34
1134.22	34
1135.33	32
1136.44	34
1137.55	40
1138.66	28
1139.77	38
1140.88	42
1141.99	42
1143.1	32
1144.21	40
1145.32	40
1146.43	32
1147.54	38
1148.64	30
1149.75	34
1150.86	30
1151.97	40
1153.08	34
1154.18	30
1155.29	28
1156.4	36
1157.51	34
1158.61	38
1159.72	36
1160.83	36
1161.93	32
1163.04	32
1164.14	30
1165.25	48
1166.36	32
1167.46	36
1168.57	36
1169.67	34
1170.78	36
1171.88	40
1172.99	34
1174.09	34
1175.2	38
1176.3	34
1177.4	30
1178.51	36
1179.61	36
1180.71	42
1181.82	38
1182.92	40
1184.02	38
1185.13	40
1186.23	32
1187.33	40
1188.43	38
1189.53	32
1190.64	34
1191.74	42
1192.84	34
1193.94	42
1195.04	34
1196.14	38
1197.24	34
1198.34	30
1199.45	35.99
1200.54	37.922
1201.64	30.1095
1202.74	32.0575
1203.84	33.8046
1204.94	43.3116
1206.04	35.9449
1207.14	35.8285
1208.24	40.8611
1209.34	37.3937
1210.44	35.8831
1211.54	42.4688
1212.64	35.1369
1213.73	30.5857
1214.83	35.8227
1215.93	36.7399
1217.03	38.7181
1218.12	35.4496
1219.22	38.9179
1220.32	31.56
1221.41	37.0359
1222.51	38.2061
1223.61	32.0011
1224.7	36.352
1225.8	30.2499
1226.9	33.2275
1227.99	39.0953
1229.09	29.0734
1230.18	35.43
1231.28	37.681
1232.37	39.4491
1233.47	32.3972
1234.56	26.5365
1235.66	34.5982
1236.75	34.8614
1237.84	29.2005
1238.94	34.1256
1240.03	32.9609
1241.13	38.9053
1242.22	30.723
1243.31	29.8614
1244.41	36.4605
1245.5	31.9576
1246.59	36.2564
1247.68	36.2482
1248.78	38.7126
1249.87	34.218
1250.96	33.7959
1252.05	35.1522
1253.14	36.8451
1254.24	34.6624
1255.33	34.06
1256.42	32.408
1257.51	33.1192
1258.6	34.36
1259.69	38.89
1260.78	33.764
1261.87	33.6216
1262.96	34.9396
1264.05	33.24
1265.14	33.9239
1266.23	34.7541
1267.32	38.606
1268.41	34.8885
1269.5	34.7597
1270.59	37.3792
1271.67	39.8118
1272.76	34.92
1273.85	33.0076
1274.94	35.3631
1276.03	36.23
1277.12	35.941
1278.2	30.1789
1279.29	31.71
1280.38	32.0172
1281.47	35.51
1282.55	36.1413
1283.64	37.6005
1284.72	33.01
1285.81	31.9921
1286.9	31.3919
1287.98	26.4603
1289.07	35.0302
1290.16	37.6827
1291.24	37.1706
1292.33	29.6267
1293.41	33.406
1294.5	33.9046
1295.58	41.525
1296.67	33.4822
1297.75	32.7118
1298.83	37.1131
1299.92	31.2806
1301	27.5024
1302.09	32.3864
1303.17	34.5399
1304.25	37.0152
1305.34	30.05
1306.42	30.6212
1307.5	33.5266
1308.46	30
1309.55	34
1310.63	34
1311.72	38
1312.81	30
1313.9	34
1314.98	34
1316.07	36
1317.16	34
1318.24	32
1319.33	30
1320.42	32
1321.5	34
1322.59	38
1323.67	40
1324.76	40
1325.85	30
1326.93	34
1328.02	36
1329.1	30
1330.19	40
1331.27	32
1332.35	40
1333.44	34
1334.52	26
1335.61	32
1336.69	36
1337.77	40
1338.86	36
1339.94	38
1341.02	42
1342.11	34
1343.19	40
1344.27	42
1345.35	36
1346.43	34
1347.52	38
1348.6	32
1349.68	36
1350.76	30
1351.84	38
1352.92	34
1354	30
1355.09	34
1356.17	40
1357.25	42
1358.33	32
1359.41	40
1360.49	34
1361.57	32
1362.65	34
1363.72	30
1364.8	30
1365.88	34
1366.96	24
1368.04	32
1369.12	32
1370.2	34
1371.28	30
1372.35	30
1373.43	36
1374.51	36
1375.59	32
1376.66	34
1377.74	30
1378.82	34
1379.89	24
1380.97	34
1382.05	32
1383.12	24
1384.2	32
1385.28	32
1386.35	36
1387.43	36
1388.5	36
1389.58	30
1390.65	30
1391.73	36
1392.8	32
1393.88	42
1394.95	30
1396.03	40
1397.1	40
1398.17	32
1399.25	32
1400.32	28
1401.4	32
1402.47	28
1403.54	28
1404.61	36
1405.69	36
1406.76	38
1407.83	42
1408.9	32
1409.98	30
1411.05	32
1412.12	32
1413.19	38
1414.26	42
1415.33	34
1416.4	38
1417.48	30
1418.55	38
1419.62	40
1420.69	44
1421.76	34
1422.83	42
1423.9	28
1424.97	36
1426.04	38
1427.1	38
1428.17	28
1429.24	34
1430.31	38
1431.38	40
1432.45	40
1433.52	34
1434.59	36
1435.65	30
1436.72	32
1437.79	30
1438.86	38
1439.92	32
1440.99	34
1442.06	30
1443.12	32
1444.19	36
1445.26	32
1446.32	36
1447.39	38
1448.46	32
1449.52	38
1450.59	28
1451.65	42
1452.72	36
1453.78	36
1454.85	36
1455.91	32
1456.98	34
1458.04	34
1459.11	28
1460.17	40
1461.23	26
1462.3	40
1463.36	28
1464.42	28
1465.49	28
1466.55	34
1467.61	34
1468.68	32
1469.74	34
1470.8	36
1471.86	32
1472.93	46
1473.99	30
1475.05	36
1476.11	34
1477.17	34
1478.23	30
1479.3	36
1480.36	32
1481.42	32
1482.48	32
1483.54	42
1484.6	32
1485.66	36
1486.72	38
1487.78	34
1488.84	36
1489.9	34
1490.96	36
1492.02	40
1493.07	42
1494.13	40
1495.19	34
1496.25	28
1497.31	32
1498.37	42
1499.42	32
1500.48	34
1501.54	36
1502.6	42
1503.65	44
1504.71	34
1505.77	36
1506.82	34
1507.88	38
1508.94	34
1509.99	38
1511.05	38
1512.1	32
1513.16	36
1514.22	34
1515.27	32
1516.33	36
1517.38	36
1518.44	28
1519.49	30
1520.55	32
1521.6	32
1522.65	34
1523.71	42
1524.76	42
1525.82	28
1526.87	34
1527.92	30
1528.98	34
1530.03	32
1531.08	40
1532.14	32
1533.19	24
1534.24	38
1535.29	40
1536.34	38
1537.4	34
1538.45	38
1539.5	38
1540.55	32
1541.6	44
1542.65	34
1543.7	30
1544.76	38
1545.8	34
1546.86	36
1547.91	30
1548.96	38
1550.01	38
1551.06	36
1552.11	32
1553.16	38
1554.2	36
1555.25	38
1556.3	32
1557.35	32
1558.4	32
1559.45	36
1560.5	38
1561.54	34
1562.59	32
1563.64	30
1564.69	32
1565.74	50
1566.78	42
1567.83	30
1568.88	38
1569.92	38
1570.97	34
1572.02	40
1573.06	32
1574.11	36
1575.15	42
1576.2	36
1577.25	34
1578.29	34
1579.34	28
1580.38	36
1581.43	36
1582.47	36
1583.52	34
1584.56	36
1585.6	36
1586.65	34
1587.69	38
1588.74	34
1589.78	38
1590.82	36
1591.87	36
1592.91	28
1593.95	36
1595	38
1596.04	32
1597.08	34
1598.12	28
1599.17	32
1600.21	30
1601.25	32
1602.29	40
1603.33	26
1604.37	36
1605.42	36
1606.46	38
1607.5	30
1608.54	36
1609.58	40
1610.62	38
1611.66	36
1612.7	36
1613.74	30
1614.78	36
1615.82	36
1616.86	36
1617.9	40
1618.94	30
1619.97	30
1621.01	34
1622.05	36
1623.09	42
1624.13	26
1625.17	32
1626.21	24
1627.24	28
1628.28	34
1629.32	40
1630.36	30
1631.39	34
1632.43	42
1633.47	36
1634.5	34
1635.54	38
1636.58	34
1637.61	30
1638.65	32
1639.68	42
1640.72	38
1641.76	36
1642.79	36
1643.83	40
1644.86	36
1645.9	44
1646.93	26
1647.96	36
1649	34
1650.03	36
1651.07	32
1652.1	38
1653.14	34
1654.17	34
1655.2	36
1656.24	38
1657.27	34
1658.3	32
1659.33	36
1660.37	36
1661.4	36
1662.43	36
1663.46	36
1664.5	40
1665.53	36
1666.56	40
1667.59	28
1668.62	30
1669.65	30
1670.68	34
1671.71	30
1672.75	34
1673.78	38
1674.81	42
1675.84	30
1676.87	34
1677.9	34
1678.93	36
1679.96	38
1680.99	34
1682.01	40
1683.04	42
1684.07	30
1685.1	32
1686.13	30
1687.16	30
1688.19	32
1689.21	36
1690.24	38
1691.27	38
1692.3	40
1693.33	34
1694.35	36
1695.38	38
1696.41	32
1697.43	36
1698.46	32
1699.49	38
1700.51	38
1701.54	34
1702.56	36
1703.59	36
1704.62	26
1705.64	36
1706.67	42
1707.69	32
1708.72	32
1709.74	30
1710.77	32
1711.79	38
1712.82	40
1713.84	28
1714.86	42
1715.89	32
1716.91	36
1717.94	30
1718.96	38
1719.98	26
1721.01	34
1722.03	40
1723.05	36
1724.07	28
1725.1	28
1726.12	32
1727.14	36
1728.16	32
1729.19	36
1730.21	30
1731.23	24
1732.25	38
1733.27	30
1734.29	34
1735.31	36
1736.33	36
1737.35	34
1738.37	32
1739.39	40
1740.41	34
1741.43	36
1742.45	32
1743.47	40
1744.49	38
1745.51	32
1746.53	40
1747.55	30
1748.57	38
1749.59	26
1750.61	40
1751.63	32
1752.64	42
1753.66	32
1754.68	38
1755.7	36
1756.71	34
1757.73	34
1758.75	40
1759.77	32
1760.78	42
1761.8	28
1762.82	34
1763.83	28
1764.85	30
1765.87	28
1766.88	30
1767.9	34
1768.91	40
1769.93	30
1770.94	34
1771.96	34
1772.97	40
1773.99	32
1775	36
1776.02	32
1777.03	34
1778.05	36
1779.06	36
1780.08	38
1781.09	32
1782.1	34
1783.12	36
1784.13	38
1785.14	36
1786.16	36
1787.17	38
1788.18	38
1789.19	34
1790.21	28
1791.22	34
1792.23	32
1793.24	32
1794.25	36
1795.27	36
1796.28	40
1797.29	34
1798.3	36
1799.31	36
1800.32	32
1801.33	30
1802.34	36
1803.35	36
1804.36	42
1805.37	30
1806.38	40
1807.39	26
1808.4	32
1809.41	32
1810.42	38
1811.43	28
1812.44	38
1813.45	32
1814.46	34
1815.46	38
1816.47	44
1817.48	32
1818.49	28
1819.5	34
1820.5	32
1821.51	34
1822.52	34
1823.53	30
1824.53	32
1825.54	28
1826.55	32
1827.55	34
1828.56	36
1829.57	36
1830.57	24
1831.58	32
1832.58	34
1833.59	32
1834.59	36
1835.6	34
1836.61	34
1837.61	40
1838.62	32
1839.62	36
1840.63	32
1841.63	32
1842.63	34
1843.64	40
1844.64	34
1845.65	36
1846.65	34
1847.65	34
1848.66	30
1849.66	40
1850.66	28
1851.66	32
1852.67	36
1853.67	38
1854.67	34
1855.67	24
1856.68	34
1857.68	42
1858.68	30
1859.68	34
1860.68	34
1861.68	34
1862.69	32
1863.69	42
1864.69	36
1865.69	32
1866.69	30
1867.69	30
1868.69	32
1869.69	38
1870.69	34
1871.69	22
1872.69	40
1873.69	32
1874.69	40
1875.69	30
1876.68	30
1877.68	36
1878.68	36
1879.68	30
1880.68	30
1881.68	36
1882.68	32
1883.67	36
1884.67	30
1885.67	34
1886.67	34
1887.66	34
1888.66	36
1889.66	32
1890.65	28
1891.65	28
1892.65	38
1893.64	32
1894.64	44
1895.64	36
1896.63	38
1897.63	36
1898.62	36
1899.62	32
1900.61	32
1901.61	38
1902.6	46
1903.6	34
1904.59	36
1905.59	34
1906.58	32
1907.58	30
1908.57	38
1909.56	44
1910.56	36
1911.55	44
1912.55	40
1913.54	36
1914.53	38
1915.53	38
1916.52	38
1917.51	34
1918.5	36
1919.5	34
1920.49	34
1921.48	38
1922.47	32
1923.46	30
1924.45	40
1925.45	34
1926.44	44
1927.43	40
1928.42	34
1929.41	38
1930.4	32
1931.39	40
1932.38	34
1933.37	30
1934.36	30
1935.35	30
1936.34	34
1937.33	32
1938.32	32
1939.31	32
1940.3	26
1941.29	34
1942.28	42
1943.27	30
1944.25	24
1945.24	34
1946.23	36
1947.22	28
1948.21	40
1949.2	34
1950.18	36
1951.17	38
1952.16	30
1953.14	29
1954.13	28
1955.12	32
1956.11	34
1957.09	28
1958.08	34
1959.06	32
1960.05	36
1961.04	26
1962.02	34
1963.01	36
1963.99	30
1964.98	28
1965.96	32
1966.95	34
1967.93	34
1968.92	30
1969.9	32
1970.89	34
1971.87	30
1972.86	38
1973.84	34
1974.82	34
1975.81	28
1976.79	44
1977.77	28
1978.76	38
1979.74	32
1980.72	36
1981.71	32
1982.69	38
1983.67	28
1984.65	32
1985.64	32
1986.62	26
1987.6	30
1988.58	42
1989.56	40
1990.54	36
1991.53	30
1992.51	34
1993.49	28
1994.47	36
1995.45	30
1996.43	30
1997.41	24
1998.39	32
1999.37	26
