#Acq. time (s)=	10
#Accumulations=	1
#Range (cm-¹)=	100...3000
#Windows=	3
#Autofocus=	Off
#AutoExposure=	Off
#Spike filter=	Off
#Delay time (s)=	0
#Binning=	1
#Readout mode=	Signal
#DeNoise=	Off
#ICS correction=	Off
#Dark correction=	Off
#Inst. Process=	Off
#Instrument=	LabRAM HR Evol
#Detector=	Syncerity OE
#Objective=	x100_VIS
#Grating=	600 (500nm)
#ND Filter=	5%
#Laser=	633nm_Edge
#Hole=	74.97
#Range=	Visible
#Project=	Omar
#Sample=	26-06-23
#Site=	1
#Title=	Organic
#Remark=	
#Date=	26.06.2023 16:00
#Acquired=	26.06.2023 16:00:51
101.018	1576
102.302	1626
103.586	1622
104.869	1592
106.152	1632
107.435	1648
108.717	1630
109.999	1650
111.281	1604
112.563	1614
113.845	1692
115.126	1632
116.407	1598
117.688	1608
118.969	1588
120.249	1606
121.53	1640
122.81	1594
124.09	1614
125.369	1642
126.649	1636
127.928	1632
129.207	1606
130.486	1756
131.765	2782
133.043	1676
134.321	1598
135.599	1646
136.877	1674
138.155	1608
139.432	1634
140.708	1586
141.985	1642
143.261	1612
144.538	1622
145.814	1652
147.09	1634
148.366	1630
149.641	1600
150.916	1594
152.191	1584
153.466	1690
154.741	1628
156.016	1662
157.289	1626
158.563	1614
159.837	1584
161.111	1582
162.385	1576
163.657	1632
164.93	1556
166.203	1652
167.476	1630
168.747	1622
170.019	1610
171.291	1610
172.562	1580
173.834	1624
175.105	1626
176.377	1598
177.646	1604
178.917	1534
180.188	1630
181.457	1604
182.727	1552
183.996	1638
185.266	1590
186.536	1614
187.804	1624
189.073	1620
190.342	1578
191.609	1674
192.878	1618
194.145	1630
195.413	1632
196.681	1582
197.948	1626
199.215	1568
200.481	1652
201.749	1598
203.014	1644
204.281	1626
205.546	1654
206.813	1662
208.077	1594
209.343	1612
210.608	1652
211.873	1672
213.137	1592
214.402	1646
215.666	1666
216.93	1648
218.194	1672
219.458	1642
220.721	1604
221.983	1644
223.247	1624
224.509	1642
225.772	1652
227.034	1640
228.295	1628
229.558	1682
230.819	1630
232.081	1614
233.342	1636
234.602	1700
235.864	1694
237.124	1652
238.384	1674
239.645	1640
240.904	1660
242.164	1670
243.423	1676
244.683	1624
245.941	1678
247.2	1648
248.46	1670
249.717	1686
250.975	1644
252.233	1684
253.492	1684
254.749	1624
256.006	1670
257.263	1636
258.519	1676
259.777	1648
261.033	1636
262.289	1638
263.545	1680
264.8	1660
266.057	1618
267.312	1658
268.567	1632
269.822	1606
271.076	1618
272.331	1626
273.585	1610
274.839	1666
276.094	1672
277.347	1652
278.601	1612
279.854	1628
281.107	1610
282.359	1620
283.612	1666
284.864	1716
286.116	1686
287.368	1614
288.62	1650
289.871	1622
291.123	1616
292.374	1678
293.625	1606
294.875	1694
296.126	1708
297.376	1654
298.626	1682
299.876	1672
301.126	1660
302.375	1676
303.625	1700
304.874	1698
306.122	1694
307.371	1712
308.62	1702
309.866	1696
311.114	1664
312.362	1646
313.61	1690
314.857	1732
316.105	1670
317.352	1740
318.599	1664
319.844	1690
321.09	1712
322.337	1650
323.583	1644
324.828	1656
326.073	1702
327.318	1650
328.563	1764
329.808	1724
331.053	1708
332.296	1674
333.541	1686
334.785	1726
336.029	1710
337.272	1706
338.515	1692
339.759	1716
341.001	1690
342.244	1720
343.486	1718
344.728	1688
345.97	1702
347.212	1696
348.453	1692
349.695	1712
350.936	1682
352.176	1768
353.418	1716
354.659	1678
355.898	1720
357.139	1714
358.378	1768
359.618	1746
360.858	1760
362.097	1726
363.336	1700
364.574	1738
365.813	1744
367.051	1762
368.29	1702
369.527	1726
370.766	1740
372.002	1760
373.241	1714
374.477	1754
375.715	1770
376.951	1754
378.188	1730
379.424	1746
380.66	1744
381.896	1742
383.132	1746
384.367	1702
385.603	1750
386.838	1712
388.072	1750
389.307	1748
390.541	1726
391.776	1756
393.01	1736
394.243	1692
395.477	1730
396.71	1716
397.943	1764
399.177	1736
400.409	1812
401.641	1762
402.875	1780
404.106	1770
405.338	1760
406.57	1752
407.802	1834
409.032	1782
410.263	1758
411.495	1756
412.725	1804
413.955	1828
415.185	1856
416.417	1790
417.646	1766
418.875	1844
420.104	1826
421.335	1852
422.564	1794
423.792	1846
425.02	1814
426.249	1828
427.477	1850
428.706	1840
429.933	1792
431.161	1850
432.388	1872
433.615	1860
434.841	1810
436.068	1852
437.294	1846
438.522	1860
439.748	1850
440.974	1852
442.199	1858
443.425	1892
444.65	1892
445.875	1890
447.1	1910
448.324	1864
449.549	1884
450.773	1886
451.997	1868
453.221	1878
454.445	1854
455.668	1858
456.891	1896
458.114	1834
459.337	1874
460.56	1880
461.782	1852
463.005	1894
464.227	1872
465.447	1870
466.669	1868
467.89	1868
469.112	1910
470.333	1878
471.554	1918
472.774	1974
473.995	1958
475.214	1938
476.434	1932
477.654	1992
478.874	1900
480.093	1908
481.312	1958
482.53	1958
483.749	1942
484.968	1934
486.186	1926
487.405	1890
488.622	1908
489.84	1962
491.057	1988
492.275	1952
493.491	1992
494.708	1970
495.925	2006
497.141	2000
498.357	1966
499.574	1970
500.789	1940
502.005	1984
503.221	2046
504.435	2046
505.65	2028
506.866	1998
508.079	2012
509.294	1948
510.509	2044
511.722	2032
512.936	2078
514.149	2024
515.363	1998
516.577	2012
517.789	2018
519.002	2072
520.214	2012
521.427	2048
522.638	2018
523.851	1998
525.062	2084
526.274	2054
527.485	1980
528.697	2054
529.907	2070
531.118	2020
532.328	2004
533.539	2004
534.748	2062
535.959	2030
537.168	2056
538.379	2024
539.587	2064
540.796	2076
542.005	2100
543.214	2062
544.423	2070
545.631	2116
546.838	2156
548.047	2040
549.254	2100
550.461	2132
551.669	2098
552.876	2070
554.082	2074
555.29	2150
556.496	2174
557.701	2146
558.909	2166
560.114	2128
561.319	2162
562.524	2134
563.731	2102
564.935	2174
566.14	2200
567.344	2152
568.549	2236
569.753	2168
570.957	2164
572.161	2212
573.364	2192
574.568	2226
575.771	2222
576.974	2242
578.177	2280
579.379	2242
580.581	2252
581.785	2230
582.987	2262
584.188	2262
585.39	2326
586.591	2260
587.792	2322
588.993	2304
590.193	2282
591.394	2274
592.594	2336
593.796	2314
594.996	2342
596.195	2336
597.395	2350
598.594	2294
599.793	2354
600.992	2378
602.191	2354
603.39	2378
604.588	2330
605.786	2402
606.984	2362
608.181	2380
609.378	2396
610.576	2488
611.773	2404
612.97	2474
614.167	2448
615.364	2442
616.56	2428
617.757	2520
618.953	2508
620.149	2518
621.343	2458
622.539	2478
623.734	2540
624.929	2570
626.124	2628
627.319	2578
628.512	2568
629.707	2536
630.901	2574
632.095	2572
633.289	2626
634.481	2598
635.675	2604
636.868	2640
638.061	2660
639.253	2670
640.446	2666
641.638	2712
642.831	2666
644.021	2672
645.213	2706
646.405	2740
647.595	2776
648.787	2736
649.978	2766
651.168	2768
652.359	2784
653.549	2760
654.738	2780
655.929	2822
657.117	2810
658.307	2766
659.497	2788
660.685	2800
661.875	2846
663.063	2818
664.252	2810
665.439	2822
666.628	2874
667.816	2886
669.003	2866
670.191	2860
671.378	2938
672.565	2952
673.751	2918
674.939	2936
676.124	2856
677.311	2892
678.497	2970
679.682	2896
680.868	2986
682.053	3022
683.239	2990
684.424	2992
685.609	2942
686.793	2962
687.977	3044
689.162	3034
690.346	3082
691.529	3126
692.714	3090
693.897	3016
695.081	3088
696.264	3054
697.446	3120
698.63	3104
699.812	3108
700.993	3232
702.175	3120
703.358	3086
704.539	3124
705.72	3228
706.901	3200
708.083	3298
709.264	3268
710.444	3184
711.625	3220
712.806	3354
713.986	3288
715.165	3352
716.345	3402
717.524	3332
718.705	3336
719.884	3374
721.062	3408
722.241	3398
723.419	3382
724.597	3428
725.775	3432
726.954	3398
728.132	3444
729.31	3494
730.487	3482
731.664	3536
732.841	3578
734.017	3500
735.194	3588
736.37	3500
737.546	3580
738.722	3604
739.898	3672
741.074	3672
742.249	3630
743.424	3518
744.599	3610
745.774	3620
746.949	3662
748.123	3700
749.298	3624
750.472	3710
751.646	3714
752.819	3712
753.993	3732
755.166	3770
756.34	3774
757.511	3726
758.684	3840
759.857	3838
761.029	3846
762.202	3798
763.374	3888
764.546	3880
765.716	3930
766.888	3892
768.059	3936
769.23	3942
770.401	3902
771.571	3968
772.741	3966
773.912	3918
775.082	4008
776.251	4000
777.421	4036
778.59	4032
779.76	4068
780.928	4034
782.097	4104
783.266	4184
784.434	4104
785.602	4156
786.771	4122
787.938	4162
789.106	4210
790.274	4238
791.44	4212
792.608	4202
793.775	4216
794.941	4236
796.108	4294
797.273	4338
798.44	4358
799.606	4326
800.771	4356
801.937	4344
803.102	4322
804.268	4398
805.432	4418
806.597	4392
807.761	4490
808.926	4488
810.09	4550
811.254	4542
812.417	4546
813.582	4566
814.744	4590
815.908	4590
817.071	4634
818.234	4692
819.396	4654
820.558	4674
821.721	4734
822.883	4720
824.045	4738
825.206	4726
826.367	4760
827.529	4844
828.69	4852
829.85	4744
831.012	4860
832.172	4858
833.332	4926
834.493	4862
835.653	4996
836.812	4932
837.972	4980
839.131	5022
840.29	5100
841.449	5036
842.609	5126
843.767	5164
844.925	5112
846.083	5026
847.242	5180
848.399	5174
849.557	5066
850.714	5136
851.871	5224
853.029	5240
854.186	5292
855.342	5280
856.498	5270
857.654	5404
858.81	5286
859.966	5332
861.122	5322
862.278	5362
863.434	5378
864.589	5346
865.744	5414
866.898	5518
868.053	5514
869.207	5470
870.361	5452
871.515	5480
872.669	5524
873.822	5448
874.976	5510
876.129	5650
877.282	5696
878.435	5652
879.588	5558
880.74	5666
881.893	5528
883.045	5596
884.197	5626
885.349	5546
886.5	5578
887.652	5602
888.802	5688
889.953	5680
891.104	5664
892.254	5682
893.405	5786
894.555	5834
895.706	5752
896.854	5754
898.004	5910
899.154	5806
900.303	5888
901.453	5712
902.6	5946
903.749	5928
904.898	5826
906.047	5964
907.194	5852
908.342	5822
909.49	6024
910.638	5920
911.785	5936
912.932	6004
914.08	6028
915.225	5980
916.372	6022
917.519	6034
918.666	6080
919.811	6062
920.957	6060
922.102	6090
923.248	6036
924.394	6228
925.538	6256
926.684	6158
927.828	6238
928.973	6216
930.118	6240
931.261	6272
932.406	6220
933.549	6326
934.693	6312
935.836	6192
936.979	6366
938.122	6344
939.265	6314
940.407	6272
941.55	6384
942.692	6432
943.835	6436
944.976	6310
946.118	6534
947.259	6422
948.401	6592
949.542	6592
950.682	6552
951.824	6504
952.964	6494
954.105	6560
955.245	6698
956.385	6578
957.525	6564
958.664	6580
959.803	6630
960.944	6612
962.082	6702
963.221	6752
964.36	6790
965.498	6766
966.636	6744
967.774	6720
968.913	6838
970.051	6722
971.188	6714
972.325	6706
973.463	6806
974.6	6892
975.736	6776
976.873	6898
978.009	6918
979.146	6842
980.282	6992
981.418	6934
982.554	6848
983.689	6932
984.824	6906
985.959	6808
987.095	7030
988.23	6910
989.364	6916
990.499	6970
991.633	6880
992.767	6954
993.9	7092
995.034	6924
996.167	7060
997.301	7038
998.434	7048
999.567	7016
1000.7	7034
1001.83	7048
1002.96	7056
1004.1	7096
1005.23	7004
1006.36	7110
1007.49	7138
1008.62	7076
1009.76	7166
1010.89	7168
1012.02	7148
1013.15	7136
1014.28	7146
1015.41	7188
1016.54	7082
1017.67	7212
1018.8	7248
1019.93	7156
1021.06	7162
1022.19	7240
1023.32	7132
1024.44	7218
1025.57	7206
1026.7	7176
1027.83	7236
1028.96	7310
1030.09	7326
1031.21	7302
1032.34	7258
1033.47	7366
1034.6	7428
1035.72	7242
1036.85	7438
1037.98	7290
1039.1	7362
1040.23	7398
1041.35	7478
1042.48	7470
1043.61	7350
1044.73	7408
1045.86	7390
1046.98	7440
1048.11	7446
1049.23	7538
1050.36	7384
1051.48	7498
1052.61	7486
1053.73	7640
1054.85	7302
1055.98	7528
1057.1	7484
1058.22	7466
1059.35	7502
1060.47	7562
1061.59	7620
1062.72	7386
1063.84	7422
1064.96	7526
1066.08	7546
1067.2	7490
1068.33	7540
1069.45	7530
1070.57	7508
1071.69	7520
1072.81	7590
1073.93	7526
1075.05	7598
1076.17	7502
1077.29	7510
1078.41	7356
1079.53	7502
1080.65	7470
1081.77	7478
1082.89	7430
1084.01	7418
1085.13	7294
1086.25	7462
1087.37	7412
1088.48	7390
1089.6	7388
1090.72	7378
1091.84	7478
1092.96	7406
1094.07	7474
1095.19	7458
1096.31	7344
1097.43	7324
1098.54	7318
1099.66	7342
1100.78	7334
1101.89	7346
1103.01	7312
1104.12	7342
1105.24	7328
1106.35	7380
1107.47	7262
1108.59	7418
1109.7	7264
1110.81	7270
1111.93	7260
1113.04	7278
1114.16	7264
1115.27	7240
1116.39	7290
1117.5	7150
1118.61	7204
1119.73	7198
1120.84	7276
1121.95	7256
1123.06	7340
1124.18	7230
1125.29	7194
1126.4	7300
1127.51	7300
1128.63	7206
1129.74	7254
1130.85	7174
1131.96	7158
1133.07	7228
1134.18	7242
1135.29	7246
1136.4	7244
1137.51	7178
1138.62	7178
1139.73	7126
1140.84	7070
1141.95	7198
1143.06	7226
1144.17	7188
1145.28	7160
1146.39	7156
1147.5	7150
1148.61	7232
1149.72	7148
1150.82	7044
1151.93	7126
1153.04	7234
1154.15	7142
1155.26	7048
1156.36	7060
1157.47	7098
1158.58	7076
1159.68	6982
1160.79	7042
1161.9	6988
1163	6966
1164.11	7044
1165.22	7060
1166.32	7082
1167.43	6972
1168.53	6956
1169.64	6938
1170.74	7000
1171.85	7014
1172.95	6996
1174.06	6858
1175.16	6900
1176.26	6860
1177.37	6956
1178.47	6910
1179.58	6842
1180.68	6862
1181.78	6758
1182.88	6702
1183.99	6762
1185.09	6774
1186.19	6770
1187.3	6678
1188.4	6754
1189.5	6842
1190.6	6748
1191.7	6782
1192.8	6608
1193.9	6570
1195.01	6478
1196.11	6507.94
1197.21	6566.45
1198.31	6552.31
1199.41	6513.2
1200.51	6565.97
1201.61	6485.97
1202.71	6487.45
1203.81	6465.32
1204.91	6392.39
1206.01	6461.21
1207.11	6459.93
1208.2	6420.39
1209.3	6464.57
1210.4	6327.99
1211.5	6359.66
1212.6	6373.51
1213.7	6375.19
1214.8	6214.58
1215.89	6355.87
1216.99	6333.48
1218.09	6261.37
1219.18	6313.19
1220.28	6218.57
1221.38	6199.87
1222.48	6297.55
1223.57	6220.92
1224.67	6118.96
1225.76	6190.2
1226.86	6152.3
1227.96	6158.29
1229.05	6175.12
1230.15	6143.37
1231.24	6051.14
1232.34	6076.23
1233.43	6028.54
1234.53	6057.06
1235.62	6157
1236.71	6043.63
1237.81	6048.63
1238.9	6040.05
1240	6064.82
1241.09	6031.02
1242.18	5923.18
1243.28	5907.27
1244.37	5942.65
1245.46	5932.12
1246.56	5916.49
1247.65	5897.08
1248.74	5929.96
1249.83	5944.21
1250.93	5896.92
1252.02	5881.27
1253.11	5891.91
1254.2	5854.78
1255.29	5816.65
1256.38	5851.5
1257.47	5785.84
1258.56	5769.49
1259.65	5796.76
1260.74	5782.33
1261.84	5794.23
1262.92	5754.52
1264.01	5740.95
1265.1	5770.03
1266.19	5812.3
1267.28	5712.46
1268.37	5691.03
1269.46	5713.36
1270.55	5703.33
1271.64	5644.42
1272.73	5698.65
1273.82	5695.54
1274.9	5642.43
1275.99	5563.75
1277.08	5676.01
1278.17	5623.58
1279.26	5570.79
1280.34	5594.96
1281.43	5545.59
1282.52	5560.85
1283.6	5542.5
1284.69	5529.46
1285.78	5551.3
1286.86	5474.77
1287.95	5519.8
1289.03	5412.04
1290.12	5488.04
1291.21	5425.23
1292.29	5449.97
1293.38	5412.1
1294.46	5416.69
1295.55	5403.74
1296.63	5360.42
1297.71	5440.73
1298.8	5415.96
1299.88	5357.08
1300.97	5370.31
1302.05	5334.38
1303.13	5302.25
1304.22	5273.46
1305.3	5319.3
1306.38	5268.12
1307.34	5234
1308.43	5222
1309.52	5190
1310.61	5280
1311.7	5258
1312.78	5166
1313.87	5236
1314.96	5166
1316.05	5132
1317.13	5084
1318.22	5200
1319.3	5066
1320.39	5104
1321.48	5056
1322.56	5112
1323.65	5076
1324.73	4994
1325.82	4990
1326.9	4972
1327.99	5008
1329.07	4844
1330.16	4966
1331.24	4986
1332.33	4872
1333.41	4970
1334.5	4840
1335.58	4780
1336.66	4862
1337.75	4864
1338.83	4818
1339.91	4792
1341	4798
1342.08	4914
1343.16	4774
1344.25	4814
1345.33	4630
1346.41	4736
1347.49	4674
1348.57	4748
1349.65	4718
1350.74	4670
1351.82	4682
1352.9	4672
1353.98	4654
1355.06	4598
1356.14	4650
1357.22	4546
1358.3	4608
1359.38	4592
1360.46	4562
1361.54	4542
1362.62	4550
1363.7	4580
1364.78	4494
1365.86	4494
1366.94	4544
1368.02	4558
1369.09	4456
1370.17	4512
1371.25	4412
1372.33	4452
1373.41	4424
1374.48	4480
1375.56	4458
1376.64	4308
1377.72	4366
1378.79	4352
1379.87	4374
1380.95	4346
1382.02	4306
1383.1	4256
1384.17	4334
1385.25	4288
1386.33	4344
1387.4	4358
1388.48	4334
1389.55	4290
1390.63	4262
1391.7	4278
1392.78	4234
1393.85	4254
1394.93	4186
1396	4172
1397.07	4194
1398.15	4148
1399.22	4200
1400.3	4220
1401.37	4146
1402.44	4200
1403.52	4118
1404.59	4126
1405.66	4100
1406.73	4126
1407.81	4106
1408.88	4050
1409.95	4134
1411.02	4090
1412.09	3986
1413.17	4114
1414.24	4028
1415.31	3936
1416.38	4008
1417.45	4006
1418.52	3896
1419.59	3990
1420.66	3952
1421.73	3914
1422.8	3928
1423.87	3958
1424.94	4000
1426.01	4016
1427.08	3912
1428.15	3930
1429.22	3898
1430.29	3856
1431.35	3950
1432.42	3906
1433.49	3878
1434.56	3920
1435.63	3848
1436.7	3866
1437.76	3804
1438.83	3834
1439.9	3740
1440.96	3858
1442.03	3834
1443.1	3810
1444.17	3808
1445.23	3732
1446.3	3800
1447.36	3762
1448.43	3816
1449.49	3672
1450.56	3762
1451.63	3758
1452.69	3800
1453.76	3792
1454.82	3720
1455.89	3756
1456.95	3712
1458.01	3694
1459.08	3806
1460.14	3692
1461.21	3666
1462.27	3656
1463.34	3684
1464.4	3630
1465.46	3598
1466.52	3690
1467.59	3606
1468.65	3664
1469.71	3622
1470.77	3668
1471.84	3556
1472.9	3624
1473.96	3554
1475.02	3576
1476.08	3586
1477.15	3628
1478.21	3572
1479.27	3588
1480.33	3548
1481.39	3572
1482.45	3564
1483.51	3586
1484.57	3522
1485.63	3566
1486.69	3524
1487.75	3538
1488.81	3444
1489.87	3564
1490.93	3522
1491.99	3452
1493.05	3506
1494.1	3458
1495.16	3510
1496.22	3512
1497.28	3438
1498.34	3468
1499.4	3478
1500.45	3456
1501.51	3464
1502.57	3484
1503.63	3338
1504.68	3394
1505.74	3354
1506.8	3396
1507.85	3374
1508.91	3438
1509.97	3416
1511.02	3328
1512.08	3390
1513.13	3332
1514.19	3348
1515.24	3326
1516.3	3332
1517.35	3380
1518.41	3336
1519.46	3238
1520.52	3250
1521.57	3340
1522.63	3288
1523.68	3266
1524.73	3262
1525.79	3272
1526.84	3280
1527.9	3208
1528.95	3256
1530	3148
1531.06	3200
1532.11	3182
1533.16	3266
1534.21	3266
1535.26	3258
1536.32	3172
1537.37	3232
1538.42	3222
1539.47	3158
1540.52	3238
1541.57	3224
1542.63	3158
1543.68	3088
1544.73	3242
1545.78	3180
1546.83	3146
1547.88	3142
1548.93	3160
1549.98	3142
1551.03	3066
1552.08	3104
1553.13	3136
1554.18	3082
1555.23	3092
1556.27	3088
1557.32	3112
1558.37	3050
1559.42	3108
1560.47	3048
1561.52	3072
1562.56	3046
1563.61	3016
1564.66	3090
1565.71	2934
1566.75	2976
1567.8	3046
1568.85	3020
1569.9	2998
1570.94	3088
1571.99	3030
1573.03	2998
1574.08	3014
1575.13	2954
1576.17	3032
1577.22	2968
1578.26	3012
1579.31	3086
1580.35	2984
1581.4	2984
1582.44	2928
1583.49	3008
1584.53	2970
1585.58	2992
1586.62	3024
1587.66	2994
1588.71	2992
1589.75	2902
1590.8	2892
1591.84	3006
1592.88	2908
1593.93	2870
1594.97	2910
1596.01	2934
1597.05	2914
1598.1	2904
1599.14	2890
1600.18	2958
1601.22	2866
1602.26	2894
1603.31	2860
1604.35	2864
1605.39	2880
1606.43	2900
1607.47	2862
1608.51	2890
1609.55	2868
1610.59	2884
1611.63	2930
1612.67	2836
1613.71	2890
1614.75	2896
1615.79	2900
1616.83	2820
1617.87	2880
1618.91	2856
1619.95	2854
1620.99	2862
1622.02	2868
1623.06	2866
1624.1	2820
1625.14	2818
1626.18	2826
1627.21	2782
1628.25	2800
1629.29	2838
1630.33	2858
1631.36	2826
1632.4	2812
1633.44	2838
1634.48	2772
1635.51	2820
1636.55	2758
1637.58	2748
1638.62	2786
1639.66	2834
1640.69	2842
1641.73	2760
1642.76	2832
1643.8	2782
1644.83	2786
1645.87	2826
1646.9	2742
1647.94	2750
1648.97	2790
1650	2784
1651.04	2754
1652.07	2750
1653.11	2792
1654.14	2714
1655.17	2802
1656.21	2732
1657.24	2680
1658.27	2728
1659.31	2756
1660.34	2722
1661.37	2714
1662.4	2730
1663.43	2730
1664.47	2706
1665.5	2722
1666.53	2608
1667.56	2754
1668.59	2714
1669.62	2660
1670.66	2680
1671.69	2638
1672.72	2680
1673.75	2628
1674.78	2684
1675.81	2686
1676.84	2688
1677.87	2624
1678.9	2678
1679.93	2624
1680.96	2684
1681.98	2614
1683.01	2574
1684.04	2616
1685.07	2630
1686.1	2620
1687.13	2654
1688.16	2606
1689.19	2582
1690.21	2556
1691.24	2580
1692.27	2584
1693.3	2566
1694.32	2572
1695.35	2564
1696.38	2516
1697.4	2562
1698.43	2576
1699.46	2524
1700.48	2524
1701.51	2554
1702.54	2484
1703.56	2504
1704.59	2456
1705.61	2530
1706.64	2542
1707.66	2500
1708.69	2558
1709.71	2498
1710.74	2404
1711.76	2510
1712.79	2550
1713.81	2486
1714.83	2522
1715.86	2480
1716.88	2488
1717.91	2488
1718.93	2510
1719.95	2478
1720.98	2542
1722	2488
1723.02	2468
1724.04	2450
1725.07	2396
1726.09	2468
1727.11	2408
1728.13	2472
1729.15	2444
1730.18	2478
1731.2	2444
1732.22	2472
1733.24	2478
1734.26	2490
1735.28	2394
1736.3	2392
1737.32	2464
1738.34	2426
1739.36	2472
1740.38	2462
1741.4	2454
1742.42	2412
1743.44	2478
1744.46	2362
1745.48	2452
1746.5	2414
1747.52	2472
1748.54	2392
1749.56	2390
1750.58	2416
1751.6	2392
1752.61	2408
1753.63	2396
1754.65	2450
1755.67	2400
1756.68	2384
1757.7	2424
1758.72	2346
1759.74	2386
1760.75	2390
1761.77	2342
1762.79	2366
1763.8	2388
1764.82	2366
1765.84	2370
1766.85	2294
1767.87	2372
1768.88	2380
1769.9	2390
1770.91	2368
1771.93	2366
1772.94	2382
1773.96	2334
1774.97	2370
1775.99	2350
1777	2354
1778.02	2370
1779.03	2332
1780.04	2350
1781.06	2358
1782.07	2330
1783.09	2350
1784.1	2354
1785.11	2344
1786.13	2356
1787.14	2370
1788.15	2384
1789.16	2328
1790.18	2362
1791.19	2318
1792.2	2386
1793.21	2356
1794.22	2318
1795.23	2274
1796.25	2324
1797.26	2266
1798.27	2326
1799.28	2214
1800.29	2312
1801.3	2286
1802.31	2288
1803.32	2266
1804.33	2338
1805.34	2338
1806.35	2278
1807.36	2270
1808.37	2228
1809.38	2234
1810.39	2334
1811.4	2256
1812.41	2298
1813.42	2204
1814.43	2336
1815.43	2248
1816.44	2290
1817.45	2256
1818.46	2268
1819.47	2222
1820.47	2268
1821.48	2300
1822.49	2280
1823.49	2282
1824.5	2238
1825.51	2260
1826.52	2242
1827.52	2258
1828.53	2248
1829.54	2196
1830.54	2236
1831.55	2242
1832.55	2258
1833.56	2180
1834.56	2248
1835.57	2240
1836.57	2224
1837.58	2238
1838.58	2190
1839.59	2220
1840.59	2242
1841.6	2196
1842.6	2240
1843.61	2194
1844.61	2186
1845.61	2216
1846.62	2182
1847.62	2136
1848.62	2242
1849.63	2198
1850.63	2226
1851.63	2214
1852.64	2154
1853.64	2140
1854.64	2122
1855.64	2132
1856.64	2132
1857.65	2152
1858.65	2154
1859.65	2100
1860.65	2174
1861.65	2182
1862.65	2148
1863.65	2110
1864.66	2130
1865.66	2120
1866.66	2158
1867.66	2146
1868.66	2124
1869.66	2126
1870.66	2132
1871.66	2134
1872.66	2162
1873.66	2136
1874.66	2166
1875.65	2150
1876.65	2194
1877.65	2072
1878.65	2118
1879.65	2092
1880.65	2078
1881.65	2098
1882.64	2164
1883.64	2086
1884.64	2076
1885.64	2092
1886.63	2118
1887.63	2116
1888.63	2070
1889.63	2104
1890.62	2140
1891.62	2124
1892.62	2072
1893.61	2078
1894.61	2110
1895.6	2012
1896.6	2140
1897.6	2098
1898.59	2084
1899.59	2068
1900.58	2058
1901.58	2060
1902.57	2084
1903.57	2070
1904.56	2030
1905.56	2098
1906.55	2174
1907.54	2076
1908.54	2084
1909.53	2102
1910.53	2046
1911.52	2128
1912.51	2146
1913.51	2068
1914.5	2042
1915.49	2066
1916.49	2066
1917.48	2100
1918.47	2076
1919.46	2094
1920.46	2088
1921.45	2116
1922.44	2096
1923.43	2078
1924.42	2054
1925.41	2048
1926.41	2062
1927.4	2136
1928.39	2078
1929.38	2078
1930.37	2068
1931.36	2072
1932.35	2020
1933.34	2044
1934.33	2060
1935.32	2066
1936.31	2084
1937.3	2042
1938.29	2110
1939.28	2064
1940.27	2066
1941.26	2060
1942.24	2058
1943.23	2032
1944.22	2030
1945.21	2070
1946.2	2034
1947.19	1996
1948.17	2016
1949.16	1998
1950.15	2019
1951.14	2040
1952.13	2030
1953.11	1998
1954.1	1998
1955.09	1994
1956.07	1974
1957.06	2046
1958.05	2008
1959.03	2018
1960.02	2012
1961	1988
1961.99	2028
1962.98	2012
1963.96	1974
1964.95	2022
1965.93	2024
1966.92	1970
1967.9	1982
1968.89	2004
1969.87	1992
1970.85	2014
1971.84	2058
1972.82	1952
1973.81	2000
1974.79	1964
1975.78	1944
1976.76	1962
1977.74	2008
1978.73	1956
1979.71	1982
1980.69	1930
1981.67	1988
1982.66	1982
1983.64	1946
1984.62	1992
1985.6	2008
1986.59	1966
1987.57	1970
1988.55	2010
1989.53	1960
1990.51	1972
1991.49	1970
1992.47	1992
1993.45	1962
1994.44	1908
1995.42	1982
1996.4	1950
1997.38	1948
1998.36	1980
1999.34	1914
2000.32	1990
2001.3	1956
2002.28	1978
2003.26	1958
2004.24	1896
2005.22	1974
2006.19	1950
2007.17	1948
2008.15	1972
2009.13	1942
2010.11	1948
2011.09	1968
2012.06	1936
2013.04	1952
2014.02	1912
2015	1990
2015.98	1922
2016.95	1924
2017.93	1950
2018.91	1896
2019.88	1922
2020.86	1934
2021.84	1966
2022.81	1910
2023.79	1914
2024.77	1976
2025.74	1948
2026.72	1932
2027.69	1944
2028.67	1970
2029.65	1958
2030.62	1926
2031.6	1930
2032.57	1886
2033.55	1932
2034.52	1920
2035.5	1928
2036.47	1880
2037.44	1924
2038.42	1934
2039.39	1992
2040.36	1954
2041.34	1840
2042.31	1860
2043.29	1926
2044.26	1892
2045.23	1928
2046.2	1912
2047.18	1880
2048.15	1866
2049.12	1912
2050.09	1876
2051.07	1914
2052.04	1902
2053.01	1904
2053.98	1852
2054.95	1892
2055.93	1870
2056.9	1854
2057.87	1896
2058.84	1880
2059.81	1924
2060.78	1902
2061.75	1906
2062.72	1880
2063.69	1892
2064.66	1876
2065.63	1878
2066.6	1906
2067.57	1910
2068.54	1886
2069.51	1822
2070.48	1888
2071.45	1884
2072.42	1862
2073.38	1846
2074.35	1908
2075.32	1852
2076.29	1900
2077.26	1844
2078.23	1846
2079.19	1904
2080.16	1856
2081.13	1888
2082.1	1842
2083.06	1872
2084.03	1858
2085	1862
2085.96	1846
2086.93	1862
2087.9	1842
2088.86	1854
2089.83	1898
2090.8	1832
2091.76	1778
2092.73	1858
2093.69	1848
2094.66	1812
2095.62	1870
2096.59	1808
2097.55	1850
2098.52	1860
2099.48	1824
2100.45	1822
2101.41	1856
2102.38	1830
2103.34	1838
2104.31	1852
2105.27	1848
2106.23	1850
2107.2	1844
2108.16	1820
2109.12	1808
2110.09	1828
2111.05	1850
2112.01	1784
2112.98	1796
2113.94	1760
2114.9	1826
2115.86	1802
2116.82	1840
2117.79	1810
2118.75	1780
2119.71	1796
2120.67	1808
2121.63	1824
2122.59	1848
2123.55	1792
2124.52	1794
2125.48	1816
2126.44	1830
2127.4	1782
2128.36	1824
2129.32	1852
2130.28	1762
2131.24	1796
2132.2	1816
2133.16	1770
2134.12	1804
2135.08	1764
2136.04	1798
2136.99	1798
2137.95	1770
2138.91	1790
2139.87	1804
2140.83	1810
2141.79	1820
2142.75	1772
2143.7	1756
2144.66	1818
2145.62	1803.76
2146.58	1811.43
2147.53	1774.98
2148.49	1779.45
2149.45	1758.53
2150.41	1762.43
2151.36	1765.14
2152.32	1744.31
2153.28	1779.49
2154.23	1780.6
2155.19	1790.26
2156.14	1769.7
2157.1	1790.94
2158.06	1723.85
2159.01	1781.51
2159.97	1750.58
2160.92	1771.84
2161.88	1748.45
2162.83	1770.91
2163.79	1806.97
2164.74	1729.58
2165.7	1734.17
2166.65	1687.35
2167.61	1738.04
2168.56	1732.12
2169.51	1708.45
2170.47	1715.09
2171.42	1747.18
2172.38	1729.34
2173.33	1730.89
2174.28	1726.8
2175.24	1736.12
2176.19	1734.18
2177.14	1732.62
2178.09	1702.21
2179.05	1706.08
2180	1735.9
2180.95	1710.93
2181.9	1699.12
2182.86	1696.53
2183.81	1713.47
2184.76	1687.88
2185.71	1705.1
2186.66	1719.08
2187.61	1711.2
2188.57	1696.52
2189.52	1718.25
2190.47	1679.75
2191.42	1676.2
2192.37	1710.51
2193.32	1673.06
2194.27	1688.6
2195.22	1704.87
2196.17	1675.24
2197.12	1689.16
2198.07	1682.57
2199.02	1694.09
2199.97	1715.18
2200.92	1692.09
2201.87	1696.72
2202.82	1669.53
2203.76	1686.73
2204.71	1660.55
2205.66	1701.35
2206.61	1707.43
2207.56	1695.82
2208.51	1653.31
2209.45	1671.84
2210.4	1687.66
2211.35	1705.39
2212.3	1674.25
2213.25	1667.84
2214.19	1686.2
2215.14	1664.34
2216.09	1703.77
2217.03	1661.75
2217.98	1635.93
2218.93	1669.63
2219.87	1678.06
2220.82	1671.63
2221.77	1648.69
2222.71	1654.48
2223.66	1641.09
2224.6	1662.33
2225.55	1671.59
2226.49	1652.19
2227.44	1662.61
2228.38	1666.9
2229.33	1698.53
2230.27	1691.44
2231.22	1681.48
2232.16	1668.24
2233.11	1672.17
2234.05	1680.42
2235	1655.69
2235.94	1656.82
2236.88	1671.61
2237.83	1672.22
2238.77	1705.7
2239.72	1697.83
2240.66	1680.86
2241.6	1659.79
2242.07	1626
2243.02	1672
2243.97	1710
2244.92	1726
2245.87	1648
2246.81	1608
2247.76	1706
2248.71	1652
2249.65	1646
2250.6	1674
2251.55	1688
2252.49	1666
2253.44	1640
2254.39	1698
2255.33	1678
2256.28	1650
2257.22	1676
2258.17	1608
2259.12	1674
2260.06	1630
2261.01	1650
2261.95	1700
2262.9	1648
2263.84	1642
2264.78	1648
2265.73	1576
2266.67	1654
2267.62	1622
2268.56	1652
2269.51	1614
2270.45	1594
2271.39	1626
2272.34	1660
2273.28	1670
2274.22	1612
2275.17	1680
2276.11	1596
2277.05	1600
2277.99	1626
2278.94	1662
2279.88	1628
2280.82	1548
2281.76	1598
2282.71	1584
2283.65	1602
2284.59	1652
2285.53	1610
2286.47	1566
2287.41	1610
2288.35	1586
2289.3	1612
2290.24	1620
2291.18	1620
2292.12	1590
2293.06	1672
2294	1566
2294.94	1564
2295.88	1588
2296.82	1574
2297.76	1544
2298.7	1558
2299.64	1538
2300.58	1598
2301.52	1598
2302.46	1560
2303.39	1512
2304.33	1576
2305.27	1596
2306.21	1588
2307.15	1568
2308.09	1604
2309.02	1574
2309.96	1532
2310.9	1538
2311.84	1538
2312.77	1584
2313.71	1546
2314.65	1580
2315.59	1598
2316.52	1564
2317.46	1526
2318.4	1582
2319.33	1562
2320.27	1494
2321.21	1542
2322.14	1548
2323.08	1580
2324.01	1550
2324.95	1536
2325.89	1528
2326.82	1570
2327.76	1542
2328.69	1614
2329.63	1530
2330.56	1514
2331.5	1532
2332.43	1538
2333.36	1534
2334.3	1578
2335.23	1568
2336.17	1576
2337.1	1516
2338.03	1516
2338.97	1472
2339.9	1512
2340.83	1472
2341.77	1476
2342.7	1516
2343.63	1488
2344.57	1540
2345.5	1548
2346.43	1514
2347.36	1504
2348.3	1498
2349.23	1486
2350.16	1502
2351.09	1470
2352.02	1510
2352.95	1512
2353.89	1476
2354.82	1520
2355.75	1498
2356.68	1498
2357.61	1496
2358.54	1500
2359.47	1482
2360.4	1572
2361.33	1514
2362.26	1468
2363.19	1518
2364.12	1508
2365.05	1514
2365.98	1460
2366.91	1492
2367.84	1440
2368.77	1490
2369.7	1428
2370.63	1426
2371.56	1472
2372.48	1428
2373.41	1458
2374.34	1442
2375.27	1464
2376.2	1480
2377.12	1474
2378.05	1472
2378.98	1470
2379.91	1454
2380.84	1468
2381.76	1426
2382.69	1406
2383.62	1468
2384.54	1454
2385.47	1472
2386.4	1464
2387.32	1416
2388.25	1438
2389.18	1414
2390.1	1432
2391.03	1462
2391.95	1460
2392.88	1422
2393.8	1442
2394.73	1382
2395.65	1410
2396.58	1418
2397.5	1374
2398.43	1424
2399.35	1390
2400.28	1474
2401.2	1424
2402.13	1410
2403.05	1380
2403.97	1392
2404.9	1432
2405.82	1420
2406.75	1422
2407.67	1430
2408.59	1366
2409.51	1392
2410.44	1448
2411.36	1402
2412.28	1422
2413.21	1458
2414.13	1372
2415.05	1358
2415.97	1380
2416.9	1382
2417.82	1404
2418.74	1388
2419.66	1384
2420.58	1408
2421.5	1380
2422.42	1366
2423.35	1374
2424.27	1398
2425.19	1362
2426.11	1390
2427.03	1342
2427.95	1408
2428.87	1372
2429.79	1348
2430.71	1358
2431.63	1350
2432.55	1330
2433.47	1342
2434.39	1424
2435.31	1376
2436.23	1328
2437.14	1374
2438.06	1376
2438.98	1356
2439.9	1334
2440.82	1352
2441.74	1362
2442.66	1348
2443.57	1352
2444.49	1312
2445.41	1324
2446.33	1376
2447.24	1336
2448.16	1364
2449.08	1328
2450	1326
2450.91	1348
2451.83	1334
2452.75	1336
2453.66	1312
2454.58	1334
2455.5	1306
2456.41	1338
2457.33	1308
2458.24	1328
2459.16	1312
2460.08	1286
2460.99	1338
2461.91	1306
2462.82	1308
2463.74	1342
2464.65	1322
2465.57	1300
2466.48	1276
2467.4	1296
2468.31	1304
2469.22	1298
2470.14	1288
2471.05	1264
2471.97	1264
2472.88	1296
2473.79	1274
2474.71	1260
2475.62	1236
2476.53	1278
2477.45	1292
2478.36	1272
2479.27	1210
2480.19	1250
2481.1	1280
2482.01	1280
2482.92	1264
2483.83	1232
2484.75	1272
2485.66	1238
2486.57	1248
2487.48	1262
2488.39	1262
2489.3	1210
2490.22	1276
2491.13	1214
2492.04	1266
2492.95	1212
2493.86	1210
2494.77	1224
2495.68	1254
2496.59	1258
2497.5	1246
2498.41	1166
2499.32	1204
2500.23	1220
2501.14	1210
2502.05	1240
2502.96	1200
2503.87	1246
2504.78	1204
2505.68	1194
2506.59	1232
2507.5	1238
2508.41	1196
2509.32	1180
2510.23	1238
2511.14	1216
2512.04	1220
2512.95	1150
2513.86	1246
2514.77	1188
2515.67	1204
2516.58	1220
2517.49	1132
2518.39	1166
2519.3	1190
2520.21	1188
2521.11	1174
2522.02	1250
2522.93	1190
2523.83	1198
2524.74	1186
2525.65	1164
2526.55	1188
2527.46	1142
2528.36	1164
2529.27	1174
2530.17	1168
2531.08	1188
2531.98	1162
2532.89	1162
2533.79	1146
2534.7	1150
2535.6	1158
2536.51	1140
2537.41	1180
2538.32	1140
2539.22	1144
2540.12	1184
2541.03	1174
2541.93	1142
2542.83	1126
2543.74	1126
2544.64	1146
2545.54	1122
2546.45	1126
2547.35	1176
2548.25	1134
2549.15	1164
2550.06	1108
2550.96	1148
2551.86	1100
2552.76	1070
2553.66	1126
2554.56	1130
2555.47	1076
2556.37	1070
2557.27	1134
2558.17	1110
2559.07	1122
2559.97	1132
2560.87	1080
2561.77	1100
2562.67	1064
2563.58	1068
2564.47	1088
2565.38	1108
2566.27	1120
2567.18	1052
2568.07	1094
2568.97	1102
2569.87	1094
2570.77	1100
2571.67	1082
2572.57	1082
2573.47	1044
2574.37	1110
2575.27	1072
2576.17	1084
2577.06	1102
2577.96	1028
2578.86	1090
2579.76	1056
2580.66	1032
2581.55	1012
2582.45	1116
2583.35	1052
2584.25	1078
2585.14	1082
2586.04	1048
2586.94	1046
2587.83	1046
2588.73	1022
2589.63	1038
2590.52	1050
2591.42	1014
2592.32	1038
2593.21	1022
2594.11	1072
2595	1028
2595.9	1036
2596.8	1046
2597.69	1038
2598.59	1062
2599.48	1030
2600.38	990
2601.27	1022
2602.17	1024
2603.06	1026
2603.95	1038
2604.85	1042
2605.74	1032
2606.64	1016
2607.53	1020
2608.42	996
2609.32	954
2610.21	1034
2611.1	1000
2612	1024
2612.89	1036
2613.78	968
2614.68	976
2615.57	984
2616.46	1002
2617.36	998
2618.25	974
2619.14	996
2620.03	1010
2620.92	1024
2621.82	1020
2622.71	984
2623.6	976
2624.49	984
2625.38	970
2626.27	1032
2627.16	972
2628.05	958
2628.95	986
2629.84	962
2630.73	994
2631.62	998
2632.51	960
2633.4	994
2634.29	946
2635.18	954
2636.07	966
2636.96	946
2637.85	944
2638.74	948
2639.62	934
2640.51	966
2641.4	938
2642.29	932
2643.18	950
2644.07	976
2644.96	956
2645.85	980
2646.73	948
2647.62	914
2648.51	906
2649.4	916
2650.28	940
2651.17	974
2652.06	926
2652.95	926
2653.83	936
2654.72	902
2655.61	940
2656.5	904
2657.38	892
2658.27	896
2659.15	926
2660.04	902
2660.93	880
2661.81	904
2662.7	908
2663.58	916
2664.47	936
2665.35	902
2666.24	944
2667.13	928
2668.01	904
2668.9	934
2669.78	880
2670.66	912
2671.55	892
2672.43	890
2673.32	934
2674.2	878
2675.09	940
2675.97	932
2676.85	918
2677.74	890
2678.62	878
2679.5	890
2680.39	922
2681.27	872
2682.15	886
2683.04	884
2683.92	902
2684.8	920
2685.68	904
2686.57	862
2687.45	868
2688.33	838
2689.21	878
2690.09	880
2690.98	870
2691.86	884
2692.74	848
2693.62	854
2694.5	846
2695.38	892
2696.26	830
2697.15	876
2698.03	846
2698.91	812
2699.79	856
2700.67	804
2701.55	892
2702.43	840
2703.31	836
2704.19	888
2705.07	830
2705.95	822
2706.83	822
2707.7	844
2708.58	830
2709.46	850
2710.34	814
2711.22	838
2712.1	812
2712.98	832
2713.86	818
2714.73	818
2715.61	824
2716.49	824
2717.37	824
2718.25	848
2719.12	818
2720	854
2720.88	822
2721.76	832
2722.63	848
2723.51	820
2724.39	812
2725.26	862
2726.14	820
2727.02	788
2727.89	808
2728.77	850
2729.64	766
2730.52	816
2731.4	774
2732.27	838
2733.15	794
2734.02	806
2734.9	832
2735.77	810
2736.65	786
2737.52	784
2738.4	816
2739.27	800
2740.15	778
2741.02	788
2741.9	806
2742.77	782
2743.64	798
2744.52	778
2745.39	744
2746.27	762
2747.14	732
2748.01	738
2748.89	796
2749.76	772
2750.63	762
2751.51	766
2752.38	758
2753.25	770
2754.12	730
2755	760
2755.87	766
2756.74	774
2757.61	750
2758.48	774
2759.35	768
2760.23	762
2761.1	742
2761.97	766
2762.84	762
2763.71	754
2764.58	734
2765.45	730
2766.32	734
2767.19	760
2768.07	732
2768.94	740
2769.81	718
2770.68	724
2771.55	698
2772.42	768
2773.29	716
2774.16	744
2775.02	720
2775.89	792
2776.76	724
2777.63	726
2778.5	720
2779.37	728
2780.24	694
2781.11	688
2781.98	694
2782.84	706
2783.71	706
2784.58	720
2785.45	694
2786.32	706
2787.18	714
2788.05	718
2788.92	704
2789.79	706
2790.65	710
2791.52	680
2792.39	730
2793.25	722
2794.12	730
2794.99	700
2795.85	712
2796.72	694
2797.59	734
2798.45	694
2799.32	682
2800.18	690
2801.05	670
2801.92	724
2802.78	704
2803.65	701
2804.51	698
2805.38	694
2806.24	736
2807.11	678
2807.97	724
2808.84	684
2809.7	690
2810.57	662
2811.43	666
2812.29	686
2813.16	716
2814.02	664
2814.88	680
2815.75	696
2816.61	658
2817.47	676
2818.34	684
2819.2	660
2820.06	686
2820.93	688
2821.79	642
2822.65	664
2823.51	678
2824.38	668
2825.24	654
2826.1	664
2826.96	660
2827.82	616
2828.69	688
2829.55	644
2830.41	632
2831.27	656
2832.13	674
2832.99	680
2833.85	648
2834.71	608
2835.57	632
2836.44	642
2837.3	648
2838.16	636
2839.02	620
2839.88	632
2840.74	640
2841.6	652
2842.46	618
2843.32	646
2844.18	652
2845.03	634
2845.89	626
2846.75	656
2847.61	616
2848.47	638
2849.33	652
2850.19	630
2851.05	646
2851.9	624
2852.76	612
2853.62	622
2854.48	626
2855.34	602
2856.19	626
2857.05	608
2857.91	624
2858.77	602
2859.62	638
2860.48	606
2861.34	582
2862.19	618
2863.05	584
2863.91	604
2864.76	606
2865.62	596
2866.48	592
2867.33	580
2868.19	626
2869.04	602
2869.9	610
2870.76	570
2871.61	594
2872.47	628
2873.32	610
2874.18	594
2875.03	610
2875.89	592
2876.74	576
2877.6	570
2878.45	600
2879.31	580
2880.16	572
2881.01	582
2881.87	576
2882.72	598
2883.58	546
2884.43	600
2885.28	586
2886.14	590
2886.99	592
2887.84	556
2888.7	578
2889.55	554
2890.4	606
2891.25	582
2892.11	580
2892.96	570
2893.81	594
2894.66	552
2895.52	578
2896.37	566
2897.22	576
2898.07	560
2898.92	564
2899.77	548
2900.62	576
2901.48	572
2902.33	574
2903.18	558
2904.03	564
2904.88	558
2905.73	594
2906.58	572
2907.43	570
2908.28	542
2909.13	550
2909.98	572
2910.83	560
2911.68	564
2912.53	550
2913.38	592
2914.23	564
2915.08	538
2915.93	530
2916.78	538
2917.63	538
2918.47	536
2919.32	558
2920.17	562
2921.02	578
2921.87	546
2922.72	554
2923.56	550
2924.41	566
2925.26	562
2926.11	544
2926.95	556
2927.8	554
2928.65	562
2929.5	568
2930.34	532
2931.19	544
2932.04	520
2932.88	550
2933.73	560
2934.58	562
2935.42	554
2936.27	530
2937.11	556
2937.96	536
2938.81	542
2939.65	542
2940.5	538
2941.34	534
2942.19	560
2943.03	532
2943.88	524
2944.72	516
2945.57	542
2946.41	528
2947.26	504
2948.1	522
2948.95	536
2949.79	524
2950.64	528
2951.48	532
2952.32	514
2953.17	538
2954.01	522
2954.85	512
2955.7	528
2956.54	496
2957.38	544
2958.23	540
2959.07	544
2959.91	510
2960.75	500
2961.6	532
2962.44	498
2963.28	508
2964.12	506
2964.97	544
2965.81	520
2966.65	500
2967.49	518
2968.33	530
2969.17	504
2970.02	532
2970.86	500
2971.7	510
2972.54	526
2973.38	512
2974.22	472
2975.06	518
2975.9	524
2976.74	482
2977.58	500
2978.42	488
2979.26	496
2980.1	508
2980.94	478
2981.78	490
2982.62	482
2983.46	492
2984.3	488
2985.14	514
2985.98	466
2986.82	480
2987.66	476
2988.49	476
2989.33	446
2990.17	474
2991.01	484
2991.85	512
2992.69	474
2993.52	486
2994.36	454
2995.2	476
2996.04	480
2996.87	498
2997.71	486
2998.55	478
2999.39	490
