#Acq. time (s)=	10
#Accumulations=	1
#Range (cm-¹)=	100...3000
#Windows=	3
#Autofocus=	Off
#AutoExposure=	Off
#Spike filter=	Off
#Delay time (s)=	0
#Binning=	1
#Readout mode=	Signal
#DeNoise=	Off
#ICS correction=	Off
#Dark correction=	Off
#Inst. Process=	Off
#Instrument=	LabRAM HR Evol
#Detector=	Syncerity OE
#Objective=	x100_VIS
#Grating=	600 (500nm)
#ND Filter=	5%
#Laser=	633nm_Edge
#Hole=	74.97
#Range=	Visible
#Project=	Omar
#Sample=	26-06-23
#Site=	1
#Title=	Organic
#Remark=	
#Date=	26.06.2023 15:59
#Acquired=	26.06.2023 15:59:52
101.018	1744
102.302	1726
103.586	1680
104.869	1712
106.152	1756
107.435	1754
108.717	1714
109.999	1694
111.281	1730
112.563	1710
113.845	1680
115.126	1722
116.407	1724
117.688	1668
118.969	1722
120.249	1708
121.53	1744
122.81	1692
124.09	1716
125.369	1656
126.649	1694
127.928	1734
129.207	1702
130.486	1734
131.765	1744
133.043	1730
134.321	1712
135.599	1730
136.877	1718
138.155	1678
139.432	1766
140.708	1654
141.985	1694
143.261	1722
144.538	1704
145.814	1682
147.09	1662
148.366	1682
149.641	1658
150.916	1678
152.191	1706
153.466	1690
154.741	1722
156.016	1720
157.289	1684
158.563	1740
159.837	1682
161.111	1706
162.385	1722
163.657	1688
164.93	1694
166.203	1666
167.476	1710
168.747	1722
170.019	1674
171.291	1668
172.562	1680
173.834	1660
175.105	1712
176.377	1676
177.646	1672
178.917	1698
180.188	1680
181.457	1740
182.727	1698
183.996	1682
185.266	1602
186.536	1696
187.804	1682
189.073	1664
190.342	1684
191.609	1700
192.878	1760
194.145	1750
195.413	1688
196.681	1718
197.948	1686
199.215	1690
200.481	1718
201.749	1676
203.014	1708
204.281	1718
205.546	1676
206.813	1724
208.077	1694
209.343	1708
210.608	1726
211.873	1714
213.137	1740
214.402	1708
215.666	1722
216.93	1724
218.194	1736
219.458	1730
220.721	1726
221.983	1704
223.247	1712
224.509	1722
225.772	1728
227.034	1708
228.295	1752
229.558	1754
230.819	1796
232.081	1762
233.342	1754
234.602	1750
235.864	1736
237.124	1738
238.384	1700
239.645	1714
240.904	1746
242.164	1708
243.423	1774
244.683	1784
245.941	1758
247.2	1780
248.46	1756
249.717	1772
250.975	1736
252.233	1738
253.492	1734
254.749	1732
256.006	1734
257.263	1788
258.519	1698
259.777	1712
261.033	1750
262.289	1688
263.545	1784
264.8	1738
266.057	1720
267.312	1718
268.567	1776
269.822	1738
271.076	1746
272.331	1724
273.585	1682
274.839	1710
276.094	1742
277.347	1692
278.601	1728
279.854	1756
281.107	1666
282.359	1736
283.612	1724
284.864	1754
286.116	1758
287.368	1728
288.62	1752
289.871	1790
291.123	1736
292.374	1740
293.625	1766
294.875	1784
296.126	1718
297.376	1748
298.626	1798
299.876	1758
301.126	1738
302.375	1808
303.625	1744
304.874	1824
306.122	1766
307.371	1780
308.62	1792
309.866	1768
311.114	1826
312.362	1766
313.61	1794
314.857	1800
316.105	1756
317.352	1788
318.599	1768
319.844	1770
321.09	1826
322.337	1774
323.583	1764
324.828	1810
326.073	1806
327.318	1750
328.563	1748
329.808	1780
331.053	1816
332.296	1766
333.541	1752
334.785	1790
336.029	1774
337.272	1770
338.515	1780
339.759	1842
341.001	1808
342.244	1806
343.486	1806
344.728	1798
345.97	1786
347.212	1794
348.453	1798
349.695	1778
350.936	1804
352.176	1816
353.418	1830
354.659	1824
355.898	1772
357.139	1798
358.378	1838
359.618	1832
360.858	1840
362.097	1780
363.336	1802
364.574	1850
365.813	1814
367.051	1792
368.29	1830
369.527	1802
370.766	1786
372.002	1806
373.241	1792
374.477	1838
375.715	1846
376.951	1862
378.188	1822
379.424	1820
380.66	1792
381.896	1792
383.132	1860
384.367	1820
385.603	1814
386.838	1816
388.072	1872
389.307	1780
390.541	1802
391.776	1814
393.01	1790
394.243	1824
395.477	1858
396.71	1854
397.943	1838
399.177	1808
400.409	1884
401.641	1864
402.875	1856
404.106	1848
405.338	1920
406.57	1860
407.802	1866
409.032	1890
410.263	1876
411.495	1922
412.725	1900
413.955	1878
415.185	1870
416.417	1900
417.646	1934
418.875	1868
420.104	1936
421.335	1942
422.564	1912
423.792	1960
425.02	1930
426.249	1922
427.477	1962
428.706	1906
429.933	2002
431.161	1994
432.388	1938
433.615	1970
434.841	1900
436.068	1988
437.294	1996
438.522	1960
439.748	2000
440.974	1958
442.199	1990
443.425	2008
444.65	1950
445.875	2012
447.1	1998
448.324	1966
449.549	1978
450.773	1942
451.997	1998
453.221	2010
454.445	2022
455.668	1978
456.891	1968
458.114	2000
459.337	1982
460.56	1988
461.782	1994
463.005	2000
464.227	2004
465.447	1976
466.669	2036
467.89	1982
469.112	1970
470.333	1994
471.554	1974
472.774	2052
473.995	2056
475.214	1958
476.434	2046
477.654	2020
478.874	2034
480.093	2002
481.312	2042
482.53	2040
483.749	2000
484.968	2076
486.186	2050
487.405	2058
488.622	2088
489.84	2010
491.057	2024
492.275	2116
493.491	2062
494.708	2100
495.925	2130
497.141	2100
498.357	2044
499.574	2124
500.789	2090
502.005	2112
503.221	2126
504.435	2112
505.65	2112
506.866	2110
508.079	2134
509.294	2136
510.509	2176
511.722	2082
512.936	2204
514.149	2090
515.363	2106
516.577	2184
517.789	2148
519.002	2202
520.214	2128
521.427	2096
522.638	2140
523.851	2140
525.062	2164
526.274	2162
527.485	2222
528.697	2180
529.907	2206
531.118	2160
532.328	2156
533.539	2218
534.748	2176
535.959	2206
537.168	2216
538.379	2186
539.587	2144
540.796	2200
542.005	2194
543.214	2248
544.423	2204
545.631	2212
546.838	2234
548.047	2242
549.254	2272
550.461	2236
551.669	2286
552.876	2356
554.082	2230
555.29	2234
556.496	2298
557.701	2290
558.909	2256
560.114	2232
561.319	2274
562.524	2254
563.731	2288
564.935	2340
566.14	2268
567.344	2318
568.549	2260
569.753	2294
570.957	2324
572.161	2278
573.364	2306
574.568	2330
575.771	2334
576.974	2422
578.177	2312
579.379	2364
580.581	2366
581.785	2400
582.987	2370
584.188	2396
585.39	2438
586.591	2414
587.792	2378
588.993	2388
590.193	2500
591.394	2412
592.594	2426
593.796	2404
594.996	2420
596.195	2454
597.395	2398
598.594	2466
599.793	2456
600.992	2512
602.191	2474
603.39	2492
604.588	2580
605.786	2504
606.984	2490
608.181	2552
609.378	2496
610.576	2552
611.773	2528
612.97	2562
614.167	2564
615.364	2610
616.56	2566
617.757	2660
618.953	2610
620.149	2718
621.343	2678
622.539	2704
623.734	2698
624.929	2678
626.124	2732
627.319	2746
628.512	2720
629.707	2754
630.901	2742
632.095	2784
633.289	2734
634.481	2848
635.675	2828
636.868	2796
638.061	2784
639.253	2848
640.446	2832
641.638	2814
642.831	2802
644.021	2888
645.213	2862
646.405	2886
647.595	2862
648.787	2872
649.978	2856
651.168	2958
652.359	2932
653.549	2878
654.738	2988
655.929	3002
657.117	2930
658.307	2986
659.497	2964
660.685	2978
661.875	2990
663.063	3022
664.252	2998
665.439	3050
666.628	3080
667.816	3064
669.003	3038
670.191	3018
671.378	3020
672.565	3084
673.751	3100
674.939	3080
676.124	3056
677.311	3100
678.497	3178
679.682	3094
680.868	3166
682.053	3216
683.239	3234
684.424	3136
685.609	3224
686.793	3196
687.977	3258
689.162	3170
690.346	3266
691.529	3246
692.714	3262
693.897	3300
695.081	3334
696.264	3318
697.446	3294
698.63	3302
699.812	3366
700.993	3400
702.175	3348
703.358	3406
704.539	3350
705.72	3460
706.901	3404
708.083	3450
709.264	3444
710.444	3490
711.625	3494
712.806	3456
713.986	3552
715.165	3540
716.345	3558
717.524	3512
718.705	3560
719.884	3610
721.062	3596
722.241	3684
723.419	3632
724.597	3602
725.775	3670
726.954	3690
728.132	3690
729.31	3752
730.487	3684
731.664	3760
732.841	3730
734.017	3754
735.194	3718
736.37	3762
737.546	3796
738.722	3738
739.898	3832
741.074	3886
742.249	3862
743.424	3822
744.599	3868
745.774	3910
746.949	3910
748.123	3914
749.298	3980
750.472	3948
751.646	3898
752.819	4024
753.993	4058
755.166	3972
756.34	4038
757.511	4012
758.684	4120
759.857	4068
761.029	4122
762.202	4082
763.374	4128
764.546	4076
765.716	4156
766.888	4168
768.059	4238
769.23	4204
770.401	4178
771.571	4156
772.741	4304
773.912	4290
775.082	4210
776.251	4316
777.421	4438
778.59	4318
779.76	4308
780.928	4368
782.097	4372
783.266	4402
784.434	4410
785.602	4384
786.771	4428
787.938	4454
789.106	4508
790.274	4476
791.44	4554
792.608	4510
793.775	4548
794.941	4538
796.108	4616
797.273	4624
798.44	4610
799.606	4704
800.771	4750
801.937	4558
803.102	4658
804.268	4688
805.432	4702
806.597	4812
807.761	4850
808.926	4706
810.09	4796
811.254	4858
812.417	4812
813.582	4870
814.744	4902
815.908	4942
817.071	5004
818.234	4920
819.396	5026
820.558	5030
821.721	4928
822.883	5048
824.045	5124
825.206	4970
826.367	5104
827.529	5128
828.69	5204
829.85	5168
831.012	5216
832.172	5238
833.332	5322
834.493	5282
835.653	5290
836.812	5354
837.972	5358
839.131	5322
840.29	5440
841.449	5370
842.609	5460
843.767	5314
844.925	5554
846.083	5622
847.242	5574
848.399	5590
849.557	5484
850.714	5516
851.871	5576
853.029	5530
854.186	5556
855.342	5566
856.498	5696
857.654	5688
858.81	5626
859.966	5726
861.122	5648
862.278	5776
863.434	5742
864.589	5756
865.744	5820
866.898	5884
868.053	5894
869.207	5890
870.361	5884
871.515	5826
872.669	5820
873.822	5904
874.976	5974
876.129	5958
877.282	5892
878.435	6050
879.588	6050
880.74	6056
881.893	6032
883.045	6126
884.197	6096
885.349	5960
886.5	6086
887.652	6112
888.802	6130
889.953	6226
891.104	6064
892.254	6208
893.405	6114
894.555	6170
895.706	6186
896.854	6232
898.004	6232
899.154	6196
900.303	6198
901.453	6310
902.6	6292
903.749	6314
904.898	6290
906.047	6226
907.194	6298
908.342	6410
909.49	6400
910.638	6400
911.785	6404
912.932	6364
914.08	6438
915.225	6374
916.372	6338
917.519	6520
918.666	6578
919.811	6614
920.957	6536
922.102	6538
923.248	6624
924.394	6578
925.538	6620
926.684	6552
927.828	6622
928.973	6606
930.118	6556
931.261	6530
932.406	6638
933.549	6824
934.693	6720
935.836	6710
936.979	6720
938.122	6846
939.265	6742
940.407	6814
941.55	6886
942.692	6892
943.835	6936
944.976	6858
946.118	6804
947.259	6904
948.401	6982
949.542	6922
950.682	6994
951.824	7050
952.964	7022
954.105	7012
955.245	7098
956.385	7032
957.525	7160
958.664	7046
959.803	7130
960.944	7166
962.082	7154
963.221	7254
964.36	7174
965.498	7232
966.636	7176
967.774	7184
968.913	7246
970.051	7200
971.188	7264
972.325	7328
973.463	7168
974.6	7348
975.736	7354
976.873	7304
978.009	7348
979.146	7372
980.282	7396
981.418	7514
982.554	7408
983.689	7430
984.824	7368
985.959	7412
987.095	7424
988.23	7418
989.364	7448
990.499	7430
991.633	7440
992.767	7444
993.9	7584
995.034	7480
996.167	7492
997.301	7498
998.434	7426
999.567	7580
1000.7	7456
1001.83	7530
1002.96	7506
1004.1	7580
1005.23	7486
1006.36	7572
1007.49	7564
1008.62	7468
1009.76	7578
1010.89	7586
1012.02	7658
1013.15	7654
1014.28	7664
1015.41	7660
1016.54	7718
1017.67	7696
1018.8	7812
1019.93	7642
1021.06	7662
1022.19	7692
1023.32	7720
1024.44	7746
1025.57	7776
1026.7	7798
1027.83	7766
1028.96	7780
1030.09	7856
1031.21	7698
1032.34	7788
1033.47	7946
1034.6	7886
1035.72	7794
1036.85	7958
1037.98	7874
1039.1	7880
1040.23	7860
1041.35	7858
1042.48	7960
1043.61	7914
1044.73	7896
1045.86	7846
1046.98	8030
1048.11	7878
1049.23	7962
1050.36	7994
1051.48	8042
1052.61	7956
1053.73	7942
1054.85	7882
1055.98	7962
1057.1	7978
1058.22	7990
1059.35	8016
1060.47	7928
1061.59	7948
1062.72	8014
1063.84	8062
1064.96	8052
1066.08	8040
1067.2	8068
1068.33	8080
1069.45	8022
1070.57	8072
1071.69	8046
1072.81	8094
1073.93	8046
1075.05	8068
1076.17	7952
1077.29	8004
1078.41	8002
1079.53	7930
1080.65	8038
1081.77	7966
1082.89	8024
1084.01	8066
1085.13	7874
1086.25	7912
1087.37	7972
1088.48	7962
1089.6	7952
1090.72	7862
1091.84	7944
1092.96	7808
1094.07	7866
1095.19	7772
1096.31	7896
1097.43	7860
1098.54	7842
1099.66	7810
1100.78	7824
1101.89	7770
1103.01	7926
1104.12	7810
1105.24	7804
1106.35	7722
1107.47	7838
1108.59	7824
1109.7	7808
1110.81	7898
1111.93	7812
1113.04	7768
1114.16	7702
1115.27	7776
1116.39	7806
1117.5	7700
1118.61	7766
1119.73	7728
1120.84	7722
1121.95	7596
1123.06	7696
1124.18	7806
1125.29	7762
1126.4	7786
1127.51	7800
1128.63	7720
1129.74	7732
1130.85	7686
1131.96	7790
1133.07	7704
1134.18	7574
1135.29	7548
1136.4	7640
1137.51	7696
1138.62	7620
1139.73	7748
1140.84	7676
1141.95	7558
1143.06	7596
1144.17	7634
1145.28	7584
1146.39	7674
1147.5	7650
1148.61	7582
1149.72	7642
1150.82	7628
1151.93	7454
1153.04	7562
1154.15	7632
1155.26	7644
1156.36	7490
1157.47	7580
1158.58	7472
1159.68	7578
1160.79	7434
1161.9	7602
1163	7476
1164.11	7548
1165.22	7528
1166.32	7492
1167.43	7464
1168.53	7412
1169.64	7534
1170.74	7484
1171.85	7408
1172.95	7246
1174.06	7324
1175.16	7348
1176.26	7410
1177.37	7290
1178.47	7370
1179.58	7238
1180.68	7330
1181.78	7350
1182.88	7234
1183.99	7244
1185.09	7250
1186.19	7196
1187.3	7186
1188.4	7188
1189.5	7188
1190.6	7140
1191.7	7120
1192.8	7124
1193.9	6978
1195.01	7076
1196.11	6994.01
1197.21	7046.87
1198.31	6973.78
1199.41	6925.36
1200.51	6936.4
1201.61	6907.48
1202.71	6839.4
1203.81	6947.82
1204.91	6820.76
1206.01	6796.44
1207.11	6805.5
1208.2	6825.94
1209.3	6758.21
1210.4	6861.61
1211.5	6786.1
1212.6	6798.54
1213.7	6759.06
1214.8	6792.38
1215.89	6722.9
1216.99	6645.95
1218.09	6641.91
1219.18	6668.06
1220.28	6603.78
1221.38	6622.12
1222.48	6603.68
1223.57	6582.53
1224.67	6571.49
1225.76	6613.2
1226.86	6569.32
1227.96	6531.25
1229.05	6460.15
1230.15	6518.16
1231.24	6437.41
1232.34	6439.59
1233.43	6443.63
1234.53	6389.41
1235.62	6433.27
1236.71	6400.56
1237.81	6355.28
1238.9	6391.13
1240	6340.02
1241.09	6338.37
1242.18	6294.63
1243.28	6324
1244.37	6334.75
1245.46	6233.49
1246.56	6336.24
1247.65	6244.15
1248.74	6272.24
1249.83	6248.99
1250.93	6179.35
1252.02	6236.78
1253.11	6203.29
1254.2	6227.56
1255.29	6190.53
1256.38	6193.68
1257.47	6202.71
1258.56	6156.27
1259.65	6161.84
1260.74	6155.39
1261.84	6070.93
1262.92	6103.59
1264.01	6058.72
1265.1	6087.92
1266.19	6072.64
1267.28	6064.89
1268.37	6086.57
1269.46	6023.7
1270.55	5958.26
1271.64	6026.94
1272.73	6039
1273.82	6004.42
1274.9	5955.84
1275.99	5954.08
1277.08	5958.92
1278.17	5992.39
1279.26	5890.08
1280.34	5869.38
1281.43	5932.49
1282.52	5859.65
1283.6	5839.21
1284.69	5902.4
1285.78	5875.23
1286.86	5844.2
1287.95	5832.84
1289.03	5846.3
1290.12	5785.59
1291.21	5753.01
1292.29	5754.32
1293.38	5738.7
1294.46	5769.31
1295.55	5775.9
1296.63	5721.6
1297.71	5629.44
1298.8	5668.34
1299.88	5649.29
1300.97	5641.59
1302.05	5593.18
1303.13	5635.88
1304.22	5638.88
1305.3	5674.56
1306.38	5627.13
1307.34	5542
1308.43	5576
1309.52	5520
1310.61	5530
1311.7	5494
1312.78	5496
1313.87	5432
1314.96	5450
1316.05	5430
1317.13	5524
1318.22	5350
1319.3	5394
1320.39	5422
1321.48	5336
1322.56	5384
1323.65	5352
1324.73	5256
1325.82	5288
1326.9	5230
1327.99	5212
1329.07	5290
1330.16	5274
1331.24	5262
1332.33	5202
1333.41	5120
1334.5	5222
1335.58	5084
1336.66	5098
1337.75	5160
1338.83	5056
1339.91	5118
1341	5056
1342.08	5002
1343.16	5088
1344.25	5066
1345.33	5042
1346.41	5084
1347.49	4902
1348.57	4970
1349.65	4960
1350.74	5008
1351.82	4918
1352.9	4896
1353.98	4912
1355.06	4872
1356.14	4858
1357.22	4818
1358.3	4800
1359.38	4816
1360.46	4778
1361.54	4846
1362.62	4754
1363.7	4824
1364.78	4728
1365.86	4780
1366.94	4728
1368.02	4796
1369.09	4700
1370.17	4652
1371.25	4740
1372.33	4664
1373.41	4608
1374.48	4728
1375.56	4640
1376.64	4682
1377.72	4676
1378.79	4656
1379.87	4550
1380.95	4518
1382.02	4564
1383.1	4628
1384.17	4456
1385.25	4598
1386.33	4534
1387.4	4502
1388.48	4468
1389.55	4440
1390.63	4500
1391.7	4538
1392.78	4412
1393.85	4476
1394.93	4498
1396	4500
1397.07	4398
1398.15	4418
1399.22	4416
1400.3	4420
1401.37	4374
1402.44	4496
1403.52	4378
1404.59	4304
1405.66	4388
1406.73	4350
1407.81	4316
1408.88	4288
1409.95	4244
1411.02	4198
1412.09	4246
1413.17	4192
1414.24	4220
1415.31	4276
1416.38	4148
1417.45	4288
1418.52	4260
1419.59	4196
1420.66	4238
1421.73	4210
1422.8	4100
1423.87	4162
1424.94	4206
1426.01	4086
1427.08	4120
1428.15	4078
1429.22	4194
1430.29	4034
1431.35	4114
1432.42	4054
1433.49	4106
1434.56	4074
1435.63	4034
1436.7	4010
1437.76	4054
1438.83	4030
1439.9	4066
1440.96	4010
1442.03	4058
1443.1	3990
1444.17	4030
1445.23	4076
1446.3	3946
1447.36	3962
1448.43	4004
1449.49	3934
1450.56	4010
1451.63	3906
1452.69	3968
1453.76	3938
1454.82	3940
1455.89	3924
1456.95	3830
1458.01	3894
1459.08	3888
1460.14	3904
1461.21	3842
1462.27	3914
1463.34	3884
1464.4	3824
1465.46	3902
1466.52	3854
1467.59	3830
1468.65	3886
1469.71	3866
1470.77	3824
1471.84	3846
1472.9	3792
1473.96	3792
1475.02	3762
1476.08	3766
1477.15	3696
1478.21	3748
1479.27	3726
1480.33	3780
1481.39	3776
1482.45	3750
1483.51	3692
1484.57	3770
1485.63	3712
1486.69	3640
1487.75	3782
1488.81	3724
1489.87	3790
1490.93	3712
1491.99	3722
1493.05	3690
1494.1	3654
1495.16	3606
1496.22	3660
1497.28	3654
1498.34	3656
1499.4	3632
1500.45	3606
1501.51	3616
1502.57	3660
1503.63	3592
1504.68	3530
1505.74	3546
1506.8	3658
1507.85	3574
1508.91	3550
1509.97	3508
1511.02	3476
1512.08	3594
1513.13	3540
1514.19	3568
1515.24	3560
1516.3	3520
1517.35	3514
1518.41	3462
1519.46	3508
1520.52	3430
1521.57	3434
1522.63	3496
1523.68	3496
1524.73	3488
1525.79	3468
1526.84	3392
1527.9	3450
1528.95	3442
1530	3400
1531.06	3464
1532.11	3470
1533.16	3356
1534.21	3378
1535.26	3460
1536.32	3362
1537.37	3350
1538.42	3400
1539.47	3270
1540.52	3378
1541.57	3342
1542.63	3286
1543.68	3386
1544.73	3256
1545.78	3328
1546.83	3278
1547.88	3266
1548.93	3304
1549.98	3312
1551.03	3220
1552.08	3278
1553.13	3304
1554.18	3240
1555.23	3246
1556.27	3282
1557.32	3232
1558.37	3244
1559.42	3214
1560.47	3280
1561.52	3218
1562.56	3208
1563.61	3240
1564.66	3206
1565.71	3194
1566.75	3218
1567.8	3214
1568.85	3158
1569.9	3192
1570.94	3168
1571.99	3140
1573.03	3120
1574.08	3108
1575.13	3202
1576.17	3170
1577.22	3098
1578.26	3064
1579.31	3126
1580.35	3142
1581.4	3092
1582.44	3124
1583.49	3056
1584.53	3090
1585.58	3072
1586.62	3092
1587.66	3128
1588.71	3116
1589.75	3178
1590.8	3082
1591.84	3094
1592.88	3100
1593.93	3074
1594.97	3018
1596.01	3048
1597.05	3074
1598.1	3092
1599.14	3084
1600.18	3052
1601.22	3020
1602.26	3080
1603.31	3018
1604.35	3120
1605.39	3040
1606.43	3084
1607.47	2980
1608.51	3102
1609.55	3016
1610.59	3032
1611.63	2994
1612.67	3002
1613.71	3008
1614.75	3052
1615.79	3030
1616.83	3038
1617.87	3006
1618.91	3002
1619.95	2950
1620.99	2980
1622.02	2950
1623.06	3024
1624.1	3042
1625.14	3008
1626.18	2964
1627.21	2956
1628.25	2944
1629.29	3030
1630.33	2938
1631.36	2966
1632.4	2936
1633.44	2968
1634.48	2998
1635.51	2872
1636.55	2942
1637.58	2934
1638.62	2968
1639.66	2922
1640.69	2950
1641.73	2928
1642.76	2954
1643.8	2908
1644.83	2938
1645.87	2912
1646.9	2912
1647.94	2860
1648.97	2940
1650	2938
1651.04	2852
1652.07	2888
1653.11	2870
1654.14	2858
1655.17	2912
1656.21	2894
1657.24	2824
1658.27	2810
1659.31	2846
1660.34	2816
1661.37	2782
1662.4	2782
1663.43	2802
1664.47	2804
1665.5	2862
1666.53	2850
1667.56	2864
1668.59	2830
1669.62	2764
1670.66	2908
1671.69	2776
1672.72	2808
1673.75	2800
1674.78	2808
1675.81	2770
1676.84	2772
1677.87	2754
1678.9	2752
1679.93	2778
1680.96	2762
1681.98	2712
1683.01	2722
1684.04	2696
1685.07	2814
1686.1	2728
1687.13	2784
1688.16	2640
1689.19	2702
1690.21	2814
1691.24	2676
1692.27	2670
1693.3	2666
1694.32	2658
1695.35	2680
1696.38	2720
1697.4	2678
1698.43	2658
1699.46	2708
1700.48	2690
1701.51	2702
1702.54	2688
1703.56	2594
1704.59	2644
1705.61	2628
1706.64	2706
1707.66	2672
1708.69	2598
1709.71	2670
1710.74	2628
1711.76	2638
1712.79	2658
1713.81	2636
1714.83	2642
1715.86	2632
1716.88	2582
1717.91	2584
1718.93	2584
1719.95	2558
1720.98	2614
1722	2622
1723.02	2622
1724.04	2586
1725.07	2568
1726.09	2556
1727.11	2584
1728.13	2584
1729.15	2550
1730.18	2598
1731.2	2522
1732.22	2598
1733.24	2534
1734.26	2554
1735.28	2590
1736.3	2572
1737.32	2558
1738.34	2550
1739.36	2542
1740.38	2590
1741.4	2584
1742.42	2542
1743.44	2554
1744.46	2576
1745.48	2542
1746.5	2520
1747.52	2516
1748.54	2526
1749.56	2534
1750.58	2568
1751.6	2508
1752.61	2544
1753.63	2464
1754.65	2484
1755.67	2500
1756.68	2610
1757.7	2556
1758.72	2538
1759.74	2540
1760.75	2504
1761.77	2500
1762.79	2488
1763.8	2520
1764.82	2496
1765.84	2524
1766.85	2474
1767.87	2454
1768.88	2458
1769.9	2516
1770.91	2438
1771.93	2448
1772.94	2562
1773.96	2502
1774.97	2452
1775.99	2426
1777	2496
1778.02	2482
1779.03	2498
1780.04	2456
1781.06	2470
1782.07	2500
1783.09	2466
1784.1	2418
1785.11	2482
1786.13	2480
1787.14	2498
1788.15	2470
1789.16	2458
1790.18	2418
1791.19	2446
1792.2	2490
1793.21	2452
1794.22	2436
1795.23	2426
1796.25	2450
1797.26	2398
1798.27	2442
1799.28	2440
1800.29	2360
1801.3	2426
1802.31	2436
1803.32	2462
1804.33	2404
1805.34	2398
1806.35	2422
1807.36	2470
1808.37	2364
1809.38	2372
1810.39	2358
1811.4	2390
1812.41	2396
1813.42	2376
1814.43	2418
1815.43	2414
1816.44	2346
1817.45	2396
1818.46	2356
1819.47	2350
1820.47	2378
1821.48	2364
1822.49	2354
1823.49	2350
1824.5	2336
1825.51	2334
1826.52	2314
1827.52	2374
1828.53	2390
1829.54	2422
1830.54	2318
1831.55	2284
1832.55	2354
1833.56	2320
1834.56	2306
1835.57	2346
1836.57	2346
1837.58	2338
1838.58	2312
1839.59	2312
1840.59	2316
1841.6	2304
1842.6	2306
1843.61	2272
1844.61	2332
1845.61	2372
1846.62	2292
1847.62	2258
1848.62	2302
1849.63	2324
1850.63	2310
1851.63	2318
1852.64	2228
1853.64	2250
1854.64	2296
1855.64	2256
1856.64	2246
1857.65	2326
1858.65	2264
1859.65	2276
1860.65	2230
1861.65	2210
1862.65	2302
1863.65	2242
1864.66	2236
1865.66	2260
1866.66	2236
1867.66	2236
1868.66	2242
1869.66	2236
1870.66	2208
1871.66	2256
1872.66	2292
1873.66	2276
1874.66	2288
1875.65	2258
1876.65	2232
1877.65	2170
1878.65	2220
1879.65	2224
1880.65	2278
1881.65	2224
1882.64	2184
1883.64	2202
1884.64	2240
1885.64	2170
1886.63	2230
1887.63	2192
1888.63	2196
1889.63	2204
1890.62	2228
1891.62	2260
1892.62	2218
1893.61	2256
1894.61	2186
1895.6	2222
1896.6	2182
1897.6	2174
1898.59	2232
1899.59	2158
1900.58	2158
1901.58	2236
1902.57	2204
1903.57	2198
1904.56	2154
1905.56	2186
1906.55	2230
1907.54	2228
1908.54	2190
1909.53	2190
1910.53	2206
1911.52	2154
1912.51	2224
1913.51	2158
1914.5	2174
1915.49	2144
1916.49	2202
1917.48	2138
1918.47	2216
1919.46	2182
1920.46	2148
1921.45	2180
1922.44	2192
1923.43	2214
1924.42	2200
1925.41	2168
1926.41	2166
1927.4	2160
1928.39	2188
1929.38	2194
1930.37	2138
1931.36	2174
1932.35	2146
1933.34	2162
1934.33	2176
1935.32	2136
1936.31	2184
1937.3	2144
1938.29	2164
1939.28	2160
1940.27	2168
1941.26	2140
1942.24	2112
1943.23	2176
1944.22	2152
1945.21	2112
1946.2	2176
1947.19	2140
1948.17	2140
1949.16	2072
1950.15	2108
1951.14	2144
1952.13	2102
1953.11	2120
1954.1	2126
1955.09	2092
1956.07	2186
1957.06	2130
1958.05	2110
1959.03	2150
1960.02	2160
1961	2074
1961.99	2124
1962.98	2154
1963.96	2104
1964.95	2122
1965.93	2104
1966.92	2056
1967.9	2054
1968.89	2160
1969.87	2042
1970.85	2140
1971.84	2052
1972.82	2110
1973.81	2070
1974.79	2122
1975.78	2150
1976.76	2116
1977.74	2072
1978.73	2080
1979.71	2126
1980.69	2110
1981.67	2088
1982.66	2108
1983.64	2116
1984.62	2082
1985.6	2034
1986.59	2114
1987.57	2122
1988.55	2106
1989.53	2074
1990.51	2042
1991.49	2130
1992.47	2048
1993.45	2094
1994.44	2050
1995.42	2038
1996.4	2072
1997.38	2078
1998.36	2082
1999.34	2030
2000.32	2106
2001.3	2048
2002.28	2068
2003.26	2030
2004.24	2020
2005.22	2116
2006.19	2068
2007.17	1998
2008.15	2048
2009.13	2096
2010.11	2034
2011.09	2054
2012.06	2062
2013.04	2054
2014.02	1990
2015	2006
2015.98	2060
2016.95	2084
2017.93	2076
2018.91	2040
2019.88	2032
2020.86	2062
2021.84	1976
2022.81	2068
2023.79	2010
2024.77	2020
2025.74	2070
2026.72	2060
2027.69	2048
2028.67	2102
2029.65	2000
2030.62	2032
2031.6	2074
2032.57	2032
2033.55	2030
2034.52	2034
2035.5	2020
2036.47	1964
2037.44	2016
2038.42	1976
2039.39	2034
2040.36	2044
2041.34	2052
2042.31	2004
2043.29	2006
2044.26	2008
2045.23	2010
2046.2	1992
2047.18	2014
2048.15	2026
2049.12	1992
2050.09	1974
2051.07	1998
2052.04	1986
2053.01	2004
2053.98	1994
2054.95	2018
2055.93	1988
2056.9	1976
2057.87	1966
2058.84	1930
2059.81	2036
2060.78	1992
2061.75	1978
2062.72	1982
2063.69	1980
2064.66	1990
2065.63	1948
2066.6	2018
2067.57	1956
2068.54	1944
2069.51	2032
2070.48	1978
2071.45	1970
2072.42	1968
2073.38	1990
2074.35	1942
2075.32	1942
2076.29	1912
2077.26	1990
2078.23	1962
2079.19	1950
2080.16	1948
2081.13	1988
2082.1	1954
2083.06	1962
2084.03	2016
2085	1970
2085.96	1914
2086.93	1994
2087.9	1948
2088.86	1918
2089.83	1976
2090.8	1958
2091.76	1924
2092.73	1960
2093.69	1932
2094.66	1942
2095.62	1948
2096.59	1948
2097.55	1946
2098.52	1934
2099.48	1920
2100.45	1924
2101.41	1956
2102.38	1988
2103.34	1954
2104.31	1954
2105.27	1972
2106.23	1936
2107.2	1928
2108.16	1966
2109.12	1956
2110.09	1918
2111.05	1942
2112.01	1944
2112.98	1920
2113.94	1946
2114.9	1952
2115.86	1852
2116.82	1948
2117.79	1954
2118.75	1926
2119.71	1884
2120.67	1958
2121.63	1892
2122.59	1948
2123.55	1888
2124.52	1926
2125.48	1898
2126.44	1880
2127.4	1892
2128.36	1856
2129.32	1928
2130.28	1838
2131.24	1908
2132.2	1864
2133.16	1914
2134.12	1916
2135.08	1860
2136.04	1840
2136.99	1876
2137.95	1886
2138.91	1942
2139.87	1916
2140.83	1884
2141.79	1870
2142.75	1888
2143.7	1914
2144.66	1878
2145.62	1877.89
2146.58	1904.68
2147.53	1901.9
2148.49	1878.49
2149.45	1888.23
2150.41	1849.29
2151.36	1850
2152.32	1890.44
2153.28	1859.89
2154.23	1814.18
2155.19	1812.21
2156.14	1863.95
2157.1	1844.21
2158.06	1874.32
2159.01	1879.21
2159.97	1874.5
2160.92	1849.41
2161.88	1852.52
2162.83	1887.62
2163.79	1813.35
2164.74	1878.59
2165.7	1824.64
2166.65	1852.53
2167.61	1814.44
2168.56	1826.08
2169.51	1812.12
2170.47	1815.74
2171.42	1819.1
2172.38	1807.5
2173.33	1797.85
2174.28	1815.22
2175.24	1777.57
2176.19	1801.91
2177.14	1806.32
2178.09	1823.11
2179.05	1804.11
2180	1829.11
2180.95	1782.41
2181.9	1793.1
2182.86	1774.35
2183.81	1804.63
2184.76	1808.64
2185.71	1762.25
2186.66	1780.04
2187.61	1764.59
2188.57	1777.7
2189.52	1791.96
2190.47	1767.95
2191.42	1811.59
2192.37	1761.05
2193.32	1773.53
2194.27	1776.5
2195.22	1801.47
2196.17	1766.12
2197.12	1788.22
2198.07	1807.95
2199.02	1794
2199.97	1754.96
2200.92	1770.12
2201.87	1762.09
2202.82	1768.92
2203.76	1794.26
2204.71	1770.74
2205.66	1774.26
2206.61	1750.28
2207.56	1737.7
2208.51	1734.89
2209.45	1741.61
2210.4	1770.36
2211.35	1768.02
2212.3	1744.31
2213.25	1753.3
2214.19	1759.69
2215.14	1763.66
2216.09	1794.15
2217.03	1770.97
2217.98	1763.66
2218.93	1753.15
2219.87	1778.95
2220.82	1771.86
2221.77	1758.22
2222.71	1735.22
2223.66	1747.97
2224.6	1761.03
2225.55	1758.05
2226.49	1751.12
2227.44	1751.32
2228.38	1754.07
2229.33	1769.17
2230.27	1758.33
2231.22	1753.66
2232.16	1747.65
2233.11	1738.62
2234.05	1749.78
2235	1723.97
2235.94	1709.48
2236.88	1731.31
2237.83	1745.93
2238.77	1748.14
2239.72	1751.84
2240.66	1754.04
2241.6	1731.88
2242.07	1712
2243.02	1742
2243.97	1746
2244.92	1718
2245.87	1742
2246.81	1724
2247.76	1744
2248.71	1722
2249.65	1710
2250.6	1668
2251.55	1734
2252.49	1772
2253.44	1698
2254.39	1708
2255.33	1728
2256.28	1698
2257.22	1714
2258.17	1728
2259.12	1736
2260.06	1770
2261.01	1748
2261.95	1718
2262.9	1708
2263.84	1748
2264.78	1710
2265.73	1696
2266.67	1708
2267.62	1730
2268.56	1660
2269.51	1752
2270.45	1632
2271.39	1686
2272.34	1656
2273.28	1708
2274.22	1728
2275.17	1700
2276.11	1698
2277.05	1658
2277.99	1676
2278.94	1674
2279.88	1676
2280.82	1700
2281.76	1666
2282.71	1680
2283.65	1684
2284.59	1678
2285.53	1700
2286.47	1654
2287.41	1646
2288.35	1702
2289.3	1624
2290.24	1612
2291.18	1670
2292.12	1638
2293.06	1666
2294	1700
2294.94	1682
2295.88	1638
2296.82	1650
2297.76	1694
2298.7	1680
2299.64	1670
2300.58	1662
2301.52	1658
2302.46	1650
2303.39	1600
2304.33	1676
2305.27	1654
2306.21	1596
2307.15	1598
2308.09	1656
2309.02	1636
2309.96	1632
2310.9	1602
2311.84	1682
2312.77	1604
2313.71	1630
2314.65	1600
2315.59	1676
2316.52	1614
2317.46	1596
2318.4	1656
2319.33	1614
2320.27	1614
2321.21	1604
2322.14	1630
2323.08	1582
2324.01	1630
2324.95	1620
2325.89	1594
2326.82	1586
2327.76	1618
2328.69	1578
2329.63	1608
2330.56	1606
2331.5	1608
2332.43	1614
2333.36	1630
2334.3	1608
2335.23	1574
2336.17	1628
2337.1	1586
2338.03	1610
2338.97	1562
2339.9	1596
2340.83	1582
2341.77	1590
2342.7	1592
2343.63	1590
2344.57	1586
2345.5	1554
2346.43	1590
2347.36	1574
2348.3	1602
2349.23	1642
2350.16	1568
2351.09	1538
2352.02	1584
2352.95	1602
2353.89	1590
2354.82	1552
2355.75	1532
2356.68	1584
2357.61	1534
2358.54	1510
2359.47	1580
2360.4	1534
2361.33	1512
2362.26	1572
2363.19	1600
2364.12	1570
2365.05	1526
2365.98	1518
2366.91	1560
2367.84	1580
2368.77	1514
2369.7	1570
2370.63	1586
2371.56	1566
2372.48	1570
2373.41	1574
2374.34	1534
2375.27	1514
2376.2	1512
2377.12	1466
2378.05	1550
2378.98	1504
2379.91	1530
2380.84	1566
2381.76	1538
2382.69	1536
2383.62	1532
2384.54	1514
2385.47	1516
2386.4	1474
2387.32	1524
2388.25	1458
2389.18	1470
2390.1	1446
2391.03	1486
2391.95	1510
2392.88	1458
2393.8	1416
2394.73	1486
2395.65	1452
2396.58	1484
2397.5	1484
2398.43	1430
2399.35	1448
2400.28	1454
2401.2	1472
2402.13	1538
2403.05	1444
2403.97	1470
2404.9	1446
2405.82	1472
2406.75	1490
2407.67	1466
2408.59	1474
2409.51	1466
2410.44	1470
2411.36	1458
2412.28	1430
2413.21	1476
2414.13	1446
2415.05	1454
2415.97	1458
2416.9	1468
2417.82	1412
2418.74	1444
2419.66	1440
2420.58	1464
2421.5	1408
2422.42	1446
2423.35	1422
2424.27	1426
2425.19	1464
2426.11	1428
2427.03	1438
2427.95	1434
2428.87	1438
2429.79	1408
2430.71	1444
2431.63	1390
2432.55	1380
2433.47	1418
2434.39	1412
2435.31	1400
2436.23	1416
2437.14	1396
2438.06	1400
2438.98	1362
2439.9	1390
2440.82	1412
2441.74	1364
2442.66	1394
2443.57	1388
2444.49	1336
2445.41	1450
2446.33	1390
2447.24	1324
2448.16	1418
2449.08	1428
2450	1370
2450.91	1402
2451.83	1346
2452.75	1366
2453.66	1384
2454.58	1356
2455.5	1394
2456.41	1410
2457.33	1364
2458.24	1374
2459.16	1324
2460.08	1370
2460.99	1360
2461.91	1356
2462.82	1336
2463.74	1368
2464.65	1364
2465.57	1354
2466.48	1322
2467.4	1346
2468.31	1356
2469.22	1326
2470.14	1318
2471.05	1332
2471.97	1320
2472.88	1306
2473.79	1368
2474.71	1344
2475.62	1344
2476.53	1328
2477.45	1336
2478.36	1310
2479.27	1310
2480.19	1338
2481.1	1334
2482.01	1298
2482.92	1338
2483.83	1288
2484.75	1344
2485.66	1286
2486.57	1336
2487.48	1278
2488.39	1316
2489.3	1284
2490.22	1334
2491.13	1334
2492.04	1270
2492.95	1268
2493.86	1252
2494.77	1314
2495.68	1302
2496.59	1310
2497.5	1238
2498.41	1236
2499.32	1234
2500.23	1266
2501.14	1290
2502.05	1278
2502.96	1300
2503.87	1256
2504.78	1262
2505.68	1248
2506.59	1302
2507.5	1272
2508.41	1222
2509.32	1196
2510.23	1286
2511.14	1244
2512.04	1222
2512.95	1304
2513.86	1238
2514.77	1250
2515.67	1254
2516.58	1268
2517.49	1218
2518.39	1210
2519.3	1216
2520.21	1182
2521.11	1234
2522.02	1246
2522.93	1188
2523.83	1208
2524.74	1196
2525.65	1186
2526.55	1200
2527.46	1210
2528.36	1204
2529.27	1208
2530.17	1192
2531.08	1210
2531.98	1226
2532.89	1200
2533.79	1188
2534.7	1230
2535.6	1216
2536.51	1186
2537.41	1234
2538.32	1204
2539.22	1184
2540.12	1212
2541.03	1222
2541.93	1214
2542.83	1190
2543.74	1212
2544.64	1152
2545.54	1168
2546.45	1210
2547.35	1178
2548.25	1170
2549.15	1196
2550.06	1182
2550.96	1194
2551.86	1172
2552.76	1194
2553.66	1136
2554.56	1152
2555.47	1180
2556.37	1188
2557.27	1146
2558.17	1148
2559.07	1148
2559.97	1134
2560.87	1156
2561.77	1150
2562.67	1166
2563.58	1142
2564.47	1160
2565.38	1156
2566.27	1154
2567.18	1100
2568.07	1146
2568.97	1134
2569.87	1106
2570.77	1122
2571.67	1118
2572.57	1108
2573.47	1106
2574.37	1136
2575.27	1132
2576.17	1110
2577.06	1094
2577.96	1110
2578.86	1088
2579.76	1094
2580.66	1106
2581.55	1102
2582.45	1134
2583.35	1138
2584.25	1110
2585.14	1094
2586.04	1106
2586.94	1084
2587.83	1074
2588.73	1096
2589.63	1102
2590.52	1098
2591.42	1070
2592.32	1086
2593.21	1058
2594.11	1096
2595	1094
2595.9	1142
2596.8	1064
2597.69	1028
2598.59	1090
2599.48	1048
2600.38	1086
2601.27	1068
2602.17	1040
2603.06	1050
2603.95	1064
2604.85	1044
2605.74	1042
2606.64	1056
2607.53	1054
2608.42	1056
2609.32	1048
2610.21	1072
2611.1	1048
2612	1018
2612.89	1044
2613.78	1062
2614.68	1072
2615.57	1030
2616.46	1072
2617.36	1044
2618.25	1030
2619.14	992
2620.03	1024
2620.92	1068
2621.82	1028
2622.71	1004
2623.6	1028
2624.49	1004
2625.38	1058
2626.27	1012
2627.16	1012
2628.05	998
2628.95	1032
2629.84	998
2630.73	972
2631.62	980
2632.51	1034
2633.4	1008
2634.29	974
2635.18	1030
2636.07	964
2636.96	1000
2637.85	966
2638.74	1020
2639.62	990
2640.51	968
2641.4	926
2642.29	1028
2643.18	1010
2644.07	980
2644.96	964
2645.85	952
2646.73	932
2647.62	972
2648.51	986
2649.4	958
2650.28	950
2651.17	928
2652.06	948
2652.95	940
2653.83	976
2654.72	970
2655.61	950
2656.5	972
2657.38	928
2658.27	950
2659.15	952
2660.04	928
2660.93	934
2661.81	934
2662.7	954
2663.58	946
2664.47	962
2665.35	930
2666.24	940
2667.13	928
2668.01	926
2668.9	944
2669.78	936
2670.66	908
2671.55	938
2672.43	942
2673.32	942
2674.2	936
2675.09	950
2675.97	944
2676.85	932
2677.74	912
2678.62	938
2679.5	962
2680.39	938
2681.27	902
2682.15	876
2683.04	936
2683.92	948
2684.8	934
2685.68	904
2686.57	910
2687.45	894
2688.33	882
2689.21	926
2690.09	890
2690.98	886
2691.86	888
2692.74	886
2693.62	920
2694.5	908
2695.38	936
2696.26	886
2697.15	888
2698.03	890
2698.91	884
2699.79	870
2700.67	894
2701.55	906
2702.43	900
2703.31	874
2704.19	878
2705.07	874
2705.95	840
2706.83	886
2707.7	856
2708.58	864
2709.46	884
2710.34	836
2711.22	880
2712.1	858
2712.98	864
2713.86	860
2714.73	884
2715.61	848
2716.49	898
2717.37	850
2718.25	838
2719.12	870
2720	858
2720.88	846
2721.76	840
2722.63	840
2723.51	832
2724.39	832
2725.26	818
2726.14	820
2727.02	828
2727.89	850
2728.77	836
2729.64	826
2730.52	846
2731.4	818
2732.27	820
2733.15	790
2734.02	838
2734.9	828
2735.77	838
2736.65	818
2737.52	814
2738.4	850
2739.27	844
2740.15	792
2741.02	834
2741.9	798
2742.77	804
2743.64	796
2744.52	808
2745.39	858
2746.27	816
2747.14	774
2748.01	788
2748.89	788
2749.76	764
2750.63	794
2751.51	830
2752.38	836
2753.25	788
2754.12	798
2755	806
2755.87	798
2756.74	792
2757.61	778
2758.48	802
2759.35	760
2760.23	758
2761.1	764
2761.97	798
2762.84	758
2763.71	778
2764.58	796
2765.45	762
2766.32	764
2767.19	792
2768.07	784
2768.94	784
2769.81	750
2770.68	776
2771.55	774
2772.42	778
2773.29	748
2774.16	748
2775.02	742
2775.89	748
2776.76	746
2777.63	742
2778.5	766
2779.37	736
2780.24	762
2781.11	754
2781.98	734
2782.84	768
2783.71	750
2784.58	736
2785.45	724
2786.32	714
2787.18	726
2788.05	740
2788.92	744
2789.79	750
2790.65	708
2791.52	740
2792.39	730
2793.25	746
2794.12	734
2794.99	722
2795.85	700
2796.72	728
2797.59	722
2798.45	728
2799.32	738
2800.18	718
2801.05	754
2801.92	708
2802.78	716
2803.65	733
2804.51	750
2805.38	718
2806.24	690
2807.11	734
2807.97	724
2808.84	692
2809.7	702
2810.57	710
2811.43	684
2812.29	714
2813.16	716
2814.02	708
2814.88	682
2815.75	678
2816.61	720
2817.47	664
2818.34	698
2819.2	694
2820.06	702
2820.93	704
2821.79	690
2822.65	682
2823.51	702
2824.38	716
2825.24	686
2826.1	720
2826.96	692
2827.82	704
2828.69	726
2829.55	708
2830.41	656
2831.27	692
2832.13	674
2832.99	630
2833.85	678
2834.71	706
2835.57	694
2836.44	658
2837.3	680
2838.16	670
2839.02	690
2839.88	698
2840.74	654
2841.6	666
2842.46	664
2843.32	664
2844.18	642
2845.03	670
2845.89	638
2846.75	650
2847.61	654
2848.47	690
2849.33	642
2850.19	662
2851.05	656
2851.9	678
2852.76	652
2853.62	636
2854.48	644
2855.34	650
2856.19	612
2857.05	650
2857.91	646
2858.77	614
2859.62	644
2860.48	636
2861.34	612
2862.19	614
2863.05	654
2863.91	634
2864.76	626
2865.62	610
2866.48	640
2867.33	600
2868.19	640
2869.04	634
2869.9	630
2870.76	600
2871.61	594
2872.47	614
2873.32	598
2874.18	612
2875.03	610
2875.89	608
2876.74	622
2877.6	598
2878.45	592
2879.31	590
2880.16	612
2881.01	632
2881.87	610
2882.72	610
2883.58	632
2884.43	594
2885.28	642
2886.14	610
2886.99	586
2887.84	626
2888.7	592
2889.55	602
2890.4	586
2891.25	604
2892.11	602
2892.96	618
2893.81	596
2894.66	612
2895.52	572
2896.37	608
2897.22	580
2898.07	576
2898.92	596
2899.77	596
2900.62	592
2901.48	604
2902.33	584
2903.18	570
2904.03	594
2904.88	564
2905.73	578
2906.58	564
2907.43	616
2908.28	596
2909.13	588
2909.98	582
2910.83	582
2911.68	610
2912.53	540
2913.38	592
2914.23	576
2915.08	562
2915.93	578
2916.78	572
2917.63	576
2918.47	564
2919.32	582
2920.17	580
2921.02	546
2921.87	552
2922.72	558
2923.56	590
2924.41	550
2925.26	574
2926.11	580
2926.95	542
2927.8	578
2928.65	560
2929.5	586
2930.34	544
2931.19	588
2932.04	524
2932.88	600
2933.73	576
2934.58	532
2935.42	544
2936.27	514
2937.11	540
2937.96	566
2938.81	550
2939.65	518
2940.5	540
2941.34	558
2942.19	544
2943.03	566
2943.88	530
2944.72	512
2945.57	544
2946.41	550
2947.26	554
2948.1	532
2948.95	532
2949.79	536
2950.64	532
2951.48	564
2952.32	532
2953.17	536
2954.01	546
2954.85	542
2955.7	548
2956.54	548
2957.38	528
2958.23	514
2959.07	516
2959.91	542
2960.75	528
2961.6	550
2962.44	530
2963.28	532
2964.12	508
2964.97	518
2965.81	534
2966.65	524
2967.49	508
2968.33	526
2969.17	520
2970.02	510
2970.86	526
2971.7	530
2972.54	506
2973.38	510
2974.22	518
2975.06	512
2975.9	512
2976.74	504
2977.58	518
2978.42	540
2979.26	526
2980.1	526
2980.94	494
2981.78	476
2982.62	500
2983.46	478
2984.3	518
2985.14	508
2985.98	480
2986.82	500
2987.66	492
2988.49	496
2989.33	484
2990.17	498
2991.01	474
2991.85	496
2992.69	472
2993.52	482
2994.36	468
2995.2	492
2996.04	490
2996.87	492
2997.71	478
2998.55	484
2999.39	470
