#Acq. time (s)=	10
#Accumulations=	1
#Range (cm-¹)=	100...3000
#Windows=	3
#Autofocus=	Off
#AutoExposure=	Off
#Spike filter=	Off
#Delay time (s)=	0
#Binning=	1
#Readout mode=	Signal
#DeNoise=	Off
#ICS correction=	Off
#Dark correction=	Off
#Inst. Process=	Off
#Instrument=	LabRAM HR Evol
#Detector=	Syncerity OE
#Objective=	x100_VIS
#Grating=	600 (500nm)
#ND Filter=	5%
#Laser=	633nm_Edge
#Hole=	74.97
#Range=	Visible
#Project=	Omar
#Sample=	26-06-23
#Site=	1
#Title=	Organic
#Remark=	
#Date=	26.06.2023 16:04
#Acquired=	26.06.2023 16:04:33
101.018	1428
102.302	1474
103.586	1500
104.869	1500
106.152	1472
107.435	1496
108.717	1434
109.999	1460
111.281	1480
112.563	1506
113.845	1474
115.126	1466
116.407	1416
117.688	1372
118.969	1442
120.249	1512
121.53	1464
122.81	1480
124.09	1440
125.369	1480
126.649	1462
127.928	1456
129.207	1484
130.486	1436
131.765	1408
133.043	1452
134.321	1498
135.599	1514
136.877	1496
138.155	1438
139.432	1444
140.708	1492
141.985	1454
143.261	1474
144.538	1450
145.814	1436
147.09	1492
148.366	1446
149.641	1474
150.916	1450
152.191	1442
153.466	1452
154.741	1492
156.016	1434
157.289	1464
158.563	1440
159.837	1462
161.111	1478
162.385	1444
163.657	1448
164.93	1454
166.203	1474
167.476	1468
168.747	1442
170.019	1432
171.291	1456
172.562	1400
173.834	1470
175.105	1446
176.377	1468
177.646	1456
178.917	1406
180.188	1482
181.457	1440
182.727	1486
183.996	1442
185.266	1450
186.536	1474
187.804	1452
189.073	1480
190.342	1418
191.609	1498
192.878	1428
194.145	1448
195.413	1412
196.681	1448
197.948	1450
199.215	1482
200.481	1478
201.749	1448
203.014	1454
204.281	1406
205.546	1442
206.813	1502
208.077	1434
209.343	1464
210.608	1490
211.873	1436
213.137	1422
214.402	1462
215.666	1516
216.93	1498
218.194	1464
219.458	1498
220.721	1468
221.983	1486
223.247	1422
224.509	1486
225.772	1494
227.034	1496
228.295	1478
229.558	1492
230.819	1520
232.081	1498
233.342	1538
234.602	1510
235.864	1508
237.124	1530
238.384	1512
239.645	1496
240.904	1474
242.164	1492
243.423	1514
244.683	1518
245.941	1496
247.2	1524
248.46	1498
249.717	1498
250.975	1474
252.233	1496
253.492	1480
254.749	1464
256.006	1476
257.263	1462
258.519	1490
259.777	1472
261.033	1476
262.289	1448
263.545	1470
264.8	1452
266.057	1470
267.312	1464
268.567	1492
269.822	1472
271.076	1446
272.331	1470
273.585	1484
274.839	1446
276.094	1458
277.347	1472
278.601	1506
279.854	1480
281.107	1502
282.359	1456
283.612	1480
284.864	1476
286.116	1498
287.368	1402
288.62	1454
289.871	1512
291.123	1498
292.374	1530
293.625	1498
294.875	1446
296.126	1498
297.376	1518
298.626	1522
299.876	1540
301.126	1530
302.375	1518
303.625	1482
304.874	1492
306.122	1518
307.371	1530
308.62	1506
309.866	1502
311.114	1508
312.362	1520
313.61	1488
314.857	1548
316.105	1564
317.352	1528
318.599	1504
319.844	1516
321.09	1546
322.337	1510
323.583	1520
324.828	1526
326.073	1522
327.318	1494
328.563	1552
329.808	1520
331.053	1552
332.296	1544
333.541	1506
334.785	1544
336.029	1542
337.272	1562
338.515	1514
339.759	1506
341.001	1556
342.244	1518
343.486	1496
344.728	1540
345.97	1470
347.212	1578
348.453	1562
349.695	1554
350.936	1500
352.176	1586
353.418	1542
354.659	1590
355.898	1546
357.139	1566
358.378	1562
359.618	1572
360.858	1518
362.097	1542
363.336	1562
364.574	1528
365.813	1536
367.051	1564
368.29	1554
369.527	1552
370.766	1580
372.002	1560
373.241	1556
374.477	1582
375.715	1554
376.951	1520
378.188	1514
379.424	1514
380.66	1536
381.896	1566
383.132	1520
384.367	1540
385.603	1516
386.838	1580
388.072	1552
389.307	1514
390.541	1564
391.776	1586
393.01	1496
394.243	1572
395.477	1562
396.71	1556
397.943	1554
399.177	1558
400.409	1584
401.641	1552
402.875	1592
404.106	1560
405.338	1582
406.57	1624
407.802	1594
409.032	1666
410.263	1586
411.495	1620
412.725	1612
413.955	1562
415.185	1610
416.417	1614
417.646	1620
418.875	1620
420.104	1616
421.335	1640
422.564	1658
423.792	1614
425.02	1666
426.249	1646
427.477	1674
428.706	1624
429.933	1620
431.161	1662
432.388	1636
433.615	1666
434.841	1652
436.068	1666
437.294	1674
438.522	1632
439.748	1622
440.974	1620
442.199	1644
443.425	1682
444.65	1670
445.875	1652
447.1	1690
448.324	1660
449.549	1656
450.773	1712
451.997	1696
453.221	1638
454.445	1660
455.668	1678
456.891	1736
458.114	1674
459.337	1656
460.56	1690
461.782	1672
463.005	1678
464.227	1668
465.447	1678
466.669	1708
467.89	1716
469.112	1692
470.333	1718
471.554	1644
472.774	1674
473.995	1750
475.214	1680
476.434	1654
477.654	1708
478.874	1658
480.093	1722
481.312	1774
482.53	1752
483.749	1730
484.968	1708
486.186	1758
487.405	1740
488.622	1772
489.84	1776
491.057	1768
492.275	1744
493.491	1776
494.708	1764
495.925	1788
497.141	1742
498.357	1754
499.574	1742
500.789	1756
502.005	1786
503.221	1776
504.435	1776
505.65	1768
506.866	1786
508.079	1822
509.294	1748
510.509	1824
511.722	1780
512.936	1736
514.149	1748
515.363	1792
516.577	1810
517.789	1772
519.002	1776
520.214	1778
521.427	1766
522.638	1766
523.851	1816
525.062	1780
526.274	1826
527.485	1848
528.697	1802
529.907	1828
531.118	1790
532.328	1852
533.539	1812
534.748	1796
535.959	1814
537.168	1858
538.379	1864
539.587	1770
540.796	1850
542.005	1882
543.214	1856
544.423	1870
545.631	1850
546.838	1876
548.047	1868
549.254	1830
550.461	1810
551.669	1864
552.876	1882
554.082	1926
555.29	1836
556.496	1878
557.701	1870
558.909	1912
560.114	1890
561.319	1882
562.524	1894
563.731	1856
564.935	1926
566.14	1940
567.344	1882
568.549	1906
569.753	1926
570.957	1864
572.161	1924
573.364	2000
574.568	1928
575.771	1962
576.974	1960
578.177	1938
579.379	1936
580.581	1948
581.785	1928
582.987	1942
584.188	2032
585.39	1962
586.591	2008
587.792	1968
588.993	1954
590.193	2000
591.394	1932
592.594	1980
593.796	2020
594.996	2002
596.195	2072
597.395	2048
598.594	1988
599.793	2066
600.992	2028
602.191	2008
603.39	2072
604.588	2072
605.786	2106
606.984	2078
608.181	2076
609.378	2108
610.576	2092
611.773	2088
612.97	2140
614.167	2118
615.364	2144
616.56	2114
617.757	2146
618.953	2120
620.149	2128
621.343	2128
622.539	2164
623.734	2146
624.929	2238
626.124	2228
627.319	2234
628.512	2212
629.707	2218
630.901	2204
632.095	2216
633.289	2220
634.481	2266
635.675	2222
636.868	2248
638.061	2270
639.253	2274
640.446	2244
641.638	2284
642.831	2298
644.021	2320
645.213	2326
646.405	2336
647.595	2360
648.787	2324
649.978	2362
651.168	2366
652.359	2400
653.549	2398
654.738	2352
655.929	2436
657.117	2402
658.307	2426
659.497	2356
660.685	2358
661.875	2402
663.063	2460
664.252	2446
665.439	2446
666.628	2460
667.816	2542
669.003	2462
670.191	2440
671.378	2510
672.565	2468
673.751	2512
674.939	2494
676.124	2508
677.311	2514
678.497	2476
679.682	2596
680.868	2550
682.053	2556
683.239	2506
684.424	2576
685.609	2568
686.793	2490
687.977	2568
689.162	2628
690.346	2576
691.529	2624
692.714	2634
693.897	2626
695.081	2688
696.264	2566
697.446	2580
698.63	2728
699.812	2702
700.993	2750
702.175	2712
703.358	2634
704.539	2710
705.72	2702
706.901	2730
708.083	2774
709.264	2750
710.444	2794
711.625	2784
712.806	2780
713.986	2740
715.165	2778
716.345	2792
717.524	2860
718.705	2822
719.884	2822
721.062	2800
722.241	2802
723.419	2918
724.597	2832
725.775	2884
726.954	2870
728.132	2868
729.31	2964
730.487	2934
731.664	3016
732.841	2916
734.017	2984
735.194	2996
736.37	2990
737.546	3002
738.722	2918
739.898	3000
741.074	3038
742.249	3040
743.424	3024
744.599	3140
745.774	3066
746.949	3090
748.123	3082
749.298	3160
750.472	3136
751.646	3170
752.819	3200
753.993	3122
755.166	3178
756.34	3152
757.511	3072
758.684	3242
759.857	3266
761.029	3208
762.202	3284
763.374	3256
764.546	3180
765.716	3292
766.888	3270
768.059	3256
769.23	3302
770.401	3294
771.571	3290
772.741	3314
773.912	3356
775.082	3404
776.251	3400
777.421	3350
778.59	3380
779.76	3434
780.928	3422
782.097	3358
783.266	3412
784.434	3406
785.602	3450
786.771	3506
787.938	3510
789.106	3450
790.274	3534
791.44	3454
792.608	3542
793.775	3462
794.941	3514
796.108	3518
797.273	3666
798.44	3596
799.606	3702
800.771	3660
801.937	3570
803.102	3624
804.268	3702
805.432	3670
806.597	3708
807.761	3692
808.926	3720
810.09	3648
811.254	3750
812.417	3794
813.582	3766
814.744	3720
815.908	3842
817.071	3808
818.234	3872
819.396	3790
820.558	3868
821.721	3852
822.883	3902
824.045	3896
825.206	3992
826.367	3942
827.529	3960
828.69	3998
829.85	4036
831.012	3986
832.172	4070
833.332	4018
834.493	4064
835.653	4098
836.812	4124
837.972	4110
839.131	4038
840.29	4110
841.449	4144
842.609	4082
843.767	4156
844.925	4190
846.083	4196
847.242	4290
848.399	4352
849.557	4216
850.714	4260
851.871	4344
853.029	4326
854.186	4362
855.342	4298
856.498	4426
857.654	4434
858.81	4422
859.966	4434
861.122	4424
862.278	4438
863.434	4424
864.589	4494
865.744	4470
866.898	4404
868.053	4536
869.207	4500
870.361	4454
871.515	4532
872.669	4554
873.822	4600
874.976	4574
876.129	4578
877.282	4584
878.435	4528
879.588	4614
880.74	4708
881.893	4616
883.045	4556
884.197	4608
885.349	4642
886.5	4622
887.652	4652
888.802	4726
889.953	4656
891.104	4666
892.254	4720
893.405	4768
894.555	4692
895.706	4776
896.854	4692
898.004	4796
899.154	4724
900.303	4810
901.453	4910
902.6	4808
903.749	4814
904.898	4874
906.047	4836
907.194	4840
908.342	4854
909.49	4858
910.638	4942
911.785	4870
912.932	4854
914.08	4918
915.225	4966
916.372	4862
917.519	4946
918.666	4924
919.811	5008
920.957	4998
922.102	4986
923.248	4996
924.394	5020
925.538	5102
926.684	5072
927.828	5020
928.973	5072
930.118	5236
931.261	5114
932.406	5130
933.549	5176
934.693	5142
935.836	5224
936.979	5174
938.122	5260
939.265	5220
940.407	5216
941.55	5168
942.692	5244
943.835	5268
944.976	5320
946.118	5276
947.259	5208
948.401	5366
949.542	5416
950.682	5400
951.824	5342
952.964	5418
954.105	5404
955.245	5390
956.385	5376
957.525	5450
958.664	5440
959.803	5418
960.944	5424
962.082	5422
963.221	5562
964.36	5440
965.498	5540
966.636	5474
967.774	5662
968.913	5562
970.051	5624
971.188	5625
972.325	5626
973.463	5608
974.6	5640
975.736	5630
976.873	5682
978.009	5610
979.146	5652
980.282	5650
981.418	5644
982.554	5788
983.689	5788
984.824	5690
985.959	5660
987.095	5710
988.23	5676
989.364	5752
990.499	5764
991.633	5732
992.767	5722
993.9	5820
995.034	5808
996.167	5724
997.301	5668
998.434	5780
999.567	5770
1000.7	5802
1001.83	5702
1002.96	5790
1004.1	5752
1005.23	5750
1006.36	5864
1007.49	5790
1008.62	5874
1009.76	5752
1010.89	5954
1012.02	5814
1013.15	5866
1014.28	5880
1015.41	5876
1016.54	5824
1017.67	6008
1018.8	5820
1019.93	5922
1021.06	5960
1022.19	5862
1023.32	5834
1024.44	5954
1025.57	5944
1026.7	5978
1027.83	5936
1028.96	5950
1030.09	5916
1031.21	5984
1032.34	6054
1033.47	5982
1034.6	6136
1035.72	6098
1036.85	6114
1037.98	6072
1039.1	6092
1040.23	6002
1041.35	6176
1042.48	6186
1043.61	6100
1044.73	6124
1045.86	6070
1046.98	6076
1048.11	6116
1049.23	6258
1050.36	6232
1051.48	6166
1052.61	6148
1053.73	6174
1054.85	6178
1055.98	6104
1057.1	6136
1058.22	6250
1059.35	6242
1060.47	6234
1061.59	6306
1062.72	6168
1063.84	6232
1064.96	6158
1066.08	6168
1067.2	6218
1068.33	6196
1069.45	6194
1070.57	6156
1071.69	6148
1072.81	6190
1073.93	6276
1075.05	6264
1076.17	6166
1077.29	6166
1078.41	6358
1079.53	6202
1080.65	6148
1081.77	6080
1082.89	6178
1084.01	6216
1085.13	6226
1086.25	6170
1087.37	6106
1088.48	6104
1089.6	6160
1090.72	6168
1091.84	6030
1092.96	6108
1094.07	6166
1095.19	6082
1096.31	6166
1097.43	6100
1098.54	6090
1099.66	6168
1100.78	6136
1101.89	6106
1103.01	6076
1104.12	6136
1105.24	6016
1106.35	6082
1107.47	6108
1108.59	5990
1109.7	6094
1110.81	6054
1111.93	6074
1113.04	6074
1114.16	6126
1115.27	6074
1116.39	6040
1117.5	6028
1118.61	6004
1119.73	6092
1120.84	6054
1121.95	6002
1123.06	5996
1124.18	6026
1125.29	5962
1126.4	6050
1127.51	6066
1128.63	5946
1129.74	5936
1130.85	6008
1131.96	5928
1133.07	5938
1134.18	6102
1135.29	5962
1136.4	5980
1137.51	6040
1138.62	5988
1139.73	5936
1140.84	6018
1141.95	5986
1143.06	6048
1144.17	6006
1145.28	5946
1146.39	5974
1147.5	5884
1148.61	5948
1149.72	5938
1150.82	5970
1151.93	5946
1153.04	6048
1154.15	5944
1155.26	5946
1156.36	5952
1157.47	6002
1158.58	5982
1159.68	5922
1160.79	5876
1161.9	5816
1163	5906
1164.11	5920
1165.22	5930
1166.32	5854
1167.43	5870
1168.53	5962
1169.64	5836
1170.74	5806
1171.85	5860
1172.95	5776
1174.06	5872
1175.16	5848
1176.26	5706
1177.37	5836
1178.47	5750
1179.58	5828
1180.68	5852
1181.78	5734
1182.88	5686
1183.99	5696
1185.09	5718
1186.19	5702
1187.3	5566
1188.4	5658
1189.5	5554
1190.6	5638
1191.7	5556
1192.8	5594
1193.9	5492
1195.01	5490
1196.11	5569.29
1197.21	5585.02
1198.31	5522.25
1199.41	5448.46
1200.51	5455.67
1201.61	5454.87
1202.71	5471.32
1203.81	5401.28
1204.91	5389.01
1206.01	5391.61
1207.11	5378.8
1208.2	5444.01
1209.3	5375.68
1210.4	5334.15
1211.5	5321.51
1212.6	5391.46
1213.7	5295.47
1214.8	5303.37
1215.89	5271.9
1216.99	5384.42
1218.09	5278.32
1219.18	5306.67
1220.28	5244.43
1221.38	5212.75
1222.48	5168.82
1223.57	5230.94
1224.67	5214.83
1225.76	5199.6
1226.86	5194.73
1227.96	5152.07
1229.05	5132.56
1230.15	5130.56
1231.24	5106
1232.34	5203.8
1233.43	5059.75
1234.53	5108.06
1235.62	5100.62
1236.71	5083.44
1237.81	5064.79
1238.9	5048.06
1240	5129.72
1241.09	5122.3
1242.18	5007.87
1243.28	5014.08
1244.37	5009.19
1245.46	4982.76
1246.56	4967.61
1247.65	4957.14
1248.74	4997.57
1249.83	4961.79
1250.93	4994.5
1252.02	5007.48
1253.11	4919.82
1254.2	4955.04
1255.29	4947.58
1256.38	4949.05
1257.47	4882.67
1258.56	4926.8
1259.65	4941.03
1260.74	4898.67
1261.84	4892.41
1262.92	4878.26
1264.01	4861.72
1265.1	4879.97
1266.19	4860.05
1267.28	4848.49
1268.37	4817.64
1269.46	4825.62
1270.55	4872.06
1271.64	4878.4
1272.73	4797.52
1273.82	4786.88
1274.9	4780.16
1275.99	4747.73
1277.08	4707.8
1278.17	4755.11
1279.26	4742.04
1280.34	4685.74
1281.43	4736.98
1282.52	4749.51
1283.6	4719.26
1284.69	4693.97
1285.78	4677.36
1286.86	4703.41
1287.95	4665.03
1289.03	4690.56
1290.12	4643.12
1291.21	4610.75
1292.29	4580.19
1293.38	4557.86
1294.46	4608.84
1295.55	4639.7
1296.63	4578.23
1297.71	4614.69
1298.8	4581.39
1299.88	4516.42
1300.97	4499.83
1302.05	4601.58
1303.13	4551.81
1304.22	4496.84
1305.3	4506.22
1306.38	4464.03
1307.34	4460
1308.43	4552
1309.52	4424
1310.61	4442
1311.7	4392
1312.78	4448
1313.87	4402
1314.96	4434
1316.05	4448
1317.13	4308
1318.22	4432
1319.3	4330
1320.39	4324
1321.48	4310
1322.56	4308
1323.65	4312
1324.73	4300
1325.82	4226
1326.9	4252
1327.99	4202
1329.07	4240
1330.16	4226
1331.24	4166
1332.33	4196
1333.41	4202
1334.5	4168
1335.58	4092
1336.66	4236
1337.75	4194
1338.83	4102
1339.91	4098
1341	4110
1342.08	4066
1343.16	3972
1344.25	4018
1345.33	4130
1346.41	4080
1347.49	3964
1348.57	3988
1349.65	3956
1350.74	3954
1351.82	4004
1352.9	3976
1353.98	3878
1355.06	3980
1356.14	3894
1357.22	3962
1358.3	3930
1359.38	3902
1360.46	3856
1361.54	3856
1362.62	3888
1363.7	3820
1364.78	3900
1365.86	3830
1366.94	3890
1368.02	3854
1369.09	3786
1370.17	3896
1371.25	3788
1372.33	3774
1373.41	3736
1374.48	3746
1375.56	3710
1376.64	3722
1377.72	3696
1378.79	3792
1379.87	3782
1380.95	3706
1382.02	3732
1383.1	3708
1384.17	3694
1385.25	3632
1386.33	3702
1387.4	3694
1388.48	3658
1389.55	3654
1390.63	3594
1391.7	3700
1392.78	3598
1393.85	3630
1394.93	3626
1396	3558
1397.07	3580
1398.15	3554
1399.22	3572
1400.3	3640
1401.37	3586
1402.44	3550
1403.52	3494
1404.59	3566
1405.66	3480
1406.73	3542
1407.81	3592
1408.88	3492
1409.95	3502
1411.02	3468
1412.09	3564
1413.17	3544
1414.24	3542
1415.31	3480
1416.38	3440
1417.45	3448
1418.52	3444
1419.59	3460
1420.66	3426
1421.73	3438
1422.8	3370
1423.87	3452
1424.94	3396
1426.01	3372
1427.08	3342
1428.15	3402
1429.22	3408
1430.29	3370
1431.35	3366
1432.42	3308
1433.49	3332
1434.56	3340
1435.63	3326
1436.7	3288
1437.76	3314
1438.83	3354
1439.9	3304
1440.96	3332
1442.03	3388
1443.1	3232
1444.17	3288
1445.23	3312
1446.3	3332
1447.36	3202
1448.43	3280
1449.49	3208
1450.56	3232
1451.63	3262
1452.69	3202
1453.76	3208
1454.82	3290
1455.89	3240
1456.95	3256
1458.01	3194
1459.08	3214
1460.14	3210
1461.21	3184
1462.27	3232
1463.34	3192
1464.4	3136
1465.46	3168
1466.52	3118
1467.59	3172
1468.65	3108
1469.71	3116
1470.77	3100
1471.84	3076
1472.9	3134
1473.96	3086
1475.02	3066
1476.08	3134
1477.15	3136
1478.21	3076
1479.27	3082
1480.33	3040
1481.39	3084
1482.45	3072
1483.51	3016
1484.57	3068
1485.63	3014
1486.69	3084
1487.75	3000
1488.81	3018
1489.87	3004
1490.93	2996
1491.99	2980
1493.05	3076
1494.1	3038
1495.16	3046
1496.22	3032
1497.28	3024
1498.34	3002
1499.4	3028
1500.45	3006
1501.51	2982
1502.57	3008
1503.63	2934
1504.68	2966
1505.74	2884
1506.8	2916
1507.85	2968
1508.91	2898
1509.97	2944
1511.02	2902
1512.08	2902
1513.13	2946
1514.19	2892
1515.24	2906
1516.3	2856
1517.35	2898
1518.41	2912
1519.46	2808
1520.52	2862
1521.57	2884
1522.63	2942
1523.68	2896
1524.73	2884
1525.79	2812
1526.84	2864
1527.9	2798
1528.95	2846
1530	2810
1531.06	2836
1532.11	2782
1533.16	2824
1534.21	2822
1535.26	2810
1536.32	2834
1537.37	2854
1538.42	2798
1539.47	2804
1540.52	2772
1541.57	2712
1542.63	2780
1543.68	2692
1544.73	2750
1545.78	2750
1546.83	2736
1547.88	2718
1548.93	2728
1549.98	2724
1551.03	2630
1552.08	2676
1553.13	2720
1554.18	2606
1555.23	2706
1556.27	2678
1557.32	2640
1558.37	2694
1559.42	2638
1560.47	2728
1561.52	2680
1562.56	2676
1563.61	2608
1564.66	2620
1565.71	2614
1566.75	2690
1567.8	2620
1568.85	2648
1569.9	2660
1570.94	2588
1571.99	2580
1573.03	2628
1574.08	2654
1575.13	2644
1576.17	2606
1577.22	2662
1578.26	2588
1579.31	2588
1580.35	2564
1581.4	2600
1582.44	2638
1583.49	2554
1584.53	2576
1585.58	2592
1586.62	2550
1587.66	2600
1588.71	2602
1589.75	2580
1590.8	2590
1591.84	2542
1592.88	2502
1593.93	2530
1594.97	2562
1596.01	2576
1597.05	2540
1598.1	2576
1599.14	2506
1600.18	2520
1601.22	2562
1602.26	2554
1603.31	2556
1604.35	2548
1605.39	2572
1606.43	2510
1607.47	2548
1608.51	2562
1609.55	2482
1610.59	2542
1611.63	2512
1612.67	2474
1613.71	2456
1614.75	2496
1615.79	2438
1616.83	2536
1617.87	2448
1618.91	2552
1619.95	2446
1620.99	2552
1622.02	2482
1623.06	2484
1624.1	2432
1625.14	2496
1626.18	2526
1627.21	2430
1628.25	2452
1629.29	2494
1630.33	2466
1631.36	2460
1632.4	2462
1633.44	2516
1634.48	2406
1635.51	2456
1636.55	2456
1637.58	2434
1638.62	2446
1639.66	2434
1640.69	2424
1641.73	2460
1642.76	2460
1643.8	2444
1644.83	2440
1645.87	2440
1646.9	2410
1647.94	2418
1648.97	2434
1650	2400
1651.04	2456
1652.07	2392
1653.11	2362
1654.14	2368
1655.17	2398
1656.21	2360
1657.24	2434
1658.27	2354
1659.31	2302
1660.34	2370
1661.37	2366
1662.4	2354
1663.43	2386
1664.47	2416
1665.5	2350
1666.53	2374
1667.56	2344
1668.59	2422
1669.62	2346
1670.66	2326
1671.69	2344
1672.72	2310
1673.75	2322
1674.78	2304
1675.81	2312
1676.84	2306
1677.87	2330
1678.9	2264
1679.93	2354
1680.96	2286
1681.98	2290
1683.01	2350
1684.04	2260
1685.07	2292
1686.1	2276
1687.13	2240
1688.16	2264
1689.19	2220
1690.21	2276
1691.24	2270
1692.27	2262
1693.3	2288
1694.32	2236
1695.35	2280
1696.38	2266
1697.4	2272
1698.43	2226
1699.46	2240
1700.48	2248
1701.51	2184
1702.54	2196
1703.56	2172
1704.59	2210
1705.61	2148
1706.64	2276
1707.66	2204
1708.69	2194
1709.71	2156
1710.74	2198
1711.76	2216
1712.79	2182
1713.81	2210
1714.83	2214
1715.86	2176
1716.88	2196
1717.91	2196
1718.93	2200
1719.95	2142
1720.98	2172
1722	2138
1723.02	2146
1724.04	2152
1725.07	2184
1726.09	2160
1727.11	2150
1728.13	2186
1729.15	2120
1730.18	2164
1731.2	2162
1732.22	2124
1733.24	2184
1734.26	2152
1735.28	2106
1736.3	2122
1737.32	2146
1738.34	2034
1739.36	2110
1740.38	2130
1741.4	2116
1742.42	2066
1743.44	2086
1744.46	2104
1745.48	2122
1746.5	2088
1747.52	2094
1748.54	2084
1749.56	2078
1750.58	2076
1751.6	2086
1752.61	2050
1753.63	2128
1754.65	2138
1755.67	2152
1756.68	2146
1757.7	2078
1758.72	2094
1759.74	2066
1760.75	2070
1761.77	2092
1762.79	2016
1763.8	2110
1764.82	2094
1765.84	2070
1766.85	2022
1767.87	2024
1768.88	2052
1769.9	2084
1770.91	2048
1771.93	2132
1772.94	2064
1773.96	2052
1774.97	2054
1775.99	2096
1777	2084
1778.02	2018
1779.03	2090
1780.04	2010
1781.06	2032
1782.07	2072
1783.09	2048
1784.1	2014
1785.11	2054
1786.13	2066
1787.14	2090
1788.15	2048
1789.16	2034
1790.18	2004
1791.19	2056
1792.2	2046
1793.21	2028
1794.22	2042
1795.23	2018
1796.25	2008
1797.26	2022
1798.27	2006
1799.28	2036
1800.29	2090
1801.3	1986
1802.31	2044
1803.32	2052
1804.33	1960
1805.34	2040
1806.35	1970
1807.36	1980
1808.37	2042
1809.38	1990
1810.39	1996
1811.4	1982
1812.41	2004
1813.42	1982
1814.43	1984
1815.43	1960
1816.44	2022
1817.45	2048
1818.46	2006
1819.47	1972
1820.47	1926
1821.48	1976
1822.49	1934
1823.49	1988
1824.5	1966
1825.51	1962
1826.52	2000
1827.52	1932
1828.53	1980
1829.54	1934
1830.54	1940
1831.55	1956
1832.55	1956
1833.56	1932
1834.56	1956
1835.57	1902
1836.57	1954
1837.58	1940
1838.58	1922
1839.59	1990
1840.59	1932
1841.6	1904
1842.6	1902
1843.61	1882
1844.61	1946
1845.61	1894
1846.62	1886
1847.62	1904
1848.62	1880
1849.63	1906
1850.63	1874
1851.63	1920
1852.64	1904
1853.64	1880
1854.64	1882
1855.64	1896
1856.64	1880
1857.65	1866
1858.65	1950
1859.65	1842
1860.65	1864
1861.65	1886
1862.65	1854
1863.65	1854
1864.66	1896
1865.66	1878
1866.66	1892
1867.66	1862
1868.66	1872
1869.66	1852
1870.66	1856
1871.66	1854
1872.66	1846
1873.66	1902
1874.66	1824
1875.65	1866
1876.65	1846
1877.65	1902
1878.65	1860
1879.65	1902
1880.65	1890
1881.65	1862
1882.64	1816
1883.64	1804
1884.64	1814
1885.64	1838
1886.63	1818
1887.63	1896
1888.63	1836
1889.63	1848
1890.62	1844
1891.62	1800
1892.62	1804
1893.61	1820
1894.61	1816
1895.6	1858
1896.6	1836
1897.6	1878
1898.59	1892
1899.59	1828
1900.58	1798
1901.58	1832
1902.57	1780
1903.57	1848
1904.56	1788
1905.56	1810
1906.55	1810
1907.54	1856
1908.54	1828
1909.53	1848
1910.53	1858
1911.52	1770
1912.51	1824
1913.51	1792
1914.5	1774
1915.49	1850
1916.49	1818
1917.48	1820
1918.47	1786
1919.46	1816
1920.46	1854
1921.45	1772
1922.44	1822
1923.43	1808
1924.42	1832
1925.41	1770
1926.41	1836
1927.4	1780
1928.39	1804
1929.38	1826
1930.37	1788
1931.36	1792
1932.35	1790
1933.34	1800
1934.33	1798
1935.32	1790
1936.31	1764
1937.3	1774
1938.29	1848
1939.28	1788
1940.27	1772
1941.26	1778
1942.24	1820
1943.23	1760
1944.22	1772
1945.21	1800
1946.2	1726
1947.19	1812
1948.17	1712
1949.16	1790
1950.15	1798
1951.14	1806
1952.13	1778
1953.11	1756
1954.1	1804
1955.09	1744
1956.07	1768
1957.06	1792
1958.05	1794
1959.03	1712
1960.02	1766
1961	1742
1961.99	1794
1962.98	1714
1963.96	1740
1964.95	1744
1965.93	1756
1966.92	1710
1967.9	1730
1968.89	1758
1969.87	1706
1970.85	1732
1971.84	1734
1972.82	1718
1973.81	1702
1974.79	1746
1975.78	1722
1976.76	1740
1977.74	1724
1978.73	1720
1979.71	1738
1980.69	1696
1981.67	1702
1982.66	1748
1983.64	1766
1984.62	1722
1985.6	1714
1986.59	1702
1987.57	1710
1988.55	1748
1989.53	1710
1990.51	1766
1991.49	1710
1992.47	1700
1993.45	1704
1994.44	1666
1995.42	1696
1996.4	1702
1997.38	1674
1998.36	1676
1999.34	1692
2000.32	1716
2001.3	1682
2002.28	1714
2003.26	1646
2004.24	1698
2005.22	1658
2006.19	1746
2007.17	1692
2008.15	1728
2009.13	1666
2010.11	1690
2011.09	1744
2012.06	1718
2013.04	1660
2014.02	1710
2015	1676
2015.98	1676
2016.95	1694
2017.93	1700
2018.91	1652
2019.88	1720
2020.86	1658
2021.84	1654
2022.81	1668
2023.79	1698
2024.77	1670
2025.74	1680
2026.72	1682
2027.69	1648
2028.67	1672
2029.65	1650
2030.62	1760
2031.6	1660
2032.57	1622
2033.55	1644
2034.52	1632
2035.5	1668
2036.47	1636
2037.44	1646
2038.42	1642
2039.39	1672
2040.36	1658
2041.34	1670
2042.31	1688
2043.29	1652
2044.26	1638
2045.23	1644
2046.2	1670
2047.18	1650
2048.15	1614
2049.12	1596
2050.09	1670
2051.07	1630
2052.04	1614
2053.01	1634
2053.98	1624
2054.95	1656
2055.93	1668
2056.9	1648
2057.87	1686
2058.84	1648
2059.81	1678
2060.78	1640
2061.75	1612
2062.72	1606
2063.69	1612
2064.66	1650
2065.63	1550
2066.6	1602
2067.57	1650
2068.54	1666
2069.51	1646
2070.48	1682
2071.45	1644
2072.42	1580
2073.38	1588
2074.35	1688
2075.32	1660
2076.29	1598
2077.26	1592
2078.23	1668
2079.19	1640
2080.16	1580
2081.13	1608
2082.1	1622
2083.06	1634
2084.03	1616
2085	1652
2085.96	1602
2086.93	1624
2087.9	1588
2088.86	1620
2089.83	1588
2090.8	1606
2091.76	1592
2092.73	1560
2093.69	1596
2094.66	1550
2095.62	1610
2096.59	1588
2097.55	1576
2098.52	1602
2099.48	1594
2100.45	1584
2101.41	1574
2102.38	1590
2103.34	1584
2104.31	1586
2105.27	1582
2106.23	1568
2107.2	1560
2108.16	1550
2109.12	1574
2110.09	1560
2111.05	1566
2112.01	1574
2112.98	1544
2113.94	1564
2114.9	1568
2115.86	1560
2116.82	1614
2117.79	1576
2118.75	1608
2119.71	1572
2120.67	1588
2121.63	1614
2122.59	1520
2123.55	1574
2124.52	1572
2125.48	1548
2126.44	1606
2127.4	1562
2128.36	1574
2129.32	1564
2130.28	1554
2131.24	1500
2132.2	1596
2133.16	1546
2134.12	1520
2135.08	1556
2136.04	1638
2136.99	1534
2137.95	1578
2138.91	1544
2139.87	1540
2140.83	1498
2141.79	1552
2142.75	1478
2143.7	1574
2144.66	1490
2145.62	1547.82
2146.58	1540.9
2147.53	1554.19
2148.49	1524
2149.45	1523.85
2150.41	1528.76
2151.36	1493.79
2152.32	1523.93
2153.28	1537.35
2154.23	1507.04
2155.19	1559.2
2156.14	1528.8
2157.1	1479.85
2158.06	1459.74
2159.01	1491.24
2159.97	1467.8
2160.92	1513.51
2161.88	1486.93
2162.83	1514.9
2163.79	1490.41
2164.74	1475.43
2165.7	1495.56
2166.65	1504.74
2167.61	1487.28
2168.56	1499.26
2169.51	1489.11
2170.47	1494.52
2171.42	1459.71
2172.38	1493.95
2173.33	1478.46
2174.28	1456.33
2175.24	1498.1
2176.19	1473.18
2177.14	1492.25
2178.09	1472.52
2179.05	1482.63
2180	1439.29
2180.95	1478.04
2181.9	1473.38
2182.86	1472.47
2183.81	1468.52
2184.76	1489.33
2185.71	1475.57
2186.66	1470.96
2187.61	1485.26
2188.57	1456.89
2189.52	1497.15
2190.47	1463.69
2191.42	1468.84
2192.37	1460.64
2193.32	1471.9
2194.27	1455.83
2195.22	1460.85
2196.17	1469.47
2197.12	1472.58
2198.07	1465.36
2199.02	1452.89
2199.97	1453.85
2200.92	1452.76
2201.87	1456.62
2202.82	1468.04
2203.76	1422.33
2204.71	1443.96
2205.66	1455.06
2206.61	1447.39
2207.56	1420.35
2208.51	1455.76
2209.45	1441.55
2210.4	1440.39
2211.35	1433.19
2212.3	1437.75
2213.25	1425.46
2214.19	1425.63
2215.14	1446.77
2216.09	1440.59
2217.03	1440.64
2217.98	1448.23
2218.93	1451.49
2219.87	1449.07
2220.82	1423.23
2221.77	1430.68
2222.71	1433.94
2223.66	1439.76
2224.6	1437.95
2225.55	1461.05
2226.49	1455.1
2227.44	1441.4
2228.38	1438.16
2229.33	1430.63
2230.27	1440.32
2231.22	1449.46
2232.16	1418.96
2233.11	1423.44
2234.05	1432.37
2235	1438.29
2235.94	1435.54
2236.88	1412.43
2237.83	1398.83
2238.77	1421.54
2239.72	1443.36
2240.66	1453.1
2241.6	1444.85
2242.07	1426
2243.02	1436
2243.97	1434
2244.92	1450
2245.87	1438
2246.81	1420
2247.76	1468
2248.71	1456
2249.65	1432
2250.6	1406
2251.55	1450
2252.49	1426
2253.44	1418
2254.39	1402
2255.33	1470
2256.28	1424
2257.22	1398
2258.17	1436
2259.12	1444
2260.06	1392
2261.01	1420
2261.95	1414
2262.9	1412
2263.84	1412
2264.78	1408
2265.73	1422
2266.67	1408
2267.62	1446
2268.56	1390
2269.51	1442
2270.45	1406
2271.39	1364
2272.34	1434
2273.28	1408
2274.22	1426
2275.17	1364
2276.11	1350
2277.05	1378
2277.99	1396
2278.94	1398
2279.88	1398
2280.82	1422
2281.76	1402
2282.71	1412
2283.65	1386
2284.59	1426
2285.53	1356
2286.47	1414
2287.41	1354
2288.35	1398
2289.3	1374
2290.24	1348
2291.18	1406
2292.12	1380
2293.06	1372
2294	1410
2294.94	1348
2295.88	1374
2296.82	1374
2297.76	1380
2298.7	1390
2299.64	1366
2300.58	1340
2301.52	1336
2302.46	1332
2303.39	1380
2304.33	1376
2305.27	1340
2306.21	1384
2307.15	1382
2308.09	1350
2309.02	1374
2309.96	1362
2310.9	1358
2311.84	1334
2312.77	1350
2313.71	1330
2314.65	1370
2315.59	1338
2316.52	1336
2317.46	1332
2318.4	1330
2319.33	1370
2320.27	1338
2321.21	1300
2322.14	1342
2323.08	1296
2324.01	1360
2324.95	1346
2325.89	1326
2326.82	1372
2327.76	1336
2328.69	1308
2329.63	1360
2330.56	1296
2331.5	1282
2332.43	1328
2333.36	1346
2334.3	1288
2335.23	1344
2336.17	1338
2337.1	1300
2338.03	1300
2338.97	1342
2339.9	1314
2340.83	1288
2341.77	1284
2342.7	1300
2343.63	1312
2344.57	1322
2345.5	1290
2346.43	1300
2347.36	1280
2348.3	1288
2349.23	1292
2350.16	1278
2351.09	1318
2352.02	1312
2352.95	1310
2353.89	1290
2354.82	1294
2355.75	1274
2356.68	1304
2357.61	1314
2358.54	1272
2359.47	1272
2360.4	1282
2361.33	1278
2362.26	1240
2363.19	1324
2364.12	1290
2365.05	1324
2365.98	1274
2366.91	1282
2367.84	1292
2368.77	1268
2369.7	1256
2370.63	1256
2371.56	1290
2372.48	1296
2373.41	1236
2374.34	1272
2375.27	1270
2376.2	1256
2377.12	1220
2378.05	1290
2378.98	1252
2379.91	1280
2380.84	1260
2381.76	1230
2382.69	1228
2383.62	1256
2384.54	1242
2385.47	1230
2386.4	1246
2387.32	1242
2388.25	1230
2389.18	1230
2390.1	1292
2391.03	1266
2391.95	1258
2392.88	1282
2393.8	1270
2394.73	1270
2395.65	1226
2396.58	1222
2397.5	1240
2398.43	1250
2399.35	1240
2400.28	1178
2401.2	1224
2402.13	1222
2403.05	1198
2403.97	1216
2404.9	1192
2405.82	1214
2406.75	1176
2407.67	1252
2408.59	1236
2409.51	1188
2410.44	1172
2411.36	1222
2412.28	1220
2413.21	1174
2414.13	1208
2415.05	1234
2415.97	1146
2416.9	1192
2417.82	1196
2418.74	1166
2419.66	1224
2420.58	1222
2421.5	1206
2422.42	1186
2423.35	1178
2424.27	1226
2425.19	1178
2426.11	1164
2427.03	1186
2427.95	1184
2428.87	1184
2429.79	1174
2430.71	1184
2431.63	1158
2432.55	1178
2433.47	1172
2434.39	1190
2435.31	1186
2436.23	1156
2437.14	1170
2438.06	1172
2438.98	1188
2439.9	1128
2440.82	1140
2441.74	1154
2442.66	1198
2443.57	1168
2444.49	1152
2445.41	1176
2446.33	1180
2447.24	1184
2448.16	1162
2449.08	1144
2450	1164
2450.91	1142
2451.83	1136
2452.75	1130
2453.66	1140
2454.58	1172
2455.5	1160
2456.41	1166
2457.33	1122
2458.24	1114
2459.16	1152
2460.08	1120
2460.99	1124
2461.91	1168
2462.82	1140
2463.74	1124
2464.65	1134
2465.57	1152
2466.48	1124
2467.4	1138
2468.31	1138
2469.22	1144
2470.14	1056
2471.05	1128
2471.97	1130
2472.88	1080
2473.79	1134
2474.71	1166
2475.62	1144
2476.53	1114
2477.45	1112
2478.36	1084
2479.27	1060
2480.19	1062
2481.1	1078
2482.01	1100
2482.92	1152
2483.83	1150
2484.75	1068
2485.66	1042
2486.57	1092
2487.48	1088
2488.39	1108
2489.3	1102
2490.22	1084
2491.13	1098
2492.04	1058
2492.95	1088
2493.86	1098
2494.77	1050
2495.68	1066
2496.59	1088
2497.5	1094
2498.41	1028
2499.32	1050
2500.23	1066
2501.14	1070
2502.05	1084
2502.96	1102
2503.87	1048
2504.78	1048
2505.68	1084
2506.59	1098
2507.5	1042
2508.41	1040
2509.32	1066
2510.23	1048
2511.14	1038
2512.04	1036
2512.95	1020
2513.86	1030
2514.77	1066
2515.67	1068
2516.58	1012
2517.49	1020
2518.39	1066
2519.3	1040
2520.21	1008
2521.11	1056
2522.02	1012
2522.93	1002
2523.83	1052
2524.74	988
2525.65	1026
2526.55	1016
2527.46	1002
2528.36	992
2529.27	1032
2530.17	982
2531.08	998
2531.98	994
2532.89	1016
2533.79	1012
2534.7	994
2535.6	1020
2536.51	992
2537.41	980
2538.32	1006
2539.22	976
2540.12	1048
2541.03	1014
2541.93	1016
2542.83	986
2543.74	1028
2544.64	994
2545.54	980
2546.45	1004
2547.35	1004
2548.25	990
2549.15	976
2550.06	974
2550.96	1020
2551.86	986
2552.76	990
2553.66	942
2554.56	980
2555.47	994
2556.37	964
2557.27	980
2558.17	988
2559.07	960
2559.97	944
2560.87	954
2561.77	974
2562.67	1032
2563.58	980
2564.47	928
2565.38	948
2566.27	946
2567.18	956
2568.07	956
2568.97	942
2569.87	966
2570.77	980
2571.67	948
2572.57	970
2573.47	952
2574.37	926
2575.27	928
2576.17	946
2577.06	908
2577.96	960
2578.86	936
2579.76	924
2580.66	890
2581.55	904
2582.45	934
2583.35	920
2584.25	946
2585.14	916
2586.04	944
2586.94	922
2587.83	908
2588.73	926
2589.63	912
2590.52	916
2591.42	924
2592.32	932
2593.21	896
2594.11	912
2595	930
2595.9	926
2596.8	880
2597.69	930
2598.59	948
2599.48	898
2600.38	898
2601.27	932
2602.17	914
2603.06	896
2603.95	886
2604.85	862
2605.74	926
2606.64	862
2607.53	898
2608.42	872
2609.32	896
2610.21	900
2611.1	874
2612	880
2612.89	868
2613.78	906
2614.68	866
2615.57	880
2616.46	834
2617.36	874
2618.25	878
2619.14	888
2620.03	890
2620.92	862
2621.82	896
2622.71	864
2623.6	906
2624.49	854
2625.38	844
2626.27	864
2627.16	846
2628.05	848
2628.95	854
2629.84	866
2630.73	828
2631.62	854
2632.51	874
2633.4	806
2634.29	840
2635.18	824
2636.07	848
2636.96	836
2637.85	824
2638.74	840
2639.62	858
2640.51	820
2641.4	826
2642.29	850
2643.18	846
2644.07	838
2644.96	810
2645.85	844
2646.73	824
2647.62	824
2648.51	820
2649.4	822
2650.28	836
2651.17	830
2652.06	820
2652.95	812
2653.83	802
2654.72	832
2655.61	810
2656.5	810
2657.38	806
2658.27	806
2659.15	812
2660.04	842
2660.93	804
2661.81	798
2662.7	802
2663.58	830
2664.47	784
2665.35	784
2666.24	796
2667.13	810
2668.01	802
2668.9	810
2669.78	814
2670.66	786
2671.55	776
2672.43	794
2673.32	786
2674.2	770
2675.09	772
2675.97	760
2676.85	774
2677.74	804
2678.62	802
2679.5	770
2680.39	790
2681.27	778
2682.15	772
2683.04	766
2683.92	768
2684.8	782
2685.68	778
2686.57	784
2687.45	752
2688.33	782
2689.21	760
2690.09	746
2690.98	772
2691.86	758
2692.74	782
2693.62	758
2694.5	770
2695.38	746
2696.26	762
2697.15	764
2698.03	776
2698.91	750
2699.79	744
2700.67	768
2701.55	768
2702.43	744
2703.31	742
2704.19	744
2705.07	736
2705.95	742
2706.83	728
2707.7	714
2708.58	728
2709.46	708
2710.34	740
2711.22	740
2712.1	734
2712.98	738
2713.86	740
2714.73	734
2715.61	730
2716.49	732
2717.37	684
2718.25	720
2719.12	736
2720	748
2720.88	724
2721.76	738
2722.63	722
2723.51	724
2724.39	720
2725.26	692
2726.14	740
2727.02	710
2727.89	724
2728.77	698
2729.64	708
2730.52	704
2731.4	694
2732.27	712
2733.15	724
2734.02	706
2734.9	680
2735.77	694
2736.65	678
2737.52	698
2738.4	682
2739.27	704
2740.15	696
2741.02	678
2741.9	656
2742.77	696
2743.64	686
2744.52	698
2745.39	676
2746.27	666
2747.14	708
2748.01	660
2748.89	684
2749.76	690
2750.63	692
2751.51	694
2752.38	662
2753.25	694
2754.12	700
2755	676
2755.87	668
2756.74	700
2757.61	680
2758.48	648
2759.35	680
2760.23	674
2761.1	648
2761.97	664
2762.84	680
2763.71	664
2764.58	670
2765.45	690
2766.32	666
2767.19	658
2768.07	660
2768.94	650
2769.81	640
2770.68	626
2771.55	682
2772.42	624
2773.29	646
2774.16	656
2775.02	634
2775.89	664
2776.76	640
2777.63	610
2778.5	662
2779.37	650
2780.24	636
2781.11	622
2781.98	644
2782.84	654
2783.71	638
2784.58	634
2785.45	618
2786.32	636
2787.18	636
2788.05	642
2788.92	626
2789.79	626
2790.65	634
2791.52	608
2792.39	624
2793.25	642
2794.12	640
2794.99	632
2795.85	608
2796.72	606
2797.59	612
2798.45	618
2799.32	628
2800.18	616
2801.05	622
2801.92	600
2802.78	606
2803.65	616
2804.51	626
2805.38	604
2806.24	594
2807.11	594
2807.97	620
2808.84	598
2809.7	624
2810.57	638
2811.43	622
2812.29	602
2813.16	612
2814.02	596
2814.88	584
2815.75	604
2816.61	592
2817.47	598
2818.34	608
2819.2	578
2820.06	580
2820.93	598
2821.79	594
2822.65	578
2823.51	622
2824.38	570
2825.24	580
2826.1	582
2826.96	590
2827.82	608
2828.69	556
2829.55	584
2830.41	580
2831.27	570
2832.13	556
2832.99	602
2833.85	562
2834.71	580
2835.57	598
2836.44	534
2837.3	584
2838.16	568
2839.02	570
2839.88	570
2840.74	570
2841.6	588
2842.46	558
2843.32	562
2844.18	568
2845.03	560
2845.89	560
2846.75	560
2847.61	582
2848.47	564
2849.33	580
2850.19	574
2851.05	560
2851.9	560
2852.76	556
2853.62	538
2854.48	570
2855.34	552
2856.19	554
2857.05	554
2857.91	556
2858.77	532
2859.62	536
2860.48	542
2861.34	552
2862.19	536
2863.05	550
2863.91	544
2864.76	530
2865.62	580
2866.48	550
2867.33	548
2868.19	538
2869.04	520
2869.9	558
2870.76	510
2871.61	526
2872.47	546
2873.32	522
2874.18	554
2875.03	530
2875.89	564
2876.74	528
2877.6	530
2878.45	524
2879.31	532
2880.16	526
2881.01	514
2881.87	534
2882.72	514
2883.58	508
2884.43	548
2885.28	522
2886.14	534
2886.99	516
2887.84	538
2888.7	544
2889.55	560
2890.4	542
2891.25	512
2892.11	506
2892.96	502
2893.81	500
2894.66	508
2895.52	520
2896.37	528
2897.22	512
2898.07	520
2898.92	510
2899.77	492
2900.62	522
2901.48	526
2902.33	492
2903.18	532
2904.03	520
2904.88	514
2905.73	498
2906.58	494
2907.43	512
2908.28	498
2909.13	522
2909.98	504
2910.83	498
2911.68	506
2912.53	502
2913.38	498
2914.23	498
2915.08	512
2915.93	510
2916.78	482
2917.63	508
2918.47	484
2919.32	492
2920.17	494
2921.02	510
2921.87	466
2922.72	494
2923.56	516
2924.41	494
2925.26	494
2926.11	490
2926.95	488
2927.8	494
2928.65	470
2929.5	490
2930.34	480
2931.19	470
2932.04	522
2932.88	488
2933.73	466
2934.58	512
2935.42	504
2936.27	474
2937.11	484
2937.96	478
2938.81	476
2939.65	476
2940.5	494
2941.34	464
2942.19	466
2943.03	480
2943.88	502
2944.72	486
2945.57	476
2946.41	482
2947.26	486
2948.1	458
2948.95	446
2949.79	464
2950.64	470
2951.48	452
2952.32	460
2953.17	484
2954.01	464
2954.85	468
2955.7	498
2956.54	476
2957.38	468
2958.23	448
2959.07	466
2959.91	450
2960.75	456
2961.6	462
2962.44	458
2963.28	480
2964.12	460
2964.97	450
2965.81	452
2966.65	428
2967.49	450
2968.33	438
2969.17	416
2970.02	464
2970.86	456
2971.7	456
2972.54	436
2973.38	450
2974.22	430
2975.06	454
2975.9	436
2976.74	456
2977.58	466
2978.42	446
2979.26	458
2980.1	428
2980.94	438
2981.78	462
2982.62	408
2983.46	432
2984.3	406
2985.14	436
2985.98	434
2986.82	450
2987.66	454
2988.49	416
2989.33	430
2990.17	438
2991.01	430
2991.85	420
2992.69	434
2993.52	412
2994.36	426
2995.2	424
2996.04	442
2996.87	444
2997.71	440
2998.55	428
2999.39	428
