#Acq. time (s)=	10
#Accumulations=	1
#Range (cm-¹)=	100...3000
#Windows=	3
#Autofocus=	Off
#AutoExposure=	Off
#Spike filter=	Off
#Delay time (s)=	0
#Binning=	1
#Readout mode=	Signal
#DeNoise=	Off
#ICS correction=	Off
#Dark correction=	Off
#Inst. Process=	Off
#Instrument=	LabRAM HR Evol
#Detector=	Syncerity OE
#Objective=	x100_VIS
#Grating=	600 (500nm)
#ND Filter=	5%
#Laser=	633nm_Edge
#Hole=	74.97
#Range=	Visible
#Project=	Omar
#Sample=	26-06-23
#Site=	1
#Title=	Organic
#Remark=	
#Date=	26.06.2023 16:09
#Acquired=	26.06.2023 16:09:45
101.018	1442
102.302	1396
103.586	1430
104.869	1392
106.152	1376
107.435	1360
108.717	1364
109.999	1362
111.281	1398
112.563	1382
113.845	1366
115.126	1444
116.407	1428
117.688	1394
118.969	1394
120.249	1414
121.53	1418
122.81	1394
124.09	1394
125.369	1380
126.649	1422
127.928	1368
129.207	1398
130.486	1398
131.765	1428
133.043	1348
134.321	1440
135.599	1412
136.877	1370
138.155	1396
139.432	1430
140.708	1414
141.985	1362
143.261	1384
144.538	1370
145.814	1420
147.09	1380
148.366	1410
149.641	1410
150.916	1386
152.191	1382
153.466	1414
154.741	1370
156.016	1422
157.289	1392
158.563	1364
159.837	1462
161.111	1420
162.385	1380
163.657	1392
164.93	1404
166.203	1378
167.476	1414
168.747	1384
170.019	1388
171.291	1366
172.562	1392
173.834	1372
175.105	1410
176.377	1374
177.646	1364
178.917	1414
180.188	1390
181.457	1396
182.727	1412
183.996	1418
185.266	1382
186.536	1404
187.804	1412
189.073	1378
190.342	1430
191.609	1400
192.878	1382
194.145	1358
195.413	1406
196.681	1394
197.948	1438
199.215	1376
200.481	1444
201.749	1398
203.014	1424
204.281	1424
205.546	1414
206.813	1434
208.077	1448
209.343	1412
210.608	1390
211.873	1418
213.137	1406
214.402	1422
215.666	1442
216.93	1388
218.194	1406
219.458	1394
220.721	1450
221.983	1436
223.247	1412
224.509	1428
225.772	1462
227.034	1454
228.295	1428
229.558	1432
230.819	1388
232.081	1504
233.342	1434
234.602	1454
235.864	1450
237.124	1486
238.384	1358
239.645	1420
240.904	1450
242.164	1458
243.423	1472
244.683	1464
245.941	1482
247.2	1428
248.46	1468
249.717	1448
250.975	1448
252.233	1492
253.492	1440
254.749	1452
256.006	1458
257.263	1352
258.519	1414
259.777	1396
261.033	1400
262.289	1426
263.545	1446
264.8	1394
266.057	1398
267.312	1434
268.567	1476
269.822	1410
271.076	1422
272.331	1434
273.585	1424
274.839	1404
276.094	1418
277.347	1432
278.601	1434
279.854	1414
281.107	1414
282.359	1400
283.612	1418
284.864	1420
286.116	1420
287.368	1478
288.62	1428
289.871	1446
291.123	1436
292.374	1422
293.625	1464
294.875	1410
296.126	1466
297.376	1458
298.626	1468
299.876	1430
301.126	1486
302.375	1456
303.625	1448
304.874	1474
306.122	1468
307.371	1414
308.62	1428
309.866	1486
311.114	1512
312.362	1508
313.61	1484
314.857	1484
316.105	1436
317.352	1464
318.599	1518
319.844	1460
321.09	1460
322.337	1482
323.583	1450
324.828	1438
326.073	1460
327.318	1466
328.563	1496
329.808	1458
331.053	1524
332.296	1512
333.541	1416
334.785	1426
336.029	1486
337.272	1500
338.515	1496
339.759	1498
341.001	1502
342.244	1530
343.486	1518
344.728	1498
345.97	1490
347.212	1490
348.453	1492
349.695	1470
350.936	1476
352.176	1500
353.418	1498
354.659	1474
355.898	1438
357.139	1504
358.378	1518
359.618	1478
360.858	1548
362.097	1500
363.336	1456
364.574	1524
365.813	1514
367.051	1474
368.29	1498
369.527	1500
370.766	1482
372.002	1494
373.241	1458
374.477	1488
375.715	1484
376.951	1470
378.188	1458
379.424	1530
380.66	1500
381.896	1464
383.132	1500
384.367	1468
385.603	1532
386.838	1462
388.072	1518
389.307	1446
390.541	1510
391.776	1466
393.01	1504
394.243	1470
395.477	1522
396.71	1472
397.943	1516
399.177	1532
400.409	1518
401.641	1482
402.875	1498
404.106	1544
405.338	1538
406.57	1516
407.802	1534
409.032	1530
410.263	1556
411.495	1580
412.725	1620
413.955	1540
415.185	1568
416.417	1544
417.646	1558
418.875	1538
420.104	1586
421.335	1556
422.564	1564
423.792	1554
425.02	1580
426.249	1572
427.477	1550
428.706	1568
429.933	1570
431.161	1600
432.388	1626
433.615	1604
434.841	1582
436.068	1588
437.294	1612
438.522	1592
439.748	1576
440.974	1620
442.199	1600
443.425	1580
444.65	1598
445.875	1614
447.1	1574
448.324	1596
449.549	1606
450.773	1576
451.997	1600
453.221	1578
454.445	1594
455.668	1622
456.891	1624
458.114	1594
459.337	1610
460.56	1580
461.782	1626
463.005	1632
464.227	1588
465.447	1612
466.669	1582
467.89	1602
469.112	1642
470.333	1582
471.554	1618
472.774	1606
473.995	1632
475.214	1632
476.434	1656
477.654	1658
478.874	1612
480.093	1606
481.312	1654
482.53	1612
483.749	1586
484.968	1640
486.186	1654
487.405	1654
488.622	1612
489.84	1702
491.057	1682
492.275	1646
493.491	1632
494.708	1632
495.925	1688
497.141	1650
498.357	1704
499.574	1692
500.789	1690
502.005	1652
503.221	1692
504.435	1686
505.65	1666
506.866	1692
508.079	1692
509.294	1676
510.509	1690
511.722	1728
512.936	1724
514.149	1738
515.363	1704
516.577	1704
517.789	1698
519.002	1726
520.214	1714
521.427	1706
522.638	1742
523.851	1672
525.062	1682
526.274	1686
527.485	1666
528.697	1670
529.907	1700
531.118	1752
532.328	1718
533.539	1752
534.748	1730
535.959	1714
537.168	1710
538.379	1726
539.587	1698
540.796	1670
542.005	1720
543.214	1726
544.423	1728
545.631	1746
546.838	1780
548.047	1722
549.254	1752
550.461	1756
551.669	1756
552.876	1756
554.082	1766
555.29	1742
556.496	1738
557.701	1796
558.909	1728
560.114	1768
561.319	1764
562.524	1758
563.731	1760
564.935	1750
566.14	1766
567.344	1758
568.549	1772
569.753	1768
570.957	1776
572.161	1792
573.364	1792
574.568	1784
575.771	1814
576.974	1824
578.177	1808
579.379	1828
580.581	1768
581.785	1860
582.987	1856
584.188	1864
585.39	1862
586.591	1834
587.792	1846
588.993	1894
590.193	1850
591.394	1874
592.594	1908
593.796	1892
594.996	1868
596.195	1896
597.395	1850
598.594	1890
599.793	1854
600.992	1912
602.191	1842
603.39	1960
604.588	1932
605.786	1952
606.984	1894
608.181	1924
609.378	1924
610.576	1934
611.773	1860
612.97	1952
614.167	1952
615.364	1942
616.56	1988
617.757	2002
618.953	1994
620.149	2002
621.343	1970
622.539	2052
623.734	2004
624.929	2020
626.124	2014
627.319	1982
628.512	2060
629.707	2074
630.901	2034
632.095	2040
633.289	2038
634.481	2086
635.675	2126
636.868	2160
638.061	2096
639.253	2096
640.446	2098
641.638	2146
642.831	2118
644.021	2164
645.213	2134
646.405	2186
647.595	2176
648.787	2142
649.978	2182
651.168	2154
652.359	2148
653.549	2186
654.738	2182
655.929	2264
657.117	2172
658.307	2208
659.497	2198
660.685	2206
661.875	2224
663.063	2200
664.252	2294
665.439	2200
666.628	2230
667.816	2232
669.003	2190
670.191	2276
671.378	2238
672.565	2232
673.751	2182
674.939	2214
676.124	2234
677.311	2236
678.497	2236
679.682	2330
680.868	2330
682.053	2294
683.239	2276
684.424	2264
685.609	2258
686.793	2348
687.977	2304
689.162	2310
690.346	2306
691.529	2350
692.714	2384
693.897	2364
695.081	2348
696.264	2286
697.446	2370
698.63	2364
699.812	2366
700.993	2418
702.175	2388
703.358	2460
704.539	2510
705.72	2462
706.901	2414
708.083	2460
709.264	2536
710.444	2432
711.625	2470
712.806	2522
713.986	2506
715.165	2466
716.345	2498
717.524	2576
718.705	2516
719.884	2532
721.062	2572
722.241	2640
723.419	2596
724.597	2570
725.775	2608
726.954	2608
728.132	2644
729.31	2580
730.487	2588
731.664	2616
732.841	2660
734.017	2622
735.194	2668
736.37	2650
737.546	2618
738.722	2670
739.898	2686
741.074	2718
742.249	2716
743.424	2684
744.599	2692
745.774	2736
746.949	2688
748.123	2742
749.298	2758
750.472	2698
751.646	2808
752.819	2744
753.993	2798
755.166	2754
756.34	2784
757.511	2796
758.684	2784
759.857	2878
761.029	2852
762.202	2776
763.374	2816
764.546	2820
765.716	2826
766.888	2870
768.059	2860
769.23	2866
770.401	2880
771.571	2852
772.741	2918
773.912	2982
775.082	2856
776.251	2912
777.421	3018
778.59	2928
779.76	2980
780.928	3024
782.097	2970
783.266	3028
784.434	3004
785.602	2984
786.771	3060
787.938	3038
789.106	3008
790.274	3102
791.44	3048
792.608	3092
793.775	3054
794.941	3058
796.108	3114
797.273	3144
798.44	3136
799.606	3046
800.771	3142
801.937	3164
803.102	3168
804.268	3152
805.432	3168
806.597	3168
807.761	3170
808.926	3238
810.09	3192
811.254	3306
812.417	3276
813.582	3250
814.744	3234
815.908	3260
817.071	3268
818.234	3334
819.396	3336
820.558	3382
821.721	3346
822.883	3458
824.045	3338
825.206	3398
826.367	3350
827.529	3506
828.69	3398
829.85	3400
831.012	3446
832.172	3508
833.332	3566
834.493	3530
835.653	3478
836.812	3508
837.972	3516
839.131	3568
840.29	3492
841.449	3478
842.609	3584
843.767	3604
844.925	3616
846.083	3676
847.242	3674
848.399	3660
849.557	3628
850.714	3738
851.871	3678
853.029	3692
854.186	3650
855.342	3712
856.498	3750
857.654	3792
858.81	3756
859.966	3740
861.122	3746
862.278	3786
863.434	3848
864.589	3794
865.744	3854
866.898	3814
868.053	3826
869.207	3812
870.361	3854
871.515	3844
872.669	3912
873.822	3862
874.976	3884
876.129	3938
877.282	3974
878.435	3920
879.588	3968
880.74	3988
881.893	3986
883.045	3932
884.197	4032
885.349	3986
886.5	3992
887.652	3996
888.802	3934
889.953	3972
891.104	4030
892.254	4164
893.405	4054
894.555	4154
895.706	4118
896.854	4036
898.004	4070
899.154	4074
900.303	4096
901.453	4166
902.6	4192
903.749	4170
904.898	4144
906.047	4150
907.194	4084
908.342	4228
909.49	4100
910.638	4132
911.785	4180
912.932	4222
914.08	4238
915.225	4240
916.372	4172
917.519	4224
918.666	4312
919.811	4250
920.957	4308
922.102	4280
923.248	4248
924.394	4332
925.538	4302
926.684	4246
927.828	4388
928.973	4344
930.118	4390
931.261	4326
932.406	4314
933.549	4474
934.693	4400
935.836	4406
936.979	4360
938.122	4466
939.265	4392
940.407	4448
941.55	4500
942.692	4530
943.835	4508
944.976	4478
946.118	4468
947.259	4596
948.401	4550
949.542	4520
950.682	4554
951.824	4634
952.964	4612
954.105	4522
955.245	4592
956.385	4590
957.525	4662
958.664	4654
959.803	4630
960.944	4672
962.082	4714
963.221	4672
964.36	4676
965.498	4754
966.636	4668
967.774	4706
968.913	4748
970.051	4750
971.188	4707
972.325	4664
973.463	4752
974.6	4796
975.736	4748
976.873	4838
978.009	4796
979.146	4812
980.282	4818
981.418	4812
982.554	4826
983.689	4850
984.824	4856
985.959	4758
987.095	4812
988.23	4890
989.364	4838
990.499	4876
991.633	4922
992.767	4814
993.9	4968
995.034	4938
996.167	4858
997.301	4886
998.434	4956
999.567	4892
1000.7	4916
1001.83	4952
1002.96	5002
1004.1	4868
1005.23	4954
1006.36	4962
1007.49	5040
1008.62	4996
1009.76	4984
1010.89	5016
1012.02	5076
1013.15	5030
1014.28	5086
1015.41	5046
1016.54	5012
1017.67	5022
1018.8	4958
1019.93	5064
1021.06	5004
1022.19	4976
1023.32	5026
1024.44	5016
1025.57	5064
1026.7	5142
1027.83	5192
1028.96	5072
1030.09	5190
1031.21	5206
1032.34	5122
1033.47	5112
1034.6	5168
1035.72	5212
1036.85	5118
1037.98	5226
1039.1	5190
1040.23	5142
1041.35	5222
1042.48	5178
1043.61	5168
1044.73	5218
1045.86	5218
1046.98	5274
1048.11	5204
1049.23	5192
1050.36	5278
1051.48	5282
1052.61	5258
1053.73	5268
1054.85	5272
1055.98	5298
1057.1	5208
1058.22	5228
1059.35	5286
1060.47	5290
1061.59	5306
1062.72	5304
1063.84	5368
1064.96	5254
1066.08	5290
1067.2	5416
1068.33	5262
1069.45	5292
1070.57	5316
1071.69	5304
1072.81	5388
1073.93	5394
1075.05	5362
1076.17	5398
1077.29	5404
1078.41	5310
1079.53	5348
1080.65	5418
1081.77	5382
1082.89	5326
1084.01	5332
1085.13	5406
1086.25	5332
1087.37	5370
1088.48	5340
1089.6	5366
1090.72	5268
1091.84	5256
1092.96	5222
1094.07	5230
1095.19	5232
1096.31	5244
1097.43	5276
1098.54	5230
1099.66	5286
1100.78	5290
1101.89	5246
1103.01	5234
1104.12	5256
1105.24	5320
1106.35	5206
1107.47	5228
1108.59	5326
1109.7	5148
1110.81	5296
1111.93	5234
1113.04	5160
1114.16	5180
1115.27	5184
1116.39	5162
1117.5	5160
1118.61	5178
1119.73	5260
1120.84	5270
1121.95	5178
1123.06	5276
1124.18	5198
1125.29	5190
1126.4	5170
1127.51	5236
1128.63	5110
1129.74	5162
1130.85	5164
1131.96	5184
1133.07	5262
1134.18	5148
1135.29	5184
1136.4	5182
1137.51	5182
1138.62	5248
1139.73	5104
1140.84	5166
1141.95	5112
1143.06	5250
1144.17	5160
1145.28	5184
1146.39	5158
1147.5	5222
1148.61	5226
1149.72	5062
1150.82	5144
1151.93	5142
1153.04	5136
1154.15	5158
1155.26	5108
1156.36	5114
1157.47	5134
1158.58	5128
1159.68	5188
1160.79	5020
1161.9	5086
1163	5046
1164.11	5050
1165.22	5092
1166.32	5066
1167.43	5054
1168.53	5150
1169.64	5004
1170.74	5116
1171.85	5064
1172.95	4970
1174.06	5088
1175.16	4984
1176.26	5060
1177.37	5002
1178.47	4972
1179.58	5006
1180.68	5012
1181.78	4996
1182.88	4900
1183.99	4956
1185.09	4964
1186.19	4958
1187.3	4902
1188.4	4922
1189.5	4868
1190.6	4950
1191.7	4884
1192.8	4800
1193.9	4834
1195.01	4898
1196.11	4844.61
1197.21	4795.97
1198.31	4773.19
1199.41	4837.48
1200.51	4748.83
1201.61	4802.7
1202.71	4686.26
1203.81	4766.08
1204.91	4803.39
1206.01	4726.89
1207.11	4648.09
1208.2	4670.7
1209.3	4691.27
1210.4	4651.77
1211.5	4651.04
1212.6	4617.37
1213.7	4637.5
1214.8	4664.28
1215.89	4534.74
1216.99	4525.18
1218.09	4618.38
1219.18	4594.54
1220.28	4510.38
1221.38	4491.55
1222.48	4485.73
1223.57	4527.42
1224.67	4470.28
1225.76	4468.9
1226.86	4463.85
1227.96	4454.87
1229.05	4515.63
1230.15	4465.22
1231.24	4434.59
1232.34	4524.45
1233.43	4431.36
1234.53	4456.29
1235.62	4454.19
1236.71	4404.06
1237.81	4484.4
1238.9	4371.09
1240	4419.15
1241.09	4370.13
1242.18	4405.51
1243.28	4416.88
1244.37	4338.51
1245.46	4326.61
1246.56	4315.54
1247.65	4350.28
1248.74	4281.29
1249.83	4305.64
1250.93	4308.94
1252.02	4351.61
1253.11	4290.76
1254.2	4221.3
1255.29	4285.05
1256.38	4281.58
1257.47	4199.89
1258.56	4276.52
1259.65	4225.88
1260.74	4220.11
1261.84	4178.36
1262.92	4189.52
1264.01	4202.58
1265.1	4209.98
1266.19	4201.93
1267.28	4181.5
1268.37	4160.28
1269.46	4162.96
1270.55	4151.8
1271.64	4119.84
1272.73	4120.45
1273.82	4127.38
1274.9	4099.73
1275.99	4144.53
1277.08	4088.96
1278.17	4083.49
1279.26	4096.62
1280.34	4087.96
1281.43	4134.93
1282.52	4033.45
1283.6	4038.25
1284.69	4041.92
1285.78	4013.59
1286.86	4111.34
1287.95	4019.67
1289.03	3969.08
1290.12	3963.24
1291.21	4008.58
1292.29	4004
1293.38	4018.63
1294.46	3970.54
1295.55	3925.45
1296.63	3849.46
1297.71	3933.63
1298.8	4000.88
1299.88	3922.11
1300.97	3972.36
1302.05	3931.01
1303.13	3905.28
1304.22	3903.28
1305.3	3814.56
1306.38	3887.02
1307.34	3852
1308.43	3848
1309.52	3800
1310.61	3814
1311.7	3840
1312.78	3824
1313.87	3890
1314.96	3744
1316.05	3722
1317.13	3742
1318.22	3764
1319.3	3682
1320.39	3744
1321.48	3720
1322.56	3774
1323.65	3728
1324.73	3660
1325.82	3662
1326.9	3664
1327.99	3602
1329.07	3636
1330.16	3608
1331.24	3658
1332.33	3630
1333.41	3586
1334.5	3596
1335.58	3620
1336.66	3656
1337.75	3660
1338.83	3572
1339.91	3516
1341	3596
1342.08	3630
1343.16	3596
1344.25	3490
1345.33	3488
1346.41	3514
1347.49	3542
1348.57	3476
1349.65	3516
1350.74	3502
1351.82	3418
1352.9	3422
1353.98	3424
1355.06	3444
1356.14	3402
1357.22	3418
1358.3	3420
1359.38	3408
1360.46	3428
1361.54	3426
1362.62	3396
1363.7	3354
1364.78	3312
1365.86	3310
1366.94	3346
1368.02	3326
1369.09	3366
1370.17	3286
1371.25	3270
1372.33	3226
1373.41	3326
1374.48	3322
1375.56	3210
1376.64	3246
1377.72	3296
1378.79	3310
1379.87	3292
1380.95	3262
1382.02	3260
1383.1	3226
1384.17	3222
1385.25	3190
1386.33	3314
1387.4	3248
1388.48	3216
1389.55	3254
1390.63	3196
1391.7	3204
1392.78	3094
1393.85	3162
1394.93	3160
1396	3138
1397.07	3108
1398.15	3136
1399.22	3118
1400.3	3156
1401.37	3166
1402.44	3092
1403.52	3096
1404.59	3120
1405.66	3038
1406.73	3108
1407.81	3114
1408.88	3066
1409.95	3100
1411.02	3056
1412.09	3128
1413.17	3008
1414.24	2974
1415.31	3008
1416.38	3014
1417.45	3028
1418.52	2930
1419.59	2994
1420.66	3046
1421.73	3016
1422.8	2938
1423.87	2982
1424.94	2960
1426.01	2992
1427.08	2978
1428.15	2946
1429.22	2894
1430.29	2982
1431.35	2880
1432.42	2932
1433.49	2952
1434.56	2936
1435.63	2934
1436.7	2854
1437.76	2860
1438.83	2878
1439.9	2940
1440.96	2864
1442.03	2870
1443.1	2804
1444.17	2814
1445.23	2936
1446.3	2788
1447.36	2816
1448.43	2858
1449.49	2866
1450.56	2838
1451.63	2844
1452.69	2818
1453.76	2798
1454.82	2822
1455.89	2802
1456.95	2766
1458.01	2778
1459.08	2810
1460.14	2790
1461.21	2772
1462.27	2818
1463.34	2780
1464.4	2802
1465.46	2784
1466.52	2788
1467.59	2802
1468.65	2814
1469.71	2758
1470.77	2716
1471.84	2838
1472.9	2728
1473.96	2714
1475.02	2718
1476.08	2728
1477.15	2710
1478.21	2778
1479.27	2668
1480.33	2786
1481.39	2674
1482.45	2738
1483.51	2716
1484.57	2694
1485.63	2660
1486.69	2618
1487.75	2656
1488.81	2676
1489.87	2674
1490.93	2658
1491.99	2642
1493.05	2676
1494.1	2674
1495.16	2638
1496.22	2628
1497.28	2628
1498.34	2662
1499.4	2614
1500.45	2624
1501.51	2638
1502.57	2660
1503.63	2594
1504.68	2624
1505.74	2586
1506.8	2580
1507.85	2660
1508.91	2580
1509.97	2556
1511.02	2540
1512.08	2560
1513.13	2562
1514.19	2562
1515.24	2560
1516.3	2524
1517.35	2534
1518.41	2550
1519.46	2544
1520.52	2496
1521.57	2558
1522.63	2512
1523.68	2550
1524.73	2504
1525.79	2572
1526.84	2476
1527.9	2536
1528.95	2488
1530	2496
1531.06	2458
1532.11	2442
1533.16	2480
1534.21	2450
1535.26	2434
1536.32	2408
1537.37	2520
1538.42	2430
1539.47	2412
1540.52	2452
1541.57	2406
1542.63	2444
1543.68	2470
1544.73	2416
1545.78	2444
1546.83	2406
1547.88	2430
1548.93	2370
1549.98	2412
1551.03	2390
1552.08	2408
1553.13	2464
1554.18	2374
1555.23	2394
1556.27	2396
1557.32	2388
1558.37	2400
1559.42	2398
1560.47	2358
1561.52	2338
1562.56	2338
1563.61	2332
1564.66	2398
1565.71	2348
1566.75	2336
1567.8	2332
1568.85	2316
1569.9	2320
1570.94	2350
1571.99	2368
1573.03	2340
1574.08	2344
1575.13	2306
1576.17	2298
1577.22	2314
1578.26	2304
1579.31	2318
1580.35	2310
1581.4	2338
1582.44	2244
1583.49	2292
1584.53	2296
1585.58	2304
1586.62	2268
1587.66	2310
1588.71	2336
1589.75	2274
1590.8	2294
1591.84	2340
1592.88	2232
1593.93	2324
1594.97	2264
1596.01	2218
1597.05	2228
1598.1	2296
1599.14	2218
1600.18	2262
1601.22	2284
1602.26	2234
1603.31	2238
1604.35	2230
1605.39	2222
1606.43	2244
1607.47	2200
1608.51	2268
1609.55	2198
1610.59	2200
1611.63	2296
1612.67	2242
1613.71	2236
1614.75	2236
1615.79	2270
1616.83	2220
1617.87	2266
1618.91	2188
1619.95	2218
1620.99	2274
1622.02	2204
1623.06	2200
1624.1	2152
1625.14	2222
1626.18	2148
1627.21	2164
1628.25	2198
1629.29	2160
1630.33	2142
1631.36	2220
1632.4	2236
1633.44	2212
1634.48	2218
1635.51	2188
1636.55	2204
1637.58	2170
1638.62	2134
1639.66	2128
1640.69	2154
1641.73	2188
1642.76	2162
1643.8	2182
1644.83	2104
1645.87	2184
1646.9	2154
1647.94	2118
1648.97	2144
1650	2118
1651.04	2092
1652.07	2122
1653.11	2092
1654.14	2160
1655.17	2082
1656.21	2126
1657.24	2156
1658.27	2084
1659.31	2104
1660.34	2064
1661.37	2098
1662.4	2034
1663.43	2026
1664.47	2130
1665.5	2154
1666.53	2058
1667.56	2074
1668.59	2098
1669.62	2092
1670.66	2034
1671.69	2084
1672.72	2046
1673.75	2072
1674.78	1978
1675.81	2042
1676.84	2058
1677.87	2120
1678.9	2060
1679.93	2068
1680.96	2060
1681.98	2062
1683.01	2062
1684.04	2028
1685.07	2020
1686.1	2042
1687.13	1964
1688.16	2054
1689.19	1974
1690.21	2016
1691.24	2008
1692.27	2056
1693.3	2018
1694.32	1994
1695.35	2008
1696.38	1956
1697.4	2004
1698.43	1960
1699.46	1962
1700.48	1966
1701.51	1970
1702.54	1970
1703.56	1968
1704.59	1974
1705.61	1970
1706.64	1962
1707.66	1962
1708.69	1966
1709.71	1972
1710.74	2022
1711.76	1944
1712.79	1952
1713.81	1906
1714.83	1958
1715.86	1912
1716.88	1970
1717.91	1946
1718.93	1904
1719.95	1988
1720.98	1942
1722	1938
1723.02	1942
1724.04	1896
1725.07	1914
1726.09	1918
1727.11	1900
1728.13	1906
1729.15	1906
1730.18	1906
1731.2	1964
1732.22	1906
1733.24	1866
1734.26	1852
1735.28	1948
1736.3	1908
1737.32	1864
1738.34	1908
1739.36	1910
1740.38	1916
1741.4	1910
1742.42	1912
1743.44	1894
1744.46	1926
1745.48	1920
1746.5	1874
1747.52	1906
1748.54	1920
1749.56	1892
1750.58	1848
1751.6	1848
1752.61	1882
1753.63	1786
1754.65	1858
1755.67	1836
1756.68	1864
1757.7	1920
1758.72	1860
1759.74	1860
1760.75	1856
1761.77	1824
1762.79	1838
1763.8	1832
1764.82	1808
1765.84	1870
1766.85	1930
1767.87	1828
1768.88	1830
1769.9	1866
1770.91	1850
1771.93	1890
1772.94	1864
1773.96	1782
1774.97	1878
1775.99	1858
1777	1840
1778.02	1798
1779.03	1860
1780.04	1858
1781.06	1816
1782.07	1832
1783.09	1834
1784.1	1856
1785.11	1864
1786.13	1840
1787.14	1778
1788.15	1838
1789.16	1828
1790.18	1774
1791.19	1790
1792.2	1772
1793.21	1804
1794.22	1814
1795.23	1834
1796.25	1812
1797.26	1816
1798.27	1802
1799.28	1778
1800.29	1842
1801.3	1782
1802.31	1778
1803.32	1816
1804.33	1798
1805.34	1804
1806.35	1798
1807.36	1780
1808.37	1786
1809.38	1784
1810.39	1820
1811.4	1762
1812.41	1758
1813.42	1790
1814.43	1822
1815.43	1844
1816.44	1786
1817.45	1742
1818.46	1774
1819.47	1710
1820.47	1750
1821.48	1752
1822.49	1746
1823.49	1780
1824.5	1738
1825.51	1734
1826.52	1750
1827.52	1742
1828.53	1752
1829.54	1728
1830.54	1728
1831.55	1736
1832.55	1728
1833.56	1746
1834.56	1754
1835.57	1766
1836.57	1754
1837.58	1728
1838.58	1714
1839.59	1732
1840.59	1728
1841.6	1690
1842.6	1722
1843.61	1698
1844.61	1726
1845.61	1676
1846.62	1674
1847.62	1734
1848.62	1698
1849.63	1674
1850.63	1660
1851.63	1722
1852.64	1692
1853.64	1688
1854.64	1672
1855.64	1670
1856.64	1728
1857.65	1672
1858.65	1694
1859.65	1728
1860.65	1684
1861.65	1704
1862.65	1642
1863.65	1656
1864.66	1672
1865.66	1700
1866.66	1664
1867.66	1672
1868.66	1688
1869.66	1654
1870.66	1680
1871.66	1638
1872.66	1690
1873.66	1640
1874.66	1656
1875.65	1700
1876.65	1666
1877.65	1632
1878.65	1628
1879.65	1646
1880.65	1688
1881.65	1642
1882.64	1670
1883.64	1648
1884.64	1624
1885.64	1646
1886.63	1656
1887.63	1602
1888.63	1626
1889.63	1656
1890.62	1628
1891.62	1654
1892.62	1628
1893.61	1614
1894.61	1604
1895.6	1652
1896.6	1694
1897.6	1630
1898.59	1598
1899.59	1656
1900.58	1690
1901.58	1628
1902.57	1634
1903.57	1668
1904.56	1606
1905.56	1638
1906.55	1616
1907.54	1624
1908.54	1626
1909.53	1578
1910.53	1614
1911.52	1568
1912.51	1614
1913.51	1662
1914.5	1656
1915.49	1626
1916.49	1632
1917.48	1638
1918.47	1654
1919.46	1654
1920.46	1638
1921.45	1620
1922.44	1594
1923.43	1594
1924.42	1626
1925.41	1572
1926.41	1608
1927.4	1618
1928.39	1572
1929.38	1624
1930.37	1572
1931.36	1606
1932.35	1594
1933.34	1574
1934.33	1542
1935.32	1566
1936.31	1578
1937.3	1584
1938.29	1622
1939.28	1620
1940.27	1564
1941.26	1590
1942.24	1562
1943.23	1630
1944.22	1602
1945.21	1628
1946.2	1634
1947.19	1532
1948.17	1532
1949.16	1586
1950.15	1559
1951.14	1532
1952.13	1574
1953.11	1574
1954.1	1570
1955.09	1588
1956.07	1554
1957.06	1552
1958.05	1550
1959.03	1600
1960.02	1568
1961	1564
1961.99	1532
1962.98	1562
1963.96	1594
1964.95	1488
1965.93	1574
1966.92	1564
1967.9	1588
1968.89	1532
1969.87	1528
1970.85	1540
1971.84	1572
1972.82	1558
1973.81	1536
1974.79	1534
1975.78	1552
1976.76	1528
1977.74	1520
1978.73	1566
1979.71	1578
1980.69	1532
1981.67	1516
1982.66	1544
1983.64	1528
1984.62	1508
1985.6	1540
1986.59	1516
1987.57	1546
1988.55	1520
1989.53	1510
1990.51	1530
1991.49	1494
1992.47	1526
1993.45	1522
1994.44	1530
1995.42	1530
1996.4	1550
1997.38	1504
1998.36	1500
1999.34	1516
2000.32	1548
2001.3	1548
2002.28	1468
2003.26	1526
2004.24	1502
2005.22	1520
2006.19	1494
2007.17	1564
2008.15	1488
2009.13	1516
2010.11	1496
2011.09	1600
2012.06	1482
2013.04	1546
2014.02	1498
2015	1542
2015.98	1468
2016.95	1484
2017.93	1482
2018.91	1540
2019.88	1494
2020.86	1476
2021.84	1510
2022.81	1498
2023.79	1458
2024.77	1436
2025.74	1476
2026.72	1466
2027.69	1472
2028.67	1482
2029.65	1490
2030.62	1432
2031.6	1478
2032.57	1482
2033.55	1482
2034.52	1492
2035.5	1502
2036.47	1446
2037.44	1448
2038.42	1446
2039.39	1454
2040.36	1442
2041.34	1486
2042.31	1466
2043.29	1486
2044.26	1472
2045.23	1486
2046.2	1486
2047.18	1488
2048.15	1452
2049.12	1454
2050.09	1408
2051.07	1436
2052.04	1476
2053.01	1456
2053.98	1462
2054.95	1472
2055.93	1474
2056.9	1406
2057.87	1420
2058.84	1454
2059.81	1390
2060.78	1516
2061.75	1414
2062.72	1426
2063.69	1430
2064.66	1442
2065.63	1436
2066.6	1424
2067.57	1436
2068.54	1424
2069.51	1406
2070.48	1460
2071.45	1410
2072.42	1440
2073.38	1468
2074.35	1462
2075.32	1458
2076.29	1398
2077.26	1440
2078.23	1442
2079.19	1446
2080.16	1406
2081.13	1446
2082.1	1440
2083.06	1434
2084.03	1416
2085	1404
2085.96	1406
2086.93	1392
2087.9	1446
2088.86	1412
2089.83	1392
2090.8	1464
2091.76	1418
2092.73	1428
2093.69	1380
2094.66	1418
2095.62	1376
2096.59	1456
2097.55	1382
2098.52	1394
2099.48	1368
2100.45	1378
2101.41	1410
2102.38	1432
2103.34	1410
2104.31	1416
2105.27	1396
2106.23	1420
2107.2	1388
2108.16	1412
2109.12	1394
2110.09	1416
2111.05	1362
2112.01	1378
2112.98	1402
2113.94	1406
2114.9	1380
2115.86	1364
2116.82	1398
2117.79	1418
2118.75	1370
2119.71	1384
2120.67	1370
2121.63	1446
2122.59	1426
2123.55	1386
2124.52	1382
2125.48	1398
2126.44	1436
2127.4	1358
2128.36	1410
2129.32	1362
2130.28	1380
2131.24	1380
2132.2	1362
2133.16	1378
2134.12	1336
2135.08	1360
2136.04	1348
2136.99	1312
2137.95	1326
2138.91	1354
2139.87	1356
2140.83	1386
2141.79	1334
2142.75	1354
2143.7	1374
2144.66	1366
2145.62	1351.86
2146.58	1349.61
2147.53	1340.92
2148.49	1389.19
2149.45	1388.47
2150.41	1342.03
2151.36	1336.44
2152.32	1326.8
2153.28	1348.13
2154.23	1360.05
2155.19	1331.04
2156.14	1341.16
2157.1	1320.17
2158.06	1338.26
2159.01	1295.4
2159.97	1330.93
2160.92	1332.05
2161.88	1298.31
2162.83	1341.93
2163.79	1314.82
2164.74	1348.9
2165.7	1309.38
2166.65	1336.57
2167.61	1327.53
2168.56	1300.15
2169.51	1314.25
2170.47	1308.51
2171.42	1273.52
2172.38	1307.37
2173.33	1292.61
2174.28	1289.65
2175.24	1268.29
2176.19	1286.27
2177.14	1292.95
2178.09	1336.45
2179.05	1339.18
2180	1276.42
2180.95	1274.74
2181.9	1284.86
2182.86	1264.67
2183.81	1273.45
2184.76	1290.17
2185.71	1289.34
2186.66	1282.45
2187.61	1289.5
2188.57	1290.08
2189.52	1283.76
2190.47	1272.24
2191.42	1271.87
2192.37	1289.63
2193.32	1278.93
2194.27	1270.03
2195.22	1283.53
2196.17	1280.17
2197.12	1272.82
2198.07	1260.7
2199.02	1264.46
2199.97	1268.15
2200.92	1261.28
2201.87	1308.93
2202.82	1269.11
2203.76	1270.12
2204.71	1255.77
2205.66	1276.29
2206.61	1262.77
2207.56	1251.13
2208.51	1268.16
2209.45	1239.46
2210.4	1278.23
2211.35	1279.71
2212.3	1248.72
2213.25	1249.6
2214.19	1236.14
2215.14	1272.48
2216.09	1252.87
2217.03	1270.63
2217.98	1268.48
2218.93	1253.44
2219.87	1251.02
2220.82	1246.74
2221.77	1253.23
2222.71	1245.24
2223.66	1228.02
2224.6	1264.98
2225.55	1259.45
2226.49	1218.44
2227.44	1236.22
2228.38	1269.72
2229.33	1276.29
2230.27	1282.28
2231.22	1278.59
2232.16	1261.58
2233.11	1255.32
2234.05	1257.32
2235	1240.48
2235.94	1237
2236.88	1250.7
2237.83	1241.99
2238.77	1234.53
2239.72	1262.09
2240.66	1257.63
2241.6	1260.82
2242.07	1286
2243.02	1208
2243.97	1234
2244.92	1222
2245.87	1270
2246.81	1190
2247.76	1224
2248.71	1252
2249.65	1244
2250.6	1242
2251.55	1250
2252.49	1210
2253.44	1218
2254.39	1252
2255.33	1238
2256.28	1258
2257.22	1246
2258.17	1252
2259.12	1252
2260.06	1276
2261.01	1232
2261.95	1260
2262.9	1218
2263.84	1224
2264.78	1238
2265.73	1220
2266.67	1218
2267.62	1256
2268.56	1204
2269.51	1246
2270.45	1202
2271.39	1204
2272.34	1210
2273.28	1220
2274.22	1228
2275.17	1236
2276.11	1234
2277.05	1214
2277.99	1204
2278.94	1184
2279.88	1256
2280.82	1214
2281.76	1214
2282.71	1202
2283.65	1254
2284.59	1216
2285.53	1218
2286.47	1204
2287.41	1190
2288.35	1220
2289.3	1142
2290.24	1228
2291.18	1194
2292.12	1204
2293.06	1204
2294	1184
2294.94	1164
2295.88	1196
2296.82	1194
2297.76	1130
2298.7	1148
2299.64	1200
2300.58	1198
2301.52	1220
2302.46	1202
2303.39	1150
2304.33	1184
2305.27	1172
2306.21	1172
2307.15	1186
2308.09	1144
2309.02	1184
2309.96	1216
2310.9	1168
2311.84	1138
2312.77	1134
2313.71	1170
2314.65	1200
2315.59	1174
2316.52	1150
2317.46	1166
2318.4	1198
2319.33	1160
2320.27	1156
2321.21	1162
2322.14	1130
2323.08	1176
2324.01	1192
2324.95	1132
2325.89	1184
2326.82	1142
2327.76	1150
2328.69	1156
2329.63	1164
2330.56	1126
2331.5	1178
2332.43	1124
2333.36	1104
2334.3	1172
2335.23	1176
2336.17	1182
2337.1	1128
2338.03	1216
2338.97	1110
2339.9	1140
2340.83	1124
2341.77	1140
2342.7	1152
2343.63	1114
2344.57	1150
2345.5	1148
2346.43	1162
2347.36	1130
2348.3	1160
2349.23	1132
2350.16	1124
2351.09	1150
2352.02	1130
2352.95	1154
2353.89	1124
2354.82	1100
2355.75	1154
2356.68	1194
2357.61	1120
2358.54	1122
2359.47	1144
2360.4	1134
2361.33	1072
2362.26	1114
2363.19	1136
2364.12	1128
2365.05	1092
2365.98	1130
2366.91	1164
2367.84	1090
2368.77	1110
2369.7	1124
2370.63	1098
2371.56	1114
2372.48	1080
2373.41	1118
2374.34	1088
2375.27	1118
2376.2	1092
2377.12	1108
2378.05	1088
2378.98	1116
2379.91	1110
2380.84	1096
2381.76	1112
2382.69	1078
2383.62	1052
2384.54	1118
2385.47	1088
2386.4	1084
2387.32	1106
2388.25	1064
2389.18	1098
2390.1	1106
2391.03	1116
2391.95	1102
2392.88	1060
2393.8	1078
2394.73	1090
2395.65	1052
2396.58	1102
2397.5	1082
2398.43	1080
2399.35	1100
2400.28	1082
2401.2	1056
2402.13	1088
2403.05	1072
2403.97	1010
2404.9	1060
2405.82	1084
2406.75	1048
2407.67	1068
2408.59	1092
2409.51	1078
2410.44	1044
2411.36	1054
2412.28	1080
2413.21	1070
2414.13	1044
2415.05	1032
2415.97	1026
2416.9	1028
2417.82	1048
2418.74	1054
2419.66	1038
2420.58	1016
2421.5	1032
2422.42	1050
2423.35	1064
2424.27	1036
2425.19	1020
2426.11	1018
2427.03	1016
2427.95	1026
2428.87	1034
2429.79	1060
2430.71	1034
2431.63	1024
2432.55	1036
2433.47	1032
2434.39	996
2435.31	1042
2436.23	1000
2437.14	996
2438.06	1022
2438.98	1052
2439.9	992
2440.82	998
2441.74	980
2442.66	1012
2443.57	1014
2444.49	1020
2445.41	1000
2446.33	1024
2447.24	992
2448.16	984
2449.08	1000
2450	968
2450.91	1020
2451.83	972
2452.75	1032
2453.66	996
2454.58	966
2455.5	1020
2456.41	986
2457.33	1008
2458.24	980
2459.16	974
2460.08	990
2460.99	992
2461.91	970
2462.82	996
2463.74	974
2464.65	978
2465.57	976
2466.48	950
2467.4	984
2468.31	992
2469.22	988
2470.14	994
2471.05	972
2471.97	990
2472.88	932
2473.79	958
2474.71	1010
2475.62	1002
2476.53	954
2477.45	974
2478.36	974
2479.27	938
2480.19	968
2481.1	954
2482.01	966
2482.92	922
2483.83	950
2484.75	972
2485.66	962
2486.57	978
2487.48	946
2488.39	962
2489.3	960
2490.22	938
2491.13	966
2492.04	926
2492.95	934
2493.86	914
2494.77	894
2495.68	914
2496.59	932
2497.5	920
2498.41	916
2499.32	920
2500.23	948
2501.14	962
2502.05	900
2502.96	878
2503.87	956
2504.78	946
2505.68	922
2506.59	912
2507.5	958
2508.41	936
2509.32	934
2510.23	928
2511.14	912
2512.04	930
2512.95	926
2513.86	924
2514.77	916
2515.67	902
2516.58	874
2517.49	930
2518.39	898
2519.3	904
2520.21	934
2521.11	888
2522.02	878
2522.93	864
2523.83	902
2524.74	914
2525.65	922
2526.55	926
2527.46	896
2528.36	870
2529.27	862
2530.17	850
2531.08	902
2531.98	904
2532.89	872
2533.79	938
2534.7	874
2535.6	900
2536.51	858
2537.41	918
2538.32	854
2539.22	874
2540.12	884
2541.03	874
2541.93	846
2542.83	894
2543.74	876
2544.64	870
2545.54	854
2546.45	862
2547.35	856
2548.25	864
2549.15	826
2550.06	872
2550.96	844
2551.86	870
2552.76	900
2553.66	824
2554.56	860
2555.47	866
2556.37	852
2557.27	872
2558.17	854
2559.07	870
2559.97	880
2560.87	858
2561.77	850
2562.67	842
2563.58	858
2564.47	860
2565.38	812
2566.27	868
2567.18	824
2568.07	840
2568.97	832
2569.87	816
2570.77	842
2571.67	812
2572.57	814
2573.47	842
2574.37	830
2575.27	848
2576.17	840
2577.06	846
2577.96	818
2578.86	826
2579.76	824
2580.66	812
2581.55	788
2582.45	806
2583.35	792
2584.25	814
2585.14	812
2586.04	772
2586.94	806
2587.83	804
2588.73	838
2589.63	820
2590.52	830
2591.42	810
2592.32	854
2593.21	778
2594.11	806
2595	806
2595.9	816
2596.8	822
2597.69	790
2598.59	824
2599.48	790
2600.38	790
2601.27	766
2602.17	778
2603.06	766
2603.95	798
2604.85	778
2605.74	790
2606.64	774
2607.53	800
2608.42	774
2609.32	798
2610.21	794
2611.1	800
2612	772
2612.89	816
2613.78	752
2614.68	794
2615.57	752
2616.46	782
2617.36	766
2618.25	766
2619.14	764
2620.03	780
2620.92	758
2621.82	774
2622.71	734
2623.6	816
2624.49	770
2625.38	756
2626.27	762
2627.16	746
2628.05	750
2628.95	788
2629.84	776
2630.73	730
2631.62	720
2632.51	760
2633.4	756
2634.29	734
2635.18	762
2636.07	756
2636.96	770
2637.85	734
2638.74	730
2639.62	728
2640.51	708
2641.4	720
2642.29	740
2643.18	750
2644.07	728
2644.96	742
2645.85	736
2646.73	752
2647.62	726
2648.51	724
2649.4	710
2650.28	726
2651.17	746
2652.06	722
2652.95	734
2653.83	712
2654.72	690
2655.61	698
2656.5	722
2657.38	718
2658.27	682
2659.15	720
2660.04	712
2660.93	706
2661.81	734
2662.7	704
2663.58	732
2664.47	696
2665.35	702
2666.24	724
2667.13	734
2668.01	718
2668.9	702
2669.78	734
2670.66	710
2671.55	682
2672.43	686
2673.32	700
2674.2	702
2675.09	700
2675.97	690
2676.85	688
2677.74	722
2678.62	692
2679.5	682
2680.39	698
2681.27	706
2682.15	688
2683.04	700
2683.92	690
2684.8	702
2685.68	678
2686.57	692
2687.45	676
2688.33	714
2689.21	714
2690.09	682
2690.98	674
2691.86	682
2692.74	658
2693.62	648
2694.5	700
2695.38	688
2696.26	704
2697.15	714
2698.03	678
2698.91	670
2699.79	700
2700.67	674
2701.55	630
2702.43	678
2703.31	678
2704.19	654
2705.07	658
2705.95	658
2706.83	646
2707.7	664
2708.58	662
2709.46	658
2710.34	652
2711.22	638
2712.1	658
2712.98	678
2713.86	644
2714.73	622
2715.61	654
2716.49	652
2717.37	652
2718.25	664
2719.12	630
2720	686
2720.88	630
2721.76	646
2722.63	688
2723.51	652
2724.39	622
2725.26	660
2726.14	672
2727.02	640
2727.89	618
2728.77	628
2729.64	614
2730.52	616
2731.4	648
2732.27	626
2733.15	604
2734.02	646
2734.9	610
2735.77	636
2736.65	632
2737.52	646
2738.4	628
2739.27	616
2740.15	638
2741.02	628
2741.9	600
2742.77	628
2743.64	574
2744.52	628
2745.39	612
2746.27	620
2747.14	616
2748.01	598
2748.89	622
2749.76	612
2750.63	606
2751.51	592
2752.38	616
2753.25	602
2754.12	594
2755	574
2755.87	622
2756.74	594
2757.61	586
2758.48	610
2759.35	604
2760.23	602
2761.1	612
2761.97	578
2762.84	602
2763.71	604
2764.58	606
2765.45	576
2766.32	586
2767.19	586
2768.07	562
2768.94	578
2769.81	606
2770.68	594
2771.55	590
2772.42	548
2773.29	602
2774.16	578
2775.02	598
2775.89	578
2776.76	586
2777.63	570
2778.5	576
2779.37	564
2780.24	596
2781.11	584
2781.98	574
2782.84	584
2783.71	572
2784.58	584
2785.45	604
2786.32	548
2787.18	578
2788.05	572
2788.92	576
2789.79	564
2790.65	572
2791.52	564
2792.39	538
2793.25	542
2794.12	552
2794.99	574
2795.85	552
2796.72	550
2797.59	546
2798.45	542
2799.32	554
2800.18	582
2801.05	556
2801.92	564
2802.78	542
2803.65	546
2804.51	550
2805.38	516
2806.24	562
2807.11	544
2807.97	544
2808.84	516
2809.7	518
2810.57	560
2811.43	542
2812.29	560
2813.16	526
2814.02	520
2814.88	570
2815.75	554
2816.61	536
2817.47	534
2818.34	534
2819.2	550
2820.06	520
2820.93	544
2821.79	560
2822.65	538
2823.51	578
2824.38	540
2825.24	542
2826.1	520
2826.96	512
2827.82	522
2828.69	566
2829.55	520
2830.41	504
2831.27	508
2832.13	538
2832.99	534
2833.85	500
2834.71	508
2835.57	538
2836.44	494
2837.3	518
2838.16	492
2839.02	514
2839.88	504
2840.74	518
2841.6	496
2842.46	480
2843.32	514
2844.18	514
2845.03	512
2845.89	506
2846.75	490
2847.61	510
2848.47	504
2849.33	510
2850.19	498
2851.05	504
2851.9	508
2852.76	502
2853.62	498
2854.48	490
2855.34	540
2856.19	502
2857.05	496
2857.91	480
2858.77	514
2859.62	498
2860.48	474
2861.34	482
2862.19	500
2863.05	482
2863.91	522
2864.76	464
2865.62	500
2866.48	482
2867.33	486
2868.19	476
2869.04	482
2869.9	508
2870.76	498
2871.61	486
2872.47	472
2873.32	468
2874.18	494
2875.03	474
2875.89	498
2876.74	454
2877.6	474
2878.45	484
2879.31	464
2880.16	496
2881.01	476
2881.87	436
2882.72	470
2883.58	478
2884.43	494
2885.28	468
2886.14	466
2886.99	496
2887.84	482
2888.7	474
2889.55	432
2890.4	470
2891.25	486
2892.11	466
2892.96	464
2893.81	446
2894.66	470
2895.52	476
2896.37	472
2897.22	452
2898.07	480
2898.92	468
2899.77	446
2900.62	466
2901.48	484
2902.33	456
2903.18	436
2904.03	452
2904.88	444
2905.73	446
2906.58	442
2907.43	466
2908.28	444
2909.13	428
2909.98	460
2910.83	438
2911.68	434
2912.53	446
2913.38	436
2914.23	472
2915.08	450
2915.93	462
2916.78	428
2917.63	434
2918.47	432
2919.32	452
2920.17	450
2921.02	452
2921.87	428
2922.72	434
2923.56	464
2924.41	404
2925.26	428
2926.11	418
2926.95	432
2927.8	446
2928.65	440
2929.5	440
2930.34	442
2931.19	456
2932.04	432
2932.88	436
2933.73	426
2934.58	432
2935.42	426
2936.27	444
2937.11	430
2937.96	424
2938.81	464
2939.65	410
2940.5	418
2941.34	414
2942.19	432
2943.03	446
2943.88	430
2944.72	442
2945.57	438
2946.41	424
2947.26	434
2948.1	432
2948.95	396
2949.79	414
2950.64	438
2951.48	404
2952.32	430
2953.17	422
2954.01	418
2954.85	440
2955.7	430
2956.54	404
2957.38	402
2958.23	422
2959.07	434
2959.91	432
2960.75	428
2961.6	394
2962.44	432
2963.28	412
2964.12	434
2964.97	416
2965.81	404
2966.65	406
2967.49	406
2968.33	422
2969.17	404
2970.02	414
2970.86	406
2971.7	404
2972.54	440
2973.38	418
2974.22	402
2975.06	420
2975.9	410
2976.74	400
2977.58	388
2978.42	402
2979.26	406
2980.1	394
2980.94	394
2981.78	394
2982.62	402
2983.46	414
2984.3	406
2985.14	406
2985.98	400
2986.82	380
2987.66	390
2988.49	378
2989.33	394
2990.17	396
2991.01	404
2991.85	382
2992.69	390
2993.52	426
2994.36	392
2995.2	394
2996.04	400
2996.87	416
2997.71	406
2998.55	392
2999.39	368
