#Acq. time (s)=	10
#Accumulations=	1
#Range (cm-¹)=	100...3000
#Windows=	3
#Autofocus=	Off
#AutoExposure=	Off
#Spike filter=	Off
#Delay time (s)=	0
#Binning=	1
#Readout mode=	Signal
#DeNoise=	Off
#ICS correction=	Off
#Dark correction=	Off
#Inst. Process=	Off
#Instrument=	LabRAM HR Evol
#Detector=	Syncerity OE
#Objective=	x100_VIS
#Grating=	600 (500nm)
#ND Filter=	5%
#Laser=	633nm_Edge
#Hole=	74.97
#Range=	Visible
#Project=	Omar
#Sample=	26-06-23
#Site=	1
#Title=	Organic
#Remark=	
#Date=	26.06.2023 15:52
#Acquired=	26.06.2023 15:52:17
101.018	2394
102.302	2388
103.586	2392
104.869	2376
106.152	2342
107.435	2422
108.717	2422
109.999	2402
111.281	2310
112.563	2376
113.845	2338
115.126	2364
116.407	2380
117.688	2366
118.969	2362
120.249	2354
121.53	2376
122.81	2380
124.09	2356
125.369	2336
126.649	2364
127.928	2380
129.207	2380
130.486	2378
131.765	2354
133.043	2388
134.321	2428
135.599	2382
136.877	2398
138.155	2338
139.432	2428
140.708	2400
141.985	2426
143.261	2426
144.538	2358
145.814	2420
147.09	2366
148.366	2400
149.641	2388
150.916	2328
152.191	2422
153.466	2368
154.741	2372
156.016	2426
157.289	2442
158.563	2440
159.837	2316
161.111	2410
162.385	2334
163.657	2380
164.93	2336
166.203	2444
167.476	2408
168.747	2430
170.019	2332
171.291	2386
172.562	2404
173.834	2422
175.105	2390
176.377	2326
177.646	2380
178.917	2396
180.188	2342
181.457	2398
182.727	2344
183.996	2366
185.266	2358
186.536	2324
187.804	2372
189.073	2388
190.342	2396
191.609	2388
192.878	2434
194.145	2374
195.413	2372
196.681	2392
197.948	2422
199.215	2440
200.481	2344
201.749	2384
203.014	2374
204.281	2354
205.546	2432
206.813	2388
208.077	2398
209.343	2432
210.608	2444
211.873	2372
213.137	2418
214.402	2368
215.666	2382
216.93	2364
218.194	2460
219.458	2380
220.721	2396
221.983	2412
223.247	2450
224.509	2426
225.772	2432
227.034	2484
228.295	2450
229.558	2420
230.819	2456
232.081	2432
233.342	2392
234.602	2438
235.864	2404
237.124	2386
238.384	2440
239.645	2450
240.904	2402
242.164	2500
243.423	2430
244.683	2418
245.941	2440
247.2	2500
248.46	2420
249.717	2436
250.975	2402
252.233	2412
253.492	2406
254.749	2492
256.006	2436
257.263	2446
258.519	2430
259.777	2428
261.033	2414
262.289	2454
263.545	2458
264.8	2386
266.057	2468
267.312	2450
268.567	2414
269.822	2436
271.076	2390
272.331	2450
273.585	2316
274.839	2410
276.094	2452
277.347	2428
278.601	2430
279.854	2382
281.107	2406
282.359	2454
283.612	2408
284.864	2420
286.116	2436
287.368	2430
288.62	2442
289.871	2458
291.123	2406
292.374	2426
293.625	2484
294.875	2524
296.126	2516
297.376	2416
298.626	2476
299.876	2420
301.126	2454
302.375	2472
303.625	2450
304.874	2480
306.122	2454
307.371	2412
308.62	2472
309.866	2480
311.114	2484
312.362	2480
313.61	2464
314.857	2474
316.105	2454
317.352	2498
318.599	2478
319.844	2504
321.09	2536
322.337	2496
323.583	2498
324.828	2512
326.073	2524
327.318	2462
328.563	2486
329.808	2490
331.053	2470
332.296	2528
333.541	2422
334.785	2458
336.029	2496
337.272	2480
338.515	2484
339.759	2540
341.001	2550
342.244	2480
343.486	2512
344.728	2556
345.97	2496
347.212	2536
348.453	2500
349.695	2550
350.936	2524
352.176	2554
353.418	2508
354.659	2544
355.898	2568
357.139	2568
358.378	2536
359.618	2560
360.858	2504
362.097	2570
363.336	2496
364.574	2534
365.813	2542
367.051	2532
368.29	2482
369.527	2534
370.766	2560
372.002	2544
373.241	2560
374.477	2498
375.715	2550
376.951	2508
378.188	2602
379.424	2546
380.66	2594
381.896	2532
383.132	2590
384.367	2530
385.603	2548
386.838	2552
388.072	2570
389.307	2602
390.541	2556
391.776	2584
393.01	2570
394.243	2604
395.477	2520
396.71	2552
397.943	2570
399.177	2594
400.409	2598
401.641	2520
402.875	2636
404.106	2594
405.338	2640
406.57	2602
407.802	2594
409.032	2622
410.263	2672
411.495	2642
412.725	2594
413.955	2646
415.185	2674
416.417	2720
417.646	2686
418.875	2726
420.104	2700
421.335	2632
422.564	2732
423.792	2678
425.02	2700
426.249	2708
427.477	2762
428.706	2730
429.933	2730
431.161	2744
432.388	2752
433.615	2782
434.841	2704
436.068	2694
437.294	2788
438.522	2720
439.748	2780
440.974	2772
442.199	2806
443.425	2744
444.65	2778
445.875	2774
447.1	2778
448.324	2792
449.549	2698
450.773	2732
451.997	2726
453.221	2760
454.445	2788
455.668	2800
456.891	2800
458.114	2774
459.337	2768
460.56	2792
461.782	2760
463.005	2762
464.227	2748
465.447	2812
466.669	2756
467.89	2826
469.112	2906
470.333	2822
471.554	2888
472.774	2846
473.995	2876
475.214	2832
476.434	2848
477.654	2872
478.874	2884
480.093	2870
481.312	2880
482.53	2912
483.749	2888
484.968	2894
486.186	2918
487.405	2900
488.622	2870
489.84	2938
491.057	2928
492.275	2886
493.491	2908
494.708	2928
495.925	2934
497.141	2980
498.357	2974
499.574	2968
500.789	2990
502.005	3014
503.221	3006
504.435	3000
505.65	3000
506.866	2998
508.079	2990
509.294	3032
510.509	3052
511.722	3022
512.936	3044
514.149	3034
515.363	2994
516.577	3062
517.789	2988
519.002	2978
520.214	3048
521.427	3034
522.638	3064
523.851	3096
525.062	3084
526.274	3120
527.485	3098
528.697	3032
529.907	3088
531.118	3122
532.328	3166
533.539	3154
534.748	3132
535.959	3110
537.168	3110
538.379	3126
539.587	3102
540.796	3092
542.005	3100
543.214	3120
544.423	3046
545.631	3140
546.838	3114
548.047	3146
549.254	3192
550.461	3110
551.669	3230
552.876	3200
554.082	3214
555.29	3200
556.496	3230
557.701	3252
558.909	3246
560.114	3310
561.319	3206
562.524	3224
563.731	3296
564.935	3294
566.14	3360
567.344	3330
568.549	3268
569.753	3380
570.957	3304
572.161	3390
573.364	3272
574.568	3288
575.771	3382
576.974	3328
578.177	3408
579.379	3410
580.581	3416
581.785	3478
582.987	3480
584.188	3374
585.39	3422
586.591	3492
587.792	3440
588.993	3442
590.193	3522
591.394	3568
592.594	3498
593.796	3652
594.996	3530
596.195	3546
597.395	3554
598.594	3530
599.793	3574
600.992	3616
602.191	3636
603.39	3684
604.588	3642
605.786	3696
606.984	3636
608.181	3668
609.378	3698
610.576	3722
611.773	3800
612.97	3708
614.167	3806
615.364	3774
616.56	3800
617.757	3798
618.953	3838
620.149	3896
621.343	3884
622.539	3942
623.734	4008
624.929	3870
626.124	3948
627.319	3944
628.512	4066
629.707	4024
630.901	3922
632.095	4092
633.289	4036
634.481	3984
635.675	4082
636.868	4160
638.061	4108
639.253	4136
640.446	4238
641.638	4212
642.831	4144
644.021	4226
645.213	4214
646.405	4216
647.595	4204
648.787	4336
649.978	4316
651.168	4376
652.359	4360
653.549	4386
654.738	4346
655.929	4364
657.117	4474
658.307	4452
659.497	4352
660.685	4344
661.875	4476
663.063	4504
664.252	4450
665.439	4540
666.628	4566
667.816	4480
669.003	4444
670.191	4520
671.378	4586
672.565	4570
673.751	4580
674.939	4614
676.124	4684
677.311	4612
678.497	4732
679.682	4672
680.868	4754
682.053	4642
683.239	4786
684.424	4766
685.609	4926
686.793	4860
687.977	4802
689.162	4804
690.346	4954
691.529	4944
692.714	4906
693.897	4906
695.081	5028
696.264	4942
697.446	5026
698.63	5008
699.812	5002
700.993	5086
702.175	5040
703.358	5128
704.539	5154
705.72	5222
706.901	5232
708.083	5178
709.264	5256
710.444	5296
711.625	5294
712.806	5396
713.986	5338
715.165	5288
716.345	5344
717.524	5414
718.705	5474
719.884	5406
721.062	5480
722.241	5530
723.419	5520
724.597	5576
725.775	5618
726.954	5646
728.132	5670
729.31	5716
730.487	5634
731.664	5716
732.841	5754
734.017	5788
735.194	5888
736.37	5806
737.546	5786
738.722	5814
739.898	5906
741.074	5906
742.249	5996
743.424	5988
744.599	5950
745.774	6046
746.949	6006
748.123	6172
749.298	6078
750.472	6014
751.646	6120
752.819	6208
753.993	6228
755.166	6250
756.34	6296
757.511	6314
758.684	6286
759.857	6266
761.029	6318
762.202	6334
763.374	6394
764.546	6460
765.716	6448
766.888	6432
768.059	6484
769.23	6538
770.401	6562
771.571	6554
772.741	6582
773.912	6660
775.082	6770
776.251	6664
777.421	6698
778.59	6708
779.76	6762
780.928	6756
782.097	6734
783.266	6878
784.434	6910
785.602	6880
786.771	6936
787.938	7026
789.106	6886
790.274	6978
791.44	7046
792.608	7050
793.775	7126
794.941	7140
796.108	7242
797.273	7280
798.44	7258
799.606	7294
800.771	7312
801.937	7306
803.102	7406
804.268	7396
805.432	7488
806.597	7512
807.761	7500
808.926	7498
810.09	7506
811.254	7650
812.417	7744
813.582	7640
814.744	7698
815.908	7924
817.071	7808
818.234	7822
819.396	7888
820.558	7814
821.721	7896
822.883	7984
824.045	7940
825.206	8160
826.367	7988
827.529	8086
828.69	8262
829.85	8246
831.012	8270
832.172	8250
833.332	8268
834.493	8284
835.653	8308
836.812	8350
837.972	8560
839.131	8484
840.29	8472
841.449	8626
842.609	8574
843.767	8602
844.925	8610
846.083	8606
847.242	8740
848.399	8742
849.557	8860
850.714	8818
851.871	8856
853.029	8884
854.186	8954
855.342	9000
856.498	8956
857.654	8962
858.81	9160
859.966	9098
861.122	9138
862.278	9204
863.434	9168
864.589	9220
865.744	9280
866.898	9268
868.053	9282
869.207	9324
870.361	9356
871.515	9358
872.669	9362
873.822	9492
874.976	9548
876.129	9622
877.282	9544
878.435	9582
879.588	9670
880.74	9564
881.893	9646
883.045	9592
884.197	9720
885.349	9722
886.5	9782
887.652	9692
888.802	9710
889.953	9810
891.104	9734
892.254	9872
893.405	9852
894.555	9834
895.706	9918
896.854	9964
898.004	9948
899.154	9904
900.303	10114
901.453	10036
902.6	10062
903.749	10098
904.898	10098
906.047	10090
907.194	10092
908.342	10160
909.49	10094
910.638	10216
911.785	10220
912.932	10144
914.08	10216
915.225	10406
916.372	10266
917.519	10352
918.666	10386
919.811	10532
920.957	10442
922.102	10502
923.248	10552
924.394	10516
925.538	10598
926.684	10560
927.828	10634
928.973	10670
930.118	10594
931.261	10660
932.406	10684
933.549	10872
934.693	10748
935.836	10942
936.979	10804
938.122	10760
939.265	11112
940.407	10936
941.55	11022
942.692	11034
943.835	11128
944.976	11024
946.118	11244
947.259	11206
948.401	11182
949.542	11144
950.682	11180
951.824	11130
952.964	11214
954.105	11366
955.245	11338
956.385	11318
957.525	11514
958.664	11364
959.803	11392
960.944	11410
962.082	11454
963.221	11450
964.36	11618
965.498	11578
966.636	11614
967.774	11502
968.913	11486
970.051	11622
971.188	11609
972.325	11596
973.463	11676
974.6	11504
975.736	11718
976.873	11662
978.009	11738
979.146	11772
980.282	11640
981.418	11818
982.554	11684
983.689	11822
984.824	11800
985.959	11670
987.095	11792
988.23	11844
989.364	11880
990.499	11936
991.633	11826
992.767	11982
993.9	11956
995.034	11722
996.167	11898
997.301	11958
998.434	11944
999.567	12040
1000.7	11900
1001.83	11902
1002.96	12078
1004.1	12094
1005.23	11954
1006.36	11894
1007.49	11992
1008.62	12042
1009.76	12190
1010.89	12050
1012.02	12008
1013.15	12076
1014.28	12128
1015.41	12016
1016.54	12288
1017.67	12232
1018.8	12222
1019.93	12384
1021.06	12140
1022.19	12238
1023.32	12110
1024.44	12308
1025.57	12272
1026.7	12272
1027.83	12378
1028.96	12350
1030.09	12314
1031.21	12266
1032.34	12404
1033.47	12400
1034.6	12476
1035.72	12428
1036.85	12570
1037.98	12494
1039.1	12450
1040.23	12484
1041.35	12424
1042.48	12562
1043.61	12454
1044.73	12460
1045.86	12632
1046.98	12472
1048.11	12588
1049.23	12652
1050.36	12600
1051.48	12512
1052.61	12550
1053.73	12666
1054.85	12782
1055.98	12766
1057.1	12690
1058.22	12594
1059.35	12522
1060.47	12706
1061.59	12672
1062.72	12702
1063.84	12676
1064.96	12650
1066.08	12478
1067.2	12436
1068.33	12596
1069.45	12606
1070.57	12588
1071.69	12684
1072.81	12578
1073.93	12594
1075.05	12550
1076.17	12432
1077.29	12582
1078.41	12642
1079.53	12396
1080.65	12464
1081.77	12496
1082.89	12450
1084.01	12428
1085.13	12526
1086.25	12440
1087.37	12534
1088.48	12526
1089.6	12506
1090.72	12436
1091.84	12646
1092.96	12374
1094.07	12378
1095.19	12182
1096.31	12404
1097.43	12270
1098.54	12172
1099.66	12188
1100.78	12332
1101.89	12166
1103.01	12282
1104.12	12188
1105.24	12182
1106.35	12210
1107.47	12216
1108.59	12154
1109.7	12196
1110.81	12094
1111.93	12140
1113.04	12064
1114.16	12042
1115.27	12194
1116.39	12106
1117.5	11874
1118.61	11974
1119.73	11950
1120.84	12014
1121.95	12026
1123.06	11954
1124.18	11866
1125.29	12132
1126.4	12060
1127.51	12010
1128.63	11888
1129.74	11966
1130.85	11846
1131.96	11924
1133.07	11936
1134.18	12060
1135.29	11878
1136.4	11864
1137.51	11842
1138.62	12066
1139.73	11840
1140.84	11730
1141.95	11806
1143.06	11756
1144.17	11762
1145.28	11716
1146.39	11748
1147.5	11758
1148.61	11792
1149.72	11776
1150.82	11758
1151.93	11604
1153.04	11806
1154.15	11634
1155.26	11708
1156.36	11582
1157.47	11624
1158.58	11778
1159.68	11708
1160.79	11502
1161.9	11688
1163	11514
1164.11	11572
1165.22	11580
1166.32	11566
1167.43	11506
1168.53	11510
1169.64	11534
1170.74	11388
1171.85	11278
1172.95	11448
1174.06	11464
1175.16	11380
1176.26	11448
1177.37	11294
1178.47	11222
1179.58	11242
1180.68	11148
1181.78	11174
1182.88	11176
1183.99	11108
1185.09	11010
1186.19	10996
1187.3	11048
1188.4	10884
1189.5	11016
1190.6	10840
1191.7	10836
1192.8	10864
1193.9	10840
1195.01	10794
1196.11	10807.5
1197.21	10698.5
1198.31	10729.6
1199.41	10628.2
1200.51	10631.4
1201.61	10647.8
1202.71	10546.7
1203.81	10513.6
1204.91	10427.1
1206.01	10502.5
1207.11	10477.4
1208.2	10475.4
1209.3	10385.2
1210.4	10381.1
1211.5	10296.4
1212.6	10204.1
1213.7	10228
1214.8	10163.7
1215.89	10160.7
1216.99	10135.8
1218.09	10123.2
1219.18	10243
1220.28	10119.9
1221.38	9990.6
1222.48	10017.1
1223.57	9959.72
1224.67	9939.79
1225.76	9969.65
1226.86	9940.62
1227.96	9893.47
1229.05	9832.92
1230.15	9904.94
1231.24	9784.68
1232.34	9859.16
1233.43	9772.28
1234.53	9717.55
1235.62	9624.29
1236.71	9757.97
1237.81	9701.44
1238.9	9642.93
1240	9666.31
1241.09	9586.6
1242.18	9592.89
1243.28	9500.04
1244.37	9483.35
1245.46	9416.97
1246.56	9520.26
1247.65	9470.56
1248.74	9469.29
1249.83	9432.46
1250.93	9425.98
1252.02	9438.77
1253.11	9336.14
1254.2	9302.96
1255.29	9354.53
1256.38	9270.91
1257.47	9290.44
1258.56	9231.8
1259.65	9250.39
1260.74	9182.62
1261.84	9258.78
1262.92	9175.05
1264.01	9181.39
1265.1	9155.47
1266.19	9159.14
1267.28	9135.2
1268.37	9111.71
1269.46	9054.92
1270.55	9063.24
1271.64	9029.78
1272.73	8943.62
1273.82	8892.18
1274.9	8879.12
1275.99	8935.64
1277.08	8920.45
1278.17	8903.34
1279.26	8869.07
1280.34	8878.18
1281.43	8788.23
1282.52	8787.71
1283.6	8707.93
1284.69	8736.75
1285.78	8736.79
1286.86	8740.13
1287.95	8651.67
1289.03	8645.63
1290.12	8624.57
1291.21	8603
1292.29	8527.25
1293.38	8505.18
1294.46	8521.66
1295.55	8590.83
1296.63	8502.01
1297.71	8438.98
1298.8	8517.62
1299.88	8434.39
1300.97	8324.75
1302.05	8421.29
1303.13	8376.25
1304.22	8383.35
1305.3	8290.73
1306.38	8346.14
1307.34	8258
1308.43	8194
1309.52	8268
1310.61	8202
1311.7	8182
1312.78	8062
1313.87	8086
1314.96	8070
1316.05	8194
1317.13	8028
1318.22	8102
1319.3	8038
1320.39	7840
1321.48	7892
1322.56	7872
1323.65	7956
1324.73	7754
1325.82	7728
1326.9	7744
1327.99	7708
1329.07	7744
1330.16	7632
1331.24	7778
1332.33	7720
1333.41	7616
1334.5	7652
1335.58	7570
1336.66	7626
1337.75	7500
1338.83	7408
1339.91	7488
1341	7414
1342.08	7436
1343.16	7304
1344.25	7452
1345.33	7402
1346.41	7290
1347.49	7316
1348.57	7262
1349.65	7302
1350.74	7204
1351.82	7294
1352.9	7138
1353.98	7218
1355.06	7198
1356.14	7056
1357.22	7030
1358.3	7076
1359.38	6964
1360.46	7114
1361.54	7090
1362.62	6948
1363.7	7082
1364.78	7040
1365.86	6934
1366.94	6818
1368.02	6922
1369.09	6872
1370.17	6812
1371.25	6880
1372.33	6876
1373.41	6728
1374.48	6750
1375.56	6726
1376.64	6770
1377.72	6740
1378.79	6672
1379.87	6762
1380.95	6674
1382.02	6676
1383.1	6514
1384.17	6608
1385.25	6600
1386.33	6640
1387.4	6722
1388.48	6594
1389.55	6440
1390.63	6504
1391.7	6554
1392.78	6478
1393.85	6526
1394.93	6380
1396	6350
1397.07	6434
1398.15	6396
1399.22	6468
1400.3	6416
1401.37	6374
1402.44	6258
1403.52	6222
1404.59	6214
1405.66	6190
1406.73	6340
1407.81	6198
1408.88	6186
1409.95	6250
1411.02	6160
1412.09	6190
1413.17	6226
1414.24	6178
1415.31	6148
1416.38	6122
1417.45	6036
1418.52	6094
1419.59	6134
1420.66	6108
1421.73	5970
1422.8	5982
1423.87	5912
1424.94	5994
1426.01	5996
1427.08	5966
1428.15	5898
1429.22	5824
1430.29	5848
1431.35	5934
1432.42	5924
1433.49	5848
1434.56	5858
1435.63	5858
1436.7	5834
1437.76	5788
1438.83	5850
1439.9	5828
1440.96	5804
1442.03	5702
1443.1	5740
1444.17	5626
1445.23	5792
1446.3	5722
1447.36	5680
1448.43	5670
1449.49	5638
1450.56	5656
1451.63	5622
1452.69	5594
1453.76	5618
1454.82	5714
1455.89	5642
1456.95	5566
1458.01	5578
1459.08	5536
1460.14	5506
1461.21	5554
1462.27	5496
1463.34	5514
1464.4	5538
1465.46	5458
1466.52	5456
1467.59	5444
1468.65	5482
1469.71	5446
1470.77	5378
1471.84	5400
1472.9	5442
1473.96	5358
1475.02	5354
1476.08	5360
1477.15	5358
1478.21	5294
1479.27	5292
1480.33	5410
1481.39	5364
1482.45	5380
1483.51	5406
1484.57	5288
1485.63	5218
1486.69	5274
1487.75	5274
1488.81	5192
1489.87	5272
1490.93	5272
1491.99	5160
1493.05	5200
1494.1	5208
1495.16	5168
1496.22	5212
1497.28	5198
1498.34	5260
1499.4	5066
1500.45	5172
1501.51	5114
1502.57	5134
1503.63	5108
1504.68	5004
1505.74	5040
1506.8	5180
1507.85	5138
1508.91	5004
1509.97	5002
1511.02	5066
1512.08	5008
1513.13	5062
1514.19	4926
1515.24	5036
1516.3	5008
1517.35	4868
1518.41	4858
1519.46	4868
1520.52	4844
1521.57	4894
1522.63	4972
1523.68	4808
1524.73	4872
1525.79	4804
1526.84	4798
1527.9	4792
1528.95	4852
1530	4862
1531.06	4758
1532.11	4822
1533.16	4742
1534.21	4788
1535.26	4662
1536.32	4812
1537.37	4730
1538.42	4702
1539.47	4782
1540.52	4668
1541.57	4706
1542.63	4706
1543.68	4740
1544.73	4674
1545.78	4662
1546.83	4616
1547.88	4648
1548.93	4678
1549.98	4574
1551.03	4546
1552.08	4578
1553.13	4572
1554.18	4582
1555.23	4560
1556.27	4532
1557.32	4600
1558.37	4660
1559.42	4622
1560.47	4528
1561.52	4582
1562.56	4494
1563.61	4580
1564.66	4592
1565.71	4526
1566.75	4490
1567.8	4506
1568.85	4480
1569.9	4448
1570.94	4458
1571.99	4404
1573.03	4462
1574.08	4434
1575.13	4422
1576.17	4458
1577.22	4512
1578.26	4428
1579.31	4416
1580.35	4420
1581.4	4284
1582.44	4448
1583.49	4408
1584.53	4368
1585.58	4368
1586.62	4362
1587.66	4394
1588.71	4366
1589.75	4376
1590.8	4304
1591.84	4394
1592.88	4300
1593.93	4346
1594.97	4308
1596.01	4290
1597.05	4404
1598.1	4332
1599.14	4322
1600.18	4272
1601.22	4302
1602.26	4262
1603.31	4186
1604.35	4356
1605.39	4246
1606.43	4284
1607.47	4244
1608.51	4238
1609.55	4250
1610.59	4292
1611.63	4206
1612.67	4244
1613.71	4210
1614.75	4250
1615.79	4198
1616.83	4332
1617.87	4260
1618.91	4146
1619.95	4176
1620.99	4208
1622.02	4214
1623.06	4170
1624.1	4214
1625.14	4238
1626.18	4198
1627.21	4224
1628.25	4174
1629.29	4198
1630.33	4246
1631.36	4150
1632.4	4136
1633.44	4232
1634.48	4148
1635.51	4094
1636.55	4070
1637.58	4214
1638.62	4152
1639.66	4128
1640.69	4156
1641.73	4146
1642.76	4136
1643.8	4114
1644.83	4088
1645.87	4036
1646.9	4098
1647.94	4052
1648.97	4062
1650	4092
1651.04	4056
1652.07	4104
1653.11	4050
1654.14	4174
1655.17	4064
1656.21	4016
1657.24	4008
1658.27	4012
1659.31	3968
1660.34	3968
1661.37	3978
1662.4	3960
1663.43	3940
1664.47	3932
1665.5	3946
1666.53	3932
1667.56	4010
1668.59	3954
1669.62	3914
1670.66	3900
1671.69	3932
1672.72	3914
1673.75	3924
1674.78	3892
1675.81	3898
1676.84	3914
1677.87	3910
1678.9	3886
1679.93	3856
1680.96	3798
1681.98	3824
1683.01	3872
1684.04	3808
1685.07	3814
1686.1	3792
1687.13	3850
1688.16	3804
1689.19	3864
1690.21	3874
1691.24	3828
1692.27	3772
1693.3	3796
1694.32	3766
1695.35	3786
1696.38	3808
1697.4	3780
1698.43	3850
1699.46	3760
1700.48	3778
1701.51	3734
1702.54	3762
1703.56	3734
1704.59	3780
1705.61	3808
1706.64	3696
1707.66	3728
1708.69	3720
1709.71	3684
1710.74	3640
1711.76	3700
1712.79	3720
1713.81	3674
1714.83	3666
1715.86	3682
1716.88	3618
1717.91	3638
1718.93	3640
1719.95	3708
1720.98	3700
1722	3564
1723.02	3700
1724.04	3714
1725.07	3626
1726.09	3712
1727.11	3576
1728.13	3650
1729.15	3590
1730.18	3570
1731.2	3642
1732.22	3560
1733.24	3608
1734.26	3626
1735.28	3600
1736.3	3678
1737.32	3582
1738.34	3588
1739.36	3522
1740.38	3576
1741.4	3578
1742.42	3620
1743.44	3556
1744.46	3600
1745.48	3576
1746.5	3562
1747.52	3552
1748.54	3508
1749.56	3534
1750.58	3534
1751.6	3606
1752.61	3596
1753.63	3576
1754.65	3530
1755.67	3568
1756.68	3616
1757.7	3480
1758.72	3520
1759.74	3496
1760.75	3470
1761.77	3418
1762.79	3522
1763.8	3506
1764.82	3478
1765.84	3506
1766.85	3486
1767.87	3516
1768.88	3532
1769.9	3448
1770.91	3434
1771.93	3554
1772.94	3484
1773.96	3494
1774.97	3464
1775.99	3500
1777	3630
1778.02	3464
1779.03	3466
1780.04	3460
1781.06	3472
1782.07	3474
1783.09	3462
1784.1	3460
1785.11	3462
1786.13	3492
1787.14	3418
1788.15	3458
1789.16	3442
1790.18	3466
1791.19	3482
1792.2	3504
1793.21	3450
1794.22	3468
1795.23	3376
1796.25	3424
1797.26	3450
1798.27	3416
1799.28	3430
1800.29	3448
1801.3	3392
1802.31	3388
1803.32	3430
1804.33	3412
1805.34	3466
1806.35	3480
1807.36	3398
1808.37	3394
1809.38	3366
1810.39	3448
1811.4	3416
1812.41	3312
1813.42	3314
1814.43	3384
1815.43	3346
1816.44	3376
1817.45	3368
1818.46	3302
1819.47	3344
1820.47	3366
1821.48	3304
1822.49	3316
1823.49	3286
1824.5	3370
1825.51	3362
1826.52	3350
1827.52	3324
1828.53	3296
1829.54	3342
1830.54	3292
1831.55	3284
1832.55	3312
1833.56	3328
1834.56	3288
1835.57	3232
1836.57	3232
1837.58	3266
1838.58	3342
1839.59	3264
1840.59	3304
1841.6	3230
1842.6	3242
1843.61	3254
1844.61	3240
1845.61	3258
1846.62	3300
1847.62	3196
1848.62	3270
1849.63	3224
1850.63	3230
1851.63	3276
1852.64	3248
1853.64	3212
1854.64	3266
1855.64	3286
1856.64	3228
1857.65	3192
1858.65	3328
1859.65	3200
1860.65	3230
1861.65	3202
1862.65	3208
1863.65	3230
1864.66	3200
1865.66	3136
1866.66	3168
1867.66	3174
1868.66	3214
1869.66	3226
1870.66	3174
1871.66	3162
1872.66	3192
1873.66	3114
1874.66	3126
1875.65	3176
1876.65	3184
1877.65	3202
1878.65	3176
1879.65	3174
1880.65	3180
1881.65	3160
1882.64	3210
1883.64	3162
1884.64	3124
1885.64	3104
1886.63	3104
1887.63	3162
1888.63	3136
1889.63	3150
1890.62	3168
1891.62	3158
1892.62	3130
1893.61	3174
1894.61	3112
1895.6	3110
1896.6	3148
1897.6	3088
1898.59	3232
1899.59	3196
1900.58	3068
1901.58	3142
1902.57	3168
1903.57	3134
1904.56	3120
1905.56	3108
1906.55	3154
1907.54	3172
1908.54	3150
1909.53	3112
1910.53	3128
1911.52	3128
1912.51	3130
1913.51	3068
1914.5	3040
1915.49	3134
1916.49	3016
1917.48	3162
1918.47	3114
1919.46	3088
1920.46	3086
1921.45	3072
1922.44	3134
1923.43	3166
1924.42	3090
1925.41	3094
1926.41	3144
1927.4	3052
1928.39	3114
1929.38	3048
1930.37	3094
1931.36	3150
1932.35	3060
1933.34	3102
1934.33	3094
1935.32	3078
1936.31	3020
1937.3	3164
1938.29	3074
1939.28	3068
1940.27	3100
1941.26	3052
1942.24	3110
1943.23	3102
1944.22	3096
1945.21	3078
1946.2	3058
1947.19	3088
1948.17	2994
1949.16	3022
1950.15	3019
1951.14	3016
1952.13	3086
1953.11	3092
1954.1	3050
1955.09	3034
1956.07	3106
1957.06	3040
1958.05	3010
1959.03	3002
1960.02	3022
1961	3016
1961.99	2996
1962.98	3014
1963.96	2996
1964.95	2926
1965.93	3018
1966.92	2984
1967.9	3042
1968.89	2988
1969.87	2992
1970.85	2980
1971.84	2974
1972.82	3044
1973.81	3070
1974.79	2976
1975.78	2926
1976.76	2974
1977.74	2990
1978.73	2994
1979.71	3004
1980.69	3016
1981.67	2992
1982.66	3008
1983.64	2954
1984.62	2968
1985.6	2978
1986.59	3022
1987.57	2894
1988.55	2960
1989.53	2954
1990.51	2948
1991.49	2946
1992.47	2986
1993.45	2958
1994.44	2918
1995.42	2992
1996.4	2998
1997.38	2986
1998.36	2948
1999.34	2964
2000.32	3036
2001.3	2990
2002.28	2964
2003.26	2958
2004.24	2928
2005.22	2972
2006.19	2920
2007.17	3006
2008.15	2904
2009.13	2974
2010.11	2904
2011.09	2890
2012.06	2916
2013.04	2972
2014.02	2952
2015	2942
2015.98	2910
2016.95	2934
2017.93	2972
2018.91	2918
2019.88	2898
2020.86	2890
2021.84	2966
2022.81	2916
2023.79	2876
2024.77	2924
2025.74	2878
2026.72	2918
2027.69	2944
2028.67	2892
2029.65	2906
2030.62	2926
2031.6	2866
2032.57	2904
2033.55	2892
2034.52	2928
2035.5	2962
2036.47	2854
2037.44	2868
2038.42	2908
2039.39	2870
2040.36	2854
2041.34	2882
2042.31	2922
2043.29	2902
2044.26	2836
2045.23	2902
2046.2	2936
2047.18	2880
2048.15	2872
2049.12	2866
2050.09	2930
2051.07	2886
2052.04	2878
2053.01	2854
2053.98	2828
2054.95	2818
2055.93	2888
2056.9	2856
2057.87	2950
2058.84	2942
2059.81	2904
2060.78	2820
2061.75	2846
2062.72	2844
2063.69	2890
2064.66	2832
2065.63	2822
2066.6	2854
2067.57	2856
2068.54	2842
2069.51	2820
2070.48	2872
2071.45	2902
2072.42	2868
2073.38	2872
2074.35	2842
2075.32	2876
2076.29	2838
2077.26	2868
2078.23	2850
2079.19	2840
2080.16	2838
2081.13	2880
2082.1	2774
2083.06	2764
2084.03	2836
2085	2808
2085.96	2846
2086.93	2860
2087.9	2854
2088.86	2758
2089.83	2798
2090.8	2826
2091.76	2796
2092.73	2780
2093.69	2850
2094.66	2846
2095.62	2834
2096.59	2784
2097.55	2818
2098.52	2804
2099.48	2818
2100.45	2822
2101.41	2730
2102.38	2814
2103.34	2802
2104.31	2828
2105.27	2768
2106.23	2818
2107.2	2792
2108.16	2780
2109.12	2804
2110.09	2792
2111.05	2836
2112.01	2804
2112.98	2808
2113.94	2848
2114.9	2844
2115.86	2766
2116.82	2766
2117.79	2772
2118.75	2804
2119.71	2744
2120.67	2768
2121.63	2752
2122.59	2800
2123.55	2772
2124.52	2766
2125.48	2812
2126.44	2762
2127.4	2712
2128.36	2756
2129.32	2794
2130.28	2764
2131.24	2802
2132.2	2764
2133.16	2670
2134.12	2780
2135.08	2754
2136.04	2708
2136.99	2726
2137.95	2742
2138.91	2698
2139.87	2724
2140.83	2706
2141.79	2782
2142.75	2710
2143.7	2728
2144.66	2722
2145.62	2717.76
2146.58	2729.74
2147.53	2717.69
2148.49	2733.4
2149.45	2728
2150.41	2679.61
2151.36	2665.71
2152.32	2629.42
2153.28	2680.91
2154.23	2737.3
2155.19	2715.39
2156.14	2684.62
2157.1	2683.85
2158.06	2719.09
2159.01	2731.5
2159.97	2649.95
2160.92	2684.28
2161.88	2664.36
2162.83	2668.76
2163.79	2673.74
2164.74	2666.15
2165.7	2670.24
2166.65	2654.44
2167.61	2687.38
2168.56	2633.54
2169.51	2628.88
2170.47	2651.75
2171.42	2633.28
2172.38	2651.38
2173.33	2599.07
2174.28	2617.41
2175.24	2654.12
2176.19	2619.74
2177.14	2657.57
2178.09	2626.04
2179.05	2649.78
2180	2611.51
2180.95	2592.46
2181.9	2586.43
2182.86	2594.75
2183.81	2580.57
2184.76	2620
2185.71	2597.26
2186.66	2556.14
2187.61	2551.77
2188.57	2593.39
2189.52	2610.72
2190.47	2562.75
2191.42	2575.75
2192.37	2615.85
2193.32	2625.78
2194.27	2585.53
2195.22	2593.55
2196.17	2573.87
2197.12	2606.17
2198.07	2551.41
2199.02	2576.33
2199.97	2523.75
2200.92	2595.08
2201.87	2561.72
2202.82	2555.98
2203.76	2509.18
2204.71	2557.55
2205.66	2562.8
2206.61	2506.08
2207.56	2553.95
2208.51	2578.28
2209.45	2521.81
2210.4	2509.49
2211.35	2510.49
2212.3	2525.26
2213.25	2546.88
2214.19	2563.98
2215.14	2558.3
2216.09	2513.81
2217.03	2540.05
2217.98	2527.95
2218.93	2547.19
2219.87	2534.74
2220.82	2522.49
2221.77	2547.06
2222.71	2513.92
2223.66	2521.13
2224.6	2520.09
2225.55	2514.57
2226.49	2501.4
2227.44	2494.37
2228.38	2521.08
2229.33	2553.88
2230.27	2511.08
2231.22	2504.81
2232.16	2531.8
2233.11	2515.99
2234.05	2488.08
2235	2471.43
2235.94	2502.27
2236.88	2513.39
2237.83	2488.45
2238.77	2466.83
2239.72	2469
2240.66	2505.4
2241.6	2547.66
2242.07	2554
2243.02	2586
2243.97	2442
2244.92	2462
2245.87	2534
2246.81	2534
2247.76	2426
2248.71	2490
2249.65	2482
2250.6	2490
2251.55	2450
2252.49	2528
2253.44	2456
2254.39	2504
2255.33	2488
2256.28	2528
2257.22	2504
2258.17	2480
2259.12	2464
2260.06	2464
2261.01	2524
2261.95	2470
2262.9	2436
2263.84	2498
2264.78	2504
2265.73	2492
2266.67	2440
2267.62	2490
2268.56	2428
2269.51	2404
2270.45	2446
2271.39	2438
2272.34	2450
2273.28	2478
2274.22	2448
2275.17	2446
2276.11	2478
2277.05	2422
2277.99	2442
2278.94	2418
2279.88	2390
2280.82	2400
2281.76	2432
2282.71	2430
2283.65	2454
2284.59	2490
2285.53	2400
2286.47	2414
2287.41	2408
2288.35	2416
2289.3	2388
2290.24	2394
2291.18	2410
2292.12	2404
2293.06	2376
2294	2416
2294.94	2350
2295.88	2364
2296.82	2386
2297.76	2382
2298.7	2346
2299.64	2378
2300.58	2340
2301.52	2394
2302.46	2356
2303.39	2306
2304.33	2320
2305.27	2390
2306.21	2346
2307.15	2374
2308.09	2346
2309.02	2332
2309.96	2308
2310.9	2352
2311.84	2394
2312.77	2318
2313.71	2366
2314.65	2338
2315.59	2358
2316.52	2358
2317.46	2298
2318.4	2352
2319.33	2346
2320.27	2296
2321.21	2334
2322.14	2330
2323.08	2356
2324.01	2322
2324.95	2298
2325.89	2308
2326.82	2334
2327.76	2378
2328.69	2318
2329.63	2316
2330.56	2250
2331.5	2282
2332.43	2266
2333.36	2278
2334.3	2266
2335.23	2306
2336.17	2284
2337.1	2300
2338.03	2306
2338.97	2318
2339.9	2304
2340.83	2210
2341.77	2264
2342.7	2322
2343.63	2322
2344.57	2296
2345.5	2262
2346.43	2282
2347.36	2286
2348.3	2236
2349.23	2274
2350.16	2250
2351.09	2242
2352.02	2218
2352.95	2228
2353.89	2206
2354.82	2306
2355.75	2268
2356.68	2260
2357.61	2244
2358.54	2210
2359.47	2270
2360.4	2172
2361.33	2202
2362.26	2234
2363.19	2242
2364.12	2256
2365.05	2206
2365.98	2182
2366.91	2170
2367.84	2216
2368.77	2260
2369.7	2190
2370.63	2184
2371.56	2174
2372.48	2220
2373.41	2212
2374.34	2192
2375.27	2170
2376.2	2176
2377.12	2196
2378.05	2166
2378.98	2196
2379.91	2176
2380.84	2232
2381.76	2128
2382.69	2148
2383.62	2154
2384.54	2174
2385.47	2196
2386.4	2120
2387.32	2154
2388.25	2134
2389.18	2150
2390.1	2154
2391.03	2138
2391.95	2134
2392.88	2120
2393.8	2144
2394.73	2130
2395.65	2116
2396.58	2136
2397.5	2158
2398.43	2138
2399.35	2154
2400.28	2128
2401.2	2176
2402.13	2090
2403.05	2134
2403.97	2092
2404.9	2110
2405.82	2096
2406.75	2106
2407.67	2102
2408.59	2092
2409.51	2076
2410.44	2086
2411.36	1996
2412.28	2042
2413.21	2038
2414.13	2096
2415.05	2048
2415.97	2032
2416.9	2046
2417.82	2038
2418.74	2064
2419.66	2122
2420.58	2016
2421.5	2024
2422.42	2046
2423.35	2044
2424.27	2094
2425.19	2042
2426.11	2010
2427.03	2032
2427.95	2036
2428.87	2072
2429.79	2056
2430.71	2026
2431.63	1962
2432.55	2040
2433.47	2008
2434.39	1980
2435.31	2040
2436.23	1968
2437.14	2008
2438.06	1986
2438.98	1976
2439.9	1954
2440.82	2010
2441.74	1988
2442.66	2006
2443.57	1988
2444.49	1974
2445.41	1936
2446.33	2008
2447.24	2002
2448.16	1962
2449.08	1960
2450	1936
2450.91	1940
2451.83	1996
2452.75	1928
2453.66	1898
2454.58	1938
2455.5	1972
2456.41	1964
2457.33	1930
2458.24	1922
2459.16	1980
2460.08	1966
2460.99	1978
2461.91	1892
2462.82	1922
2463.74	1896
2464.65	1934
2465.57	1942
2466.48	1872
2467.4	1886
2468.31	1966
2469.22	1892
2470.14	1844
2471.05	1850
2471.97	1866
2472.88	1904
2473.79	1910
2474.71	1872
2475.62	1862
2476.53	1870
2477.45	1916
2478.36	1900
2479.27	1818
2480.19	1876
2481.1	1838
2482.01	1838
2482.92	1834
2483.83	1898
2484.75	1858
2485.66	1848
2486.57	1828
2487.48	1812
2488.39	1826
2489.3	1812
2490.22	1870
2491.13	1872
2492.04	1826
2492.95	1810
2493.86	1830
2494.77	1838
2495.68	1764
2496.59	1792
2497.5	1848
2498.41	1784
2499.32	1770
2500.23	1792
2501.14	1818
2502.05	1804
2502.96	1826
2503.87	1762
2504.78	1784
2505.68	1776
2506.59	1770
2507.5	1754
2508.41	1762
2509.32	1792
2510.23	1762
2511.14	1800
2512.04	1786
2512.95	1774
2513.86	1762
2514.77	1786
2515.67	1754
2516.58	1708
2517.49	1786
2518.39	1778
2519.3	1720
2520.21	1742
2521.11	1770
2522.02	1730
2522.93	1704
2523.83	1716
2524.74	1648
2525.65	1708
2526.55	1684
2527.46	1736
2528.36	1734
2529.27	1702
2530.17	1708
2531.08	1680
2531.98	1718
2532.89	1690
2533.79	1688
2534.7	1674
2535.6	1702
2536.51	1678
2537.41	1648
2538.32	1668
2539.22	1678
2540.12	1704
2541.03	1684
2541.93	1646
2542.83	1678
2543.74	1632
2544.64	1642
2545.54	1662
2546.45	1650
2547.35	1628
2548.25	1686
2549.15	1632
2550.06	1608
2550.96	1642
2551.86	1620
2552.76	1616
2553.66	1622
2554.56	1664
2555.47	1604
2556.37	1638
2557.27	1604
2558.17	1630
2559.07	1606
2559.97	1592
2560.87	1618
2561.77	1622
2562.67	1610
2563.58	1582
2564.47	1592
2565.38	1564
2566.27	1624
2567.18	1572
2568.07	1584
2568.97	1584
2569.87	1596
2570.77	1576
2571.67	1546
2572.57	1532
2573.47	1548
2574.37	1564
2575.27	1574
2576.17	1582
2577.06	1546
2577.96	1532
2578.86	1514
2579.76	1520
2580.66	1558
2581.55	1514
2582.45	1594
2583.35	1554
2584.25	1522
2585.14	1532
2586.04	1560
2586.94	1532
2587.83	1546
2588.73	1534
2589.63	1486
2590.52	1518
2591.42	1498
2592.32	1496
2593.21	1514
2594.11	1518
2595	1466
2595.9	1512
2596.8	1452
2597.69	1500
2598.59	1524
2599.48	1486
2600.38	1470
2601.27	1482
2602.17	1474
2603.06	1490
2603.95	1412
2604.85	1492
2605.74	1502
2606.64	1484
2607.53	1460
2608.42	1472
2609.32	1468
2610.21	1514
2611.1	1472
2612	1458
2612.89	1460
2613.78	1458
2614.68	1406
2615.57	1438
2616.46	1460
2617.36	1418
2618.25	1428
2619.14	1456
2620.03	1384
2620.92	1436
2621.82	1416
2622.71	1438
2623.6	1422
2624.49	1446
2625.38	1406
2626.27	1458
2627.16	1400
2628.05	1400
2628.95	1434
2629.84	1350
2630.73	1376
2631.62	1440
2632.51	1402
2633.4	1394
2634.29	1374
2635.18	1380
2636.07	1416
2636.96	1388
2637.85	1402
2638.74	1344
2639.62	1372
2640.51	1388
2641.4	1412
2642.29	1372
2643.18	1366
2644.07	1354
2644.96	1318
2645.85	1350
2646.73	1346
2647.62	1316
2648.51	1358
2649.4	1312
2650.28	1330
2651.17	1334
2652.06	1340
2652.95	1334
2653.83	1356
2654.72	1322
2655.61	1298
2656.5	1330
2657.38	1350
2658.27	1308
2659.15	1290
2660.04	1290
2660.93	1276
2661.81	1298
2662.7	1284
2663.58	1316
2664.47	1318
2665.35	1352
2666.24	1304
2667.13	1308
2668.01	1252
2668.9	1328
2669.78	1302
2670.66	1308
2671.55	1270
2672.43	1284
2673.32	1270
2674.2	1268
2675.09	1280
2675.97	1276
2676.85	1270
2677.74	1230
2678.62	1266
2679.5	1230
2680.39	1262
2681.27	1310
2682.15	1272
2683.04	1284
2683.92	1240
2684.8	1260
2685.68	1268
2686.57	1232
2687.45	1274
2688.33	1250
2689.21	1210
2690.09	1282
2690.98	1266
2691.86	1200
2692.74	1226
2693.62	1232
2694.5	1204
2695.38	1198
2696.26	1198
2697.15	1230
2698.03	1204
2698.91	1238
2699.79	1220
2700.67	1224
2701.55	1180
2702.43	1194
2703.31	1238
2704.19	1184
2705.07	1174
2705.95	1194
2706.83	1184
2707.7	1182
2708.58	1168
2709.46	1168
2710.34	1232
2711.22	1174
2712.1	1182
2712.98	1178
2713.86	1180
2714.73	1182
2715.61	1188
2716.49	1146
2717.37	1198
2718.25	1164
2719.12	1158
2720	1108
2720.88	1172
2721.76	1158
2722.63	1172
2723.51	1164
2724.39	1158
2725.26	1124
2726.14	1144
2727.02	1136
2727.89	1128
2728.77	1136
2729.64	1136
2730.52	1134
2731.4	1128
2732.27	1112
2733.15	1130
2734.02	1140
2734.9	1096
2735.77	1152
2736.65	1082
2737.52	1094
2738.4	1086
2739.27	1122
2740.15	1112
2741.02	1100
2741.9	1112
2742.77	1090
2743.64	1114
2744.52	1086
2745.39	1072
2746.27	1094
2747.14	1114
2748.01	1088
2748.89	1074
2749.76	1094
2750.63	1128
2751.51	1046
2752.38	1078
2753.25	1064
2754.12	1090
2755	1064
2755.87	1050
2756.74	1038
2757.61	1046
2758.48	1034
2759.35	1048
2760.23	1054
2761.1	1052
2761.97	1050
2762.84	1070
2763.71	1016
2764.58	1096
2765.45	996
2766.32	1044
2767.19	1070
2768.07	1048
2768.94	1048
2769.81	1054
2770.68	1030
2771.55	1030
2772.42	1028
2773.29	1056
2774.16	1038
2775.02	1014
2775.89	1000
2776.76	1018
2777.63	1014
2778.5	1024
2779.37	990
2780.24	1002
2781.11	996
2781.98	1034
2782.84	980
2783.71	976
2784.58	976
2785.45	994
2786.32	1020
2787.18	990
2788.05	1024
2788.92	1004
2789.79	964
2790.65	1012
2791.52	998
2792.39	998
2793.25	984
2794.12	972
2794.99	962
2795.85	970
2796.72	992
2797.59	938
2798.45	968
2799.32	978
2800.18	982
2801.05	946
2801.92	978
2802.78	960
2803.65	962
2804.51	964
2805.38	970
2806.24	980
2807.11	952
2807.97	944
2808.84	968
2809.7	958
2810.57	936
2811.43	976
2812.29	948
2813.16	932
2814.02	902
2814.88	950
2815.75	966
2816.61	928
2817.47	948
2818.34	914
2819.2	942
2820.06	910
2820.93	900
2821.79	946
2822.65	930
2823.51	896
2824.38	880
2825.24	914
2826.1	920
2826.96	900
2827.82	958
2828.69	918
2829.55	898
2830.41	886
2831.27	910
2832.13	914
2832.99	910
2833.85	928
2834.71	916
2835.57	926
2836.44	912
2837.3	868
2838.16	914
2839.02	894
2839.88	912
2840.74	862
2841.6	874
2842.46	896
2843.32	846
2844.18	890
2845.03	858
2845.89	884
2846.75	902
2847.61	864
2848.47	878
2849.33	882
2850.19	874
2851.05	844
2851.9	872
2852.76	880
2853.62	874
2854.48	852
2855.34	840
2856.19	890
2857.05	802
2857.91	838
2858.77	860
2859.62	862
2860.48	834
2861.34	840
2862.19	832
2863.05	848
2863.91	850
2864.76	806
2865.62	830
2866.48	812
2867.33	822
2868.19	830
2869.04	846
2869.9	830
2870.76	836
2871.61	826
2872.47	856
2873.32	812
2874.18	814
2875.03	814
2875.89	836
2876.74	808
2877.6	792
2878.45	814
2879.31	818
2880.16	800
2881.01	836
2881.87	788
2882.72	822
2883.58	816
2884.43	818
2885.28	814
2886.14	804
2886.99	790
2887.84	816
2888.7	808
2889.55	792
2890.4	828
2891.25	788
2892.11	778
2892.96	788
2893.81	776
2894.66	770
2895.52	782
2896.37	770
2897.22	760
2898.07	790
2898.92	788
2899.77	786
2900.62	768
2901.48	784
2902.33	808
2903.18	762
2904.03	800
2904.88	740
2905.73	770
2906.58	768
2907.43	788
2908.28	782
2909.13	778
2909.98	776
2910.83	784
2911.68	770
2912.53	764
2913.38	752
2914.23	766
2915.08	778
2915.93	742
2916.78	754
2917.63	764
2918.47	744
2919.32	750
2920.17	768
2921.02	748
2921.87	750
2922.72	780
2923.56	758
2924.41	778
2925.26	780
2926.11	768
2926.95	754
2927.8	728
2928.65	730
2929.5	748
2930.34	758
2931.19	742
2932.04	748
2932.88	744
2933.73	764
2934.58	740
2935.42	728
2936.27	740
2937.11	732
2937.96	746
2938.81	744
2939.65	734
2940.5	766
2941.34	724
2942.19	704
2943.03	716
2943.88	732
2944.72	726
2945.57	756
2946.41	736
2947.26	724
2948.1	712
2948.95	694
2949.79	718
2950.64	736
2951.48	716
2952.32	708
2953.17	684
2954.01	702
2954.85	702
2955.7	678
2956.54	666
2957.38	728
2958.23	724
2959.07	704
2959.91	704
2960.75	674
2961.6	670
2962.44	680
2963.28	714
2964.12	682
2964.97	674
2965.81	668
2966.65	670
2967.49	696
2968.33	690
2969.17	688
2970.02	698
2970.86	698
2971.7	674
2972.54	694
2973.38	672
2974.22	698
2975.06	668
2975.9	668
2976.74	662
2977.58	682
2978.42	660
2979.26	662
2980.1	660
2980.94	684
2981.78	648
2982.62	676
2983.46	664
2984.3	642
2985.14	656
2985.98	666
2986.82	668
2987.66	632
2988.49	656
2989.33	636
2990.17	662
2991.01	648
2991.85	658
2992.69	648
2993.52	628
2994.36	670
2995.2	628
2996.04	644
2996.87	644
2997.71	668
2998.55	650
2999.39	634
