#Acq. time (s)=	10
#Accumulations=	1
#Range (cm-¹)=	100...3000
#Windows=	3
#Autofocus=	Off
#AutoExposure=	Off
#Spike filter=	Off
#Delay time (s)=	0
#Binning=	1
#Readout mode=	Signal
#DeNoise=	Off
#ICS correction=	Off
#Dark correction=	Off
#Inst. Process=	Off
#Instrument=	LabRAM HR Evol
#Detector=	Syncerity OE
#Objective=	x100_VIS
#Grating=	600 (500nm)
#ND Filter=	5%
#Laser=	633nm_Edge
#Hole=	74.97
#Range=	Visible
#Project=	Omar
#Sample=	26-06-23
#Site=	1
#Title=	Organic
#Remark=	
#Date=	26.06.2023 16:07
#Acquired=	26.06.2023 16:07:17
101.018	1382
102.302	1364
103.586	1352
104.869	1394
106.152	1400
107.435	1366
108.717	1396
109.999	1414
111.281	1386
112.563	1364
113.845	1436
115.126	1392
116.407	1312
117.688	1384
118.969	1352
120.249	1378
121.53	1366
122.81	1360
124.09	1388
125.369	1362
126.649	1400
127.928	1382
129.207	1348
130.486	1354
131.765	1406
133.043	1408
134.321	1324
135.599	1420
136.877	1418
138.155	1346
139.432	1380
140.708	1410
141.985	1422
143.261	1348
144.538	1372
145.814	1364
147.09	1364
148.366	1414
149.641	1362
150.916	1400
152.191	1340
153.466	1374
154.741	1336
156.016	1360
157.289	1350
158.563	1390
159.837	1350
161.111	1370
162.385	1364
163.657	1360
164.93	1346
166.203	1368
167.476	1376
168.747	1396
170.019	1376
171.291	1378
172.562	1354
173.834	1388
175.105	1310
176.377	1378
177.646	1382
178.917	1330
180.188	1360
181.457	1396
182.727	1368
183.996	1320
185.266	1378
186.536	1356
187.804	1336
189.073	1394
190.342	1394
191.609	1364
192.878	1324
194.145	1356
195.413	1370
196.681	1390
197.948	1398
199.215	1398
200.481	1352
201.749	1372
203.014	1376
204.281	1394
205.546	1360
206.813	1390
208.077	1368
209.343	1386
210.608	1370
211.873	1400
213.137	1392
214.402	1404
215.666	1368
216.93	1380
218.194	1400
219.458	1358
220.721	1414
221.983	1394
223.247	1318
224.509	1362
225.772	1392
227.034	1396
228.295	1406
229.558	1368
230.819	1372
232.081	1426
233.342	1396
234.602	1432
235.864	1374
237.124	1392
238.384	1412
239.645	1400
240.904	1418
242.164	1390
243.423	1382
244.683	1332
245.941	1346
247.2	1432
248.46	1436
249.717	1408
250.975	1424
252.233	1412
253.492	1384
254.749	1426
256.006	1404
257.263	1422
258.519	1346
259.777	1392
261.033	1364
262.289	1418
263.545	1394
264.8	1382
266.057	1416
267.312	1388
268.567	1372
269.822	1338
271.076	1396
272.331	1332
273.585	1372
274.839	1378
276.094	1384
277.347	1414
278.601	1394
279.854	1394
281.107	1400
282.359	1334
283.612	1378
284.864	1412
286.116	1398
287.368	1386
288.62	1430
289.871	1370
291.123	1448
292.374	1386
293.625	1384
294.875	1422
296.126	1396
297.376	1474
298.626	1326
299.876	1426
301.126	1436
302.375	1408
303.625	1448
304.874	1414
306.122	1400
307.371	1408
308.62	1390
309.866	1402
311.114	1500
312.362	1412
313.61	1422
314.857	1380
316.105	1420
317.352	1428
318.599	1416
319.844	1456
321.09	1452
322.337	1390
323.583	1412
324.828	1424
326.073	1434
327.318	1380
328.563	1432
329.808	1418
331.053	1432
332.296	1412
333.541	1438
334.785	1434
336.029	1436
337.272	1424
338.515	1420
339.759	1408
341.001	1420
342.244	1450
343.486	1424
344.728	1462
345.97	1440
347.212	1468
348.453	1428
349.695	1462
350.936	1420
352.176	1416
353.418	1436
354.659	1452
355.898	1426
357.139	1456
358.378	1460
359.618	1470
360.858	1416
362.097	1464
363.336	1446
364.574	1470
365.813	1428
367.051	1448
368.29	1462
369.527	1466
370.766	1464
372.002	1470
373.241	1440
374.477	1470
375.715	1438
376.951	1462
378.188	1418
379.424	1462
380.66	1414
381.896	1436
383.132	1430
384.367	1476
385.603	1470
386.838	1472
388.072	1438
389.307	1464
390.541	1438
391.776	1466
393.01	1448
394.243	1476
395.477	1426
396.71	1466
397.943	1402
399.177	1476
400.409	1490
401.641	1454
402.875	1440
404.106	1432
405.338	1498
406.57	1490
407.802	1436
409.032	1494
410.263	1480
411.495	1570
412.725	1520
413.955	1484
415.185	1520
416.417	1526
417.646	1464
418.875	1526
420.104	1516
421.335	1524
422.564	1500
423.792	1524
425.02	1590
426.249	1506
427.477	1568
428.706	1530
429.933	1526
431.161	1496
432.388	1488
433.615	1562
434.841	1558
436.068	1548
437.294	1556
438.522	1570
439.748	1502
440.974	1550
442.199	1584
443.425	1572
444.65	1546
445.875	1518
447.1	1590
448.324	1554
449.549	1572
450.773	1524
451.997	1538
453.221	1548
454.445	1556
455.668	1588
456.891	1522
458.114	1558
459.337	1516
460.56	1558
461.782	1578
463.005	1540
464.227	1538
465.447	1530
466.669	1572
467.89	1572
469.112	1598
470.333	1614
471.554	1566
472.774	1564
473.995	1556
475.214	1600
476.434	1574
477.654	1588
478.874	1584
480.093	1600
481.312	1550
482.53	1568
483.749	1602
484.968	1620
486.186	1632
487.405	1654
488.622	1634
489.84	1598
491.057	1606
492.275	1640
493.491	1624
494.708	1612
495.925	1652
497.141	1652
498.357	1630
499.574	1662
500.789	1586
502.005	1644
503.221	1638
504.435	1662
505.65	1628
506.866	1618
508.079	1656
509.294	1642
510.509	1686
511.722	1628
512.936	1680
514.149	1644
515.363	1648
516.577	1648
517.789	1704
519.002	1644
520.214	1670
521.427	1644
522.638	1616
523.851	1594
525.062	1656
526.274	1674
527.485	1670
528.697	1672
529.907	1644
531.118	1688
532.328	1690
533.539	1660
534.748	1672
535.959	1616
537.168	1680
538.379	1612
539.587	1678
540.796	1680
542.005	1672
543.214	1698
544.423	1708
545.631	1728
546.838	1710
548.047	1716
549.254	1702
550.461	1712
551.669	1716
552.876	1738
554.082	1746
555.29	1752
556.496	1742
557.701	1696
558.909	1704
560.114	1736
561.319	1754
562.524	1686
563.731	1728
564.935	1726
566.14	1730
567.344	1786
568.549	1760
569.753	1750
570.957	1782
572.161	1782
573.364	1742
574.568	1774
575.771	1788
576.974	1742
578.177	1774
579.379	1802
580.581	1776
581.785	1788
582.987	1778
584.188	1792
585.39	1812
586.591	1826
587.792	1804
588.993	1874
590.193	1852
591.394	1804
592.594	1862
593.796	1858
594.996	1830
596.195	1828
597.395	1864
598.594	1844
599.793	1854
600.992	1852
602.191	1864
603.39	1834
604.588	1894
605.786	1896
606.984	1900
608.181	1902
609.378	1934
610.576	1866
611.773	1950
612.97	1932
614.167	1940
615.364	1938
616.56	1916
617.757	1908
618.953	1948
620.149	2028
621.343	1964
622.539	1974
623.734	1988
624.929	1992
626.124	2010
627.319	2010
628.512	2016
629.707	2042
630.901	2076
632.095	2030
633.289	2020
634.481	2056
635.675	2006
636.868	2068
638.061	2050
639.253	2110
640.446	2076
641.638	2140
642.831	2102
644.021	2072
645.213	2054
646.405	2128
647.595	2132
648.787	2116
649.978	2190
651.168	2164
652.359	2152
653.549	2170
654.738	2128
655.929	2192
657.117	2130
658.307	2112
659.497	2212
660.685	2128
661.875	2238
663.063	2130
664.252	2194
665.439	2148
666.628	2216
667.816	2208
669.003	2184
670.191	2256
671.378	2258
672.565	2232
673.751	2270
674.939	2264
676.124	2284
677.311	2228
678.497	2230
679.682	2254
680.868	2280
682.053	2274
683.239	2350
684.424	2296
685.609	2336
686.793	2302
687.977	2278
689.162	2342
690.346	2332
691.529	2348
692.714	2334
693.897	2360
695.081	2322
696.264	2348
697.446	2414
698.63	2384
699.812	2452
700.993	2344
702.175	2414
703.358	2392
704.539	2464
705.72	2470
706.901	2486
708.083	2454
709.264	2524
710.444	2472
711.625	2464
712.806	2506
713.986	2506
715.165	2530
716.345	2528
717.524	2540
718.705	2592
719.884	2550
721.062	2530
722.241	2552
723.419	2574
724.597	2562
725.775	2606
726.954	2596
728.132	2588
729.31	2598
730.487	2656
731.664	2622
732.841	2626
734.017	2656
735.194	2684
736.37	2670
737.546	2716
738.722	2662
739.898	2658
741.074	2710
742.249	2682
743.424	2742
744.599	2746
745.774	2704
746.949	2722
748.123	2786
749.298	2750
750.472	2740
751.646	2858
752.819	2766
753.993	2792
755.166	2830
756.34	2778
757.511	2786
758.684	2872
759.857	2854
761.029	2856
762.202	2824
763.374	2866
764.546	2870
765.716	2924
766.888	2874
768.059	2932
769.23	2830
770.401	2920
771.571	2902
772.741	2956
773.912	2952
775.082	2962
776.251	2882
777.421	2952
778.59	3006
779.76	2996
780.928	2966
782.097	2982
783.266	3068
784.434	3062
785.602	3064
786.771	3088
787.938	3054
789.106	3072
790.274	3072
791.44	3134
792.608	3048
793.775	3216
794.941	3094
796.108	3138
797.273	3236
798.44	3140
799.606	3078
800.771	3194
801.937	3250
803.102	3200
804.268	3240
805.432	3238
806.597	3204
807.761	3246
808.926	3250
810.09	3244
811.254	3286
812.417	3296
813.582	3288
814.744	3342
815.908	3362
817.071	3372
818.234	3396
819.396	3340
820.558	3390
821.721	3436
822.883	3466
824.045	3500
825.206	3468
826.367	3484
827.529	3510
828.69	3526
829.85	3418
831.012	3592
832.172	3536
833.332	3556
834.493	3508
835.653	3568
836.812	3586
837.972	3642
839.131	3568
840.29	3634
841.449	3662
842.609	3662
843.767	3648
844.925	3730
846.083	3638
847.242	3660
848.399	3650
849.557	3752
850.714	3718
851.871	3790
853.029	3882
854.186	3874
855.342	3772
856.498	3874
857.654	3832
858.81	3878
859.966	3806
861.122	3848
862.278	3912
863.434	3936
864.589	3832
865.744	3812
866.898	3894
868.053	3924
869.207	3906
870.361	3972
871.515	4010
872.669	3958
873.822	3922
874.976	4044
876.129	3992
877.282	4044
878.435	3986
879.588	4004
880.74	3998
881.893	3978
883.045	4090
884.197	4084
885.349	4082
886.5	4088
887.652	4004
888.802	4024
889.953	4038
891.104	4178
892.254	4064
893.405	4102
894.555	4162
895.706	4192
896.854	4128
898.004	4138
899.154	4182
900.303	4236
901.453	4160
902.6	4242
903.749	4188
904.898	4242
906.047	4142
907.194	4216
908.342	4224
909.49	4226
910.638	4268
911.785	4272
912.932	4274
914.08	4270
915.225	4282
916.372	4384
917.519	4354
918.666	4406
919.811	4386
920.957	4384
922.102	4336
923.248	4408
924.394	4388
925.538	4386
926.684	4458
927.828	4456
928.973	4436
930.118	4488
931.261	4534
932.406	4468
933.549	4526
934.693	4540
935.836	4468
936.979	4546
938.122	4486
939.265	4496
940.407	4560
941.55	4570
942.692	4502
943.835	4560
944.976	4636
946.118	4634
947.259	4658
948.401	4588
949.542	4724
950.682	4676
951.824	4778
952.964	4650
954.105	4660
955.245	4742
956.385	4778
957.525	4686
958.664	4678
959.803	4840
960.944	4788
962.082	4838
963.221	4768
964.36	4846
965.498	4846
966.636	4772
967.774	4854
968.913	4848
970.051	4892
971.188	4961
972.325	5030
973.463	4872
974.6	4766
975.736	4858
976.873	4882
978.009	4838
979.146	4914
980.282	4914
981.418	4950
982.554	4936
983.689	4918
984.824	4962
985.959	4952
987.095	4942
988.23	4966
989.364	4960
990.499	4940
991.633	5056
992.767	4950
993.9	4956
995.034	5032
996.167	5044
997.301	5104
998.434	4992
999.567	5028
1000.7	5088
1001.83	5064
1002.96	5104
1004.1	4992
1005.23	4992
1006.36	5124
1007.49	5088
1008.62	5104
1009.76	5076
1010.89	5044
1012.02	5180
1013.15	5170
1014.28	5144
1015.41	5004
1016.54	5148
1017.67	5164
1018.8	5170
1019.93	5192
1021.06	5148
1022.19	5166
1023.32	5254
1024.44	5312
1025.57	5160
1026.7	5212
1027.83	5246
1028.96	5240
1030.09	5228
1031.21	5298
1032.34	5326
1033.47	5394
1034.6	5260
1035.72	5414
1036.85	5386
1037.98	5352
1039.1	5338
1040.23	5356
1041.35	5294
1042.48	5342
1043.61	5342
1044.73	5342
1045.86	5394
1046.98	5350
1048.11	5358
1049.23	5398
1050.36	5354
1051.48	5410
1052.61	5438
1053.73	5458
1054.85	5424
1055.98	5410
1057.1	5338
1058.22	5336
1059.35	5358
1060.47	5570
1061.59	5382
1062.72	5434
1063.84	5528
1064.96	5410
1066.08	5374
1067.2	5416
1068.33	5516
1069.45	5456
1070.57	5472
1071.69	5490
1072.81	5388
1073.93	5530
1075.05	5438
1076.17	5470
1077.29	5498
1078.41	5448
1079.53	5490
1080.65	5424
1081.77	5474
1082.89	5416
1084.01	5382
1085.13	5440
1086.25	5526
1087.37	5532
1088.48	5384
1089.6	5340
1090.72	5496
1091.84	5450
1092.96	5368
1094.07	5460
1095.19	5358
1096.31	5394
1097.43	5346
1098.54	5438
1099.66	5476
1100.78	5348
1101.89	5408
1103.01	5416
1104.12	5344
1105.24	5280
1106.35	5404
1107.47	5354
1108.59	5346
1109.7	5304
1110.81	5320
1111.93	5436
1113.04	5370
1114.16	5320
1115.27	5358
1116.39	5230
1117.5	5360
1118.61	5384
1119.73	5346
1120.84	5236
1121.95	5284
1123.06	5346
1124.18	5308
1125.29	5314
1126.4	5278
1127.51	5396
1128.63	5310
1129.74	5286
1130.85	5302
1131.96	5310
1133.07	5324
1134.18	5248
1135.29	5358
1136.4	5220
1137.51	5268
1138.62	5288
1139.73	5312
1140.84	5298
1141.95	5252
1143.06	5362
1144.17	5292
1145.28	5222
1146.39	5228
1147.5	5326
1148.61	5270
1149.72	5238
1150.82	5244
1151.93	5240
1153.04	5192
1154.15	5296
1155.26	5244
1156.36	5366
1157.47	5244
1158.58	5210
1159.68	5222
1160.79	5242
1161.9	5182
1163	5176
1164.11	5246
1165.22	5260
1166.32	5142
1167.43	5208
1168.53	5186
1169.64	5124
1170.74	5146
1171.85	5236
1172.95	5154
1174.06	5128
1175.16	5170
1176.26	5106
1177.37	5122
1178.47	5040
1179.58	5012
1180.68	5084
1181.78	5108
1182.88	5050
1183.99	5010
1185.09	5032
1186.19	5050
1187.3	5046
1188.4	5016
1189.5	4956
1190.6	4954
1191.7	5016
1192.8	4936
1193.9	4926
1195.01	4876
1196.11	4949
1197.21	4930.69
1198.31	4905.96
1199.41	4882.58
1200.51	4850.18
1201.61	4878.9
1202.71	4895.48
1203.81	4877.95
1204.91	4756.47
1206.01	4829.91
1207.11	4813.05
1208.2	4812.23
1209.3	4807.58
1210.4	4729.13
1211.5	4734.46
1212.6	4764.38
1213.7	4738.57
1214.8	4702.3
1215.89	4755.05
1216.99	4713.54
1218.09	4705.43
1219.18	4708.14
1220.28	4719.39
1221.38	4706.88
1222.48	4651.59
1223.57	4645.94
1224.67	4661.88
1225.76	4591.22
1226.86	4539.99
1227.96	4598.25
1229.05	4540.39
1230.15	4595.8
1231.24	4557.07
1232.34	4568.4
1233.43	4541.7
1234.53	4544.27
1235.62	4507.52
1236.71	4548.61
1237.81	4497.1
1238.9	4515.4
1240	4503.55
1241.09	4484.22
1242.18	4515.07
1243.28	4426.4
1244.37	4471.34
1245.46	4438.24
1246.56	4441.97
1247.65	4434.2
1248.74	4418.89
1249.83	4442.69
1250.93	4436.56
1252.02	4416.81
1253.11	4417.06
1254.2	4399.52
1255.29	4394.99
1256.38	4380.37
1257.47	4373.99
1258.56	4376.78
1259.65	4384.45
1260.74	4330.09
1261.84	4342.89
1262.92	4302.22
1264.01	4336.54
1265.1	4314.53
1266.19	4290.15
1267.28	4326.15
1268.37	4334.72
1269.46	4273.45
1270.55	4276.83
1271.64	4278.8
1272.73	4226.74
1273.82	4191.02
1274.9	4213.23
1275.99	4287.16
1277.08	4266.05
1278.17	4250.78
1279.26	4276.41
1280.34	4193.73
1281.43	4189.21
1282.52	4184.45
1283.6	4194.28
1284.69	4213.62
1285.78	4197.55
1286.86	4246.14
1287.95	4141.27
1289.03	4134.59
1290.12	4162.87
1291.21	4142.68
1292.29	4106.04
1293.38	4152.84
1294.46	4138.6
1295.55	4037.96
1296.63	4073.29
1297.71	4085.03
1298.8	4073.5
1299.88	4103.45
1300.97	4067.38
1302.05	4062.73
1303.13	4006.21
1304.22	3972.74
1305.3	4058.79
1306.38	4004.7
1307.34	3972
1308.43	3970
1309.52	4060
1310.61	3944
1311.7	3934
1312.78	3970
1313.87	3944
1314.96	3814
1316.05	3946
1317.13	3904
1318.22	3920
1319.3	3908
1320.39	3900
1321.48	3884
1322.56	3740
1323.65	3842
1324.73	3846
1325.82	3778
1326.9	3824
1327.99	3832
1329.07	3788
1330.16	3766
1331.24	3718
1332.33	3732
1333.41	3712
1334.5	3768
1335.58	3704
1336.66	3724
1337.75	3734
1338.83	3686
1339.91	3618
1341	3678
1342.08	3600
1343.16	3612
1344.25	3594
1345.33	3606
1346.41	3568
1347.49	3558
1348.57	3580
1349.65	3532
1350.74	3556
1351.82	3564
1352.9	3598
1353.98	3596
1355.06	3504
1356.14	3554
1357.22	3512
1358.3	3558
1359.38	3500
1360.46	3416
1361.54	3560
1362.62	3460
1363.7	3408
1364.78	3404
1365.86	3404
1366.94	3510
1368.02	3400
1369.09	3400
1370.17	3422
1371.25	3400
1372.33	3398
1373.41	3430
1374.48	3358
1375.56	3344
1376.64	3402
1377.72	3376
1378.79	3352
1379.87	3304
1380.95	3374
1382.02	3372
1383.1	3324
1384.17	3364
1385.25	3400
1386.33	3364
1387.4	3286
1388.48	3252
1389.55	3334
1390.63	3250
1391.7	3258
1392.78	3274
1393.85	3284
1394.93	3244
1396	3190
1397.07	3208
1398.15	3222
1399.22	3168
1400.3	3204
1401.37	3208
1402.44	3182
1403.52	3150
1404.59	3204
1405.66	3148
1406.73	3116
1407.81	3142
1408.88	3198
1409.95	3124
1411.02	3124
1412.09	3096
1413.17	3104
1414.24	3118
1415.31	3118
1416.38	3138
1417.45	3060
1418.52	3108
1419.59	3068
1420.66	3054
1421.73	3108
1422.8	3102
1423.87	3012
1424.94	3022
1426.01	3072
1427.08	3046
1428.15	2994
1429.22	2994
1430.29	3018
1431.35	3038
1432.42	3002
1433.49	2962
1434.56	3022
1435.63	2940
1436.7	3046
1437.76	2972
1438.83	2960
1439.9	2932
1440.96	2952
1442.03	2932
1443.1	2972
1444.17	2976
1445.23	2924
1446.3	2964
1447.36	2926
1448.43	2926
1449.49	2948
1450.56	2922
1451.63	2886
1452.69	2922
1453.76	2922
1454.82	2818
1455.89	2938
1456.95	2932
1458.01	2912
1459.08	2872
1460.14	2932
1461.21	2910
1462.27	2858
1463.34	2878
1464.4	2872
1465.46	2830
1466.52	2810
1467.59	2824
1468.65	2806
1469.71	2806
1470.77	2806
1471.84	2852
1472.9	2822
1473.96	2860
1475.02	2744
1476.08	2798
1477.15	2776
1478.21	2832
1479.27	2824
1480.33	2748
1481.39	2790
1482.45	2796
1483.51	2816
1484.57	2764
1485.63	2754
1486.69	2762
1487.75	2780
1488.81	2822
1489.87	2734
1490.93	2744
1491.99	2692
1493.05	2706
1494.1	2702
1495.16	2660
1496.22	2698
1497.28	2696
1498.34	2738
1499.4	2748
1500.45	2640
1501.51	2682
1502.57	2610
1503.63	2672
1504.68	2596
1505.74	2652
1506.8	2692
1507.85	2680
1508.91	2668
1509.97	2674
1511.02	2636
1512.08	2632
1513.13	2668
1514.19	2616
1515.24	2626
1516.3	2608
1517.35	2674
1518.41	2642
1519.46	2580
1520.52	2672
1521.57	2632
1522.63	2552
1523.68	2606
1524.73	2604
1525.79	2588
1526.84	2560
1527.9	2578
1528.95	2606
1530	2490
1531.06	2550
1532.11	2566
1533.16	2462
1534.21	2560
1535.26	2524
1536.32	2504
1537.37	2550
1538.42	2536
1539.47	2526
1540.52	2530
1541.57	2458
1542.63	2486
1543.68	2476
1544.73	2438
1545.78	2506
1546.83	2456
1547.88	2468
1548.93	2488
1549.98	2424
1551.03	2460
1552.08	2436
1553.13	2462
1554.18	2444
1555.23	2422
1556.27	2456
1557.32	2482
1558.37	2440
1559.42	2448
1560.47	2432
1561.52	2416
1562.56	2380
1563.61	2438
1564.66	2400
1565.71	2388
1566.75	2410
1567.8	2400
1568.85	2416
1569.9	2400
1570.94	2438
1571.99	2390
1573.03	2332
1574.08	2406
1575.13	2334
1576.17	2356
1577.22	2398
1578.26	2312
1579.31	2372
1580.35	2408
1581.4	2302
1582.44	2318
1583.49	2374
1584.53	2328
1585.58	2370
1586.62	2392
1587.66	2328
1588.71	2306
1589.75	2352
1590.8	2396
1591.84	2284
1592.88	2302
1593.93	2312
1594.97	2278
1596.01	2278
1597.05	2318
1598.1	2326
1599.14	2308
1600.18	2286
1601.22	2236
1602.26	2258
1603.31	2308
1604.35	2268
1605.39	2290
1606.43	2354
1607.47	2314
1608.51	2304
1609.55	2214
1610.59	2278
1611.63	2236
1612.67	2306
1613.71	2286
1614.75	2310
1615.79	2242
1616.83	2254
1617.87	2296
1618.91	2294
1619.95	2214
1620.99	2248
1622.02	2242
1623.06	2252
1624.1	2260
1625.14	2270
1626.18	2272
1627.21	2242
1628.25	2280
1629.29	2240
1630.33	2222
1631.36	2248
1632.4	2282
1633.44	2208
1634.48	2244
1635.51	2210
1636.55	2196
1637.58	2244
1638.62	2172
1639.66	2240
1640.69	2226
1641.73	2228
1642.76	2226
1643.8	2214
1644.83	2164
1645.87	2204
1646.9	2232
1647.94	2162
1648.97	2150
1650	2212
1651.04	2132
1652.07	2162
1653.11	2150
1654.14	2142
1655.17	2122
1656.21	2168
1657.24	2142
1658.27	2186
1659.31	2164
1660.34	2126
1661.37	2122
1662.4	2138
1663.43	2080
1664.47	2090
1665.5	2130
1666.53	2154
1667.56	2076
1668.59	2104
1669.62	2036
1670.66	2118
1671.69	2102
1672.72	2138
1673.75	2138
1674.78	2096
1675.81	2108
1676.84	2124
1677.87	2174
1678.9	2090
1679.93	2066
1680.96	2098
1681.98	2066
1683.01	2052
1684.04	2106
1685.07	2086
1686.1	2084
1687.13	2026
1688.16	2072
1689.19	2004
1690.21	2032
1691.24	2026
1692.27	2052
1693.3	2020
1694.32	2022
1695.35	2038
1696.38	2054
1697.4	2032
1698.43	2054
1699.46	2044
1700.48	1972
1701.51	2000
1702.54	2034
1703.56	1992
1704.59	2006
1705.61	2014
1706.64	2018
1707.66	2042
1708.69	1978
1709.71	2000
1710.74	1998
1711.76	1972
1712.79	1980
1713.81	2018
1714.83	2050
1715.86	2006
1716.88	1946
1717.91	1970
1718.93	1988
1719.95	1972
1720.98	1992
1722	1968
1723.02	1986
1724.04	1974
1725.07	1904
1726.09	1952
1727.11	1946
1728.13	1998
1729.15	2008
1730.18	1972
1731.2	2002
1732.22	2002
1733.24	1938
1734.26	1980
1735.28	1956
1736.3	1914
1737.32	1950
1738.34	1914
1739.36	1934
1740.38	1936
1741.4	1912
1742.42	1912
1743.44	1932
1744.46	1866
1745.48	1896
1746.5	1898
1747.52	1914
1748.54	1902
1749.56	1870
1750.58	1942
1751.6	1922
1752.61	1902
1753.63	1920
1754.65	1876
1755.67	1874
1756.68	1904
1757.7	1892
1758.72	1854
1759.74	1920
1760.75	1874
1761.77	1874
1762.79	1870
1763.8	1916
1764.82	1894
1765.84	1944
1766.85	1836
1767.87	1894
1768.88	1886
1769.9	1836
1770.91	1872
1771.93	1896
1772.94	1888
1773.96	1914
1774.97	1882
1775.99	1886
1777	1866
1778.02	1882
1779.03	1884
1780.04	1880
1781.06	1846
1782.07	1864
1783.09	1882
1784.1	1812
1785.11	1890
1786.13	1830
1787.14	1842
1788.15	1832
1789.16	1862
1790.18	1836
1791.19	1874
1792.2	1852
1793.21	1922
1794.22	1802
1795.23	1856
1796.25	1848
1797.26	1796
1798.27	1844
1799.28	1818
1800.29	1798
1801.3	1834
1802.31	1822
1803.32	1836
1804.33	1764
1805.34	1824
1806.35	1806
1807.36	1806
1808.37	1836
1809.38	1782
1810.39	1852
1811.4	1788
1812.41	1850
1813.42	1784
1814.43	1852
1815.43	1826
1816.44	1780
1817.45	1828
1818.46	1816
1819.47	1784
1820.47	1786
1821.48	1798
1822.49	1764
1823.49	1824
1824.5	1822
1825.51	1754
1826.52	1746
1827.52	1776
1828.53	1822
1829.54	1758
1830.54	1764
1831.55	1824
1832.55	1784
1833.56	1770
1834.56	1828
1835.57	1774
1836.57	1744
1837.58	1756
1838.58	1764
1839.59	1772
1840.59	1742
1841.6	1746
1842.6	1720
1843.61	1800
1844.61	1764
1845.61	1726
1846.62	1774
1847.62	1726
1848.62	1756
1849.63	1682
1850.63	1738
1851.63	1736
1852.64	1676
1853.64	1692
1854.64	1720
1855.64	1696
1856.64	1698
1857.65	1760
1858.65	1726
1859.65	1738
1860.65	1734
1861.65	1720
1862.65	1692
1863.65	1718
1864.66	1692
1865.66	1712
1866.66	1640
1867.66	1712
1868.66	1740
1869.66	1724
1870.66	1696
1871.66	1712
1872.66	1698
1873.66	1734
1874.66	1714
1875.65	1654
1876.65	1698
1877.65	1678
1878.65	1692
1879.65	1684
1880.65	1712
1881.65	1660
1882.64	1694
1883.64	1660
1884.64	1690
1885.64	1672
1886.63	1686
1887.63	1660
1888.63	1662
1889.63	1674
1890.62	1650
1891.62	1652
1892.62	1678
1893.61	1658
1894.61	1634
1895.6	1624
1896.6	1662
1897.6	1604
1898.59	1686
1899.59	1698
1900.58	1692
1901.58	1650
1902.57	1620
1903.57	1654
1904.56	1692
1905.56	1654
1906.55	1654
1907.54	1662
1908.54	1658
1909.53	1698
1910.53	1600
1911.52	1648
1912.51	1608
1913.51	1704
1914.5	1598
1915.49	1624
1916.49	1658
1917.48	1650
1918.47	1666
1919.46	1640
1920.46	1632
1921.45	1644
1922.44	1618
1923.43	1592
1924.42	1626
1925.41	1668
1926.41	1628
1927.4	1630
1928.39	1636
1929.38	1622
1930.37	1638
1931.36	1662
1932.35	1602
1933.34	1618
1934.33	1662
1935.32	1582
1936.31	1614
1937.3	1632
1938.29	1596
1939.28	1616
1940.27	1614
1941.26	1584
1942.24	1632
1943.23	1622
1944.22	1606
1945.21	1674
1946.2	1594
1947.19	1624
1948.17	1572
1949.16	1578
1950.15	1591
1951.14	1604
1952.13	1562
1953.11	1564
1954.1	1640
1955.09	1606
1956.07	1620
1957.06	1562
1958.05	1590
1959.03	1598
1960.02	1600
1961	1608
1961.99	1558
1962.98	1594
1963.96	1558
1964.95	1562
1965.93	1580
1966.92	1504
1967.9	1540
1968.89	1566
1969.87	1542
1970.85	1620
1971.84	1562
1972.82	1592
1973.81	1548
1974.79	1562
1975.78	1534
1976.76	1550
1977.74	1544
1978.73	1570
1979.71	1576
1980.69	1514
1981.67	1576
1982.66	1530
1983.64	1548
1984.62	1572
1985.6	1562
1986.59	1576
1987.57	1524
1988.55	1538
1989.53	1532
1990.51	1560
1991.49	1586
1992.47	1546
1993.45	1550
1994.44	1558
1995.42	1512
1996.4	1586
1997.38	1510
1998.36	1538
1999.34	1540
2000.32	1534
2001.3	1532
2002.28	1550
2003.26	1564
2004.24	1566
2005.22	1564
2006.19	1512
2007.17	1522
2008.15	1544
2009.13	1516
2010.11	1502
2011.09	1554
2012.06	1528
2013.04	1562
2014.02	1522
2015	1478
2015.98	1512
2016.95	1502
2017.93	1462
2018.91	1514
2019.88	1548
2020.86	1530
2021.84	1536
2022.81	1512
2023.79	1528
2024.77	1520
2025.74	1512
2026.72	1512
2027.69	1508
2028.67	1552
2029.65	1554
2030.62	1540
2031.6	1530
2032.57	1500
2033.55	1496
2034.52	1534
2035.5	1474
2036.47	1514
2037.44	1514
2038.42	1450
2039.39	1472
2040.36	1466
2041.34	1492
2042.31	1494
2043.29	1516
2044.26	1482
2045.23	1470
2046.2	1512
2047.18	1502
2048.15	1512
2049.12	1486
2050.09	1464
2051.07	1470
2052.04	1456
2053.01	1556
2053.98	1472
2054.95	1514
2055.93	1446
2056.9	1478
2057.87	1468
2058.84	1474
2059.81	1494
2060.78	1464
2061.75	1488
2062.72	1474
2063.69	1450
2064.66	1490
2065.63	1462
2066.6	1504
2067.57	1456
2068.54	1470
2069.51	1470
2070.48	1464
2071.45	1476
2072.42	1402
2073.38	1492
2074.35	1480
2075.32	1466
2076.29	1438
2077.26	1442
2078.23	1478
2079.19	1440
2080.16	1504
2081.13	1436
2082.1	1484
2083.06	1470
2084.03	1456
2085	1472
2085.96	1418
2086.93	1446
2087.9	1456
2088.86	1458
2089.83	1422
2090.8	1472
2091.76	1432
2092.73	1458
2093.69	1426
2094.66	1466
2095.62	1424
2096.59	1390
2097.55	1418
2098.52	1434
2099.48	1414
2100.45	1426
2101.41	1416
2102.38	1462
2103.34	1436
2104.31	1424
2105.27	1412
2106.23	1396
2107.2	1408
2108.16	1444
2109.12	1428
2110.09	1434
2111.05	1462
2112.01	1472
2112.98	1418
2113.94	1394
2114.9	1416
2115.86	1374
2116.82	1390
2117.79	1416
2118.75	1370
2119.71	1422
2120.67	1408
2121.63	1394
2122.59	1424
2123.55	1422
2124.52	1378
2125.48	1388
2126.44	1444
2127.4	1426
2128.36	1394
2129.32	1414
2130.28	1424
2131.24	1418
2132.2	1438
2133.16	1374
2134.12	1398
2135.08	1404
2136.04	1392
2136.99	1406
2137.95	1414
2138.91	1414
2139.87	1330
2140.83	1428
2141.79	1414
2142.75	1404
2143.7	1378
2144.66	1412
2145.62	1399.96
2146.58	1387.71
2147.53	1395.7
2148.49	1376.49
2149.45	1350.61
2150.41	1331.87
2151.36	1421.32
2152.32	1321.1
2153.28	1392.07
2154.23	1381.73
2155.19	1375.61
2156.14	1360.63
2157.1	1346.58
2158.06	1382.05
2159.01	1369.13
2159.97	1360.43
2160.92	1333.96
2161.88	1364.24
2162.83	1362.89
2163.79	1379.59
2164.74	1322.81
2165.7	1346.72
2166.65	1369.46
2167.61	1340.72
2168.56	1361.48
2169.51	1359.15
2170.47	1344.05
2171.42	1351.42
2172.38	1312.27
2173.33	1325.98
2174.28	1361.02
2175.24	1353.24
2176.19	1367.61
2177.14	1371
2178.09	1328.3
2179.05	1349.53
2180	1338.89
2180.95	1335.14
2181.9	1318.68
2182.86	1311.64
2183.81	1332.34
2184.76	1293.7
2185.71	1329.85
2186.66	1331.99
2187.61	1303.62
2188.57	1330.46
2189.52	1343.26
2190.47	1297.39
2191.42	1327.07
2192.37	1312.77
2193.32	1318.01
2194.27	1318.24
2195.22	1329.73
2196.17	1326.29
2197.12	1318
2198.07	1303.62
2199.02	1272.29
2199.97	1308.64
2200.92	1323.43
2201.87	1311.04
2202.82	1293.57
2203.76	1302.2
2204.71	1308.93
2205.66	1299.33
2206.61	1308.34
2207.56	1302.84
2208.51	1308.13
2209.45	1279.67
2210.4	1299.14
2211.35	1317.93
2212.3	1279.92
2213.25	1310.02
2214.19	1329.02
2215.14	1302.4
2216.09	1321.77
2217.03	1308.13
2217.98	1285.7
2218.93	1280.27
2219.87	1303.37
2220.82	1299.66
2221.77	1303.8
2222.71	1294.82
2223.66	1289.58
2224.6	1287.18
2225.55	1288.13
2226.49	1320.17
2227.44	1311.75
2228.38	1306.96
2229.33	1305.79
2230.27	1323.15
2231.22	1324.56
2232.16	1282.29
2233.11	1252.57
2234.05	1266.42
2235	1281.78
2235.94	1274.59
2236.88	1285.07
2237.83	1293.97
2238.77	1287.96
2239.72	1300.35
2240.66	1314.73
2241.6	1302.88
2242.07	1286
2243.02	1326
2243.97	1318
2244.92	1306
2245.87	1316
2246.81	1282
2247.76	1310
2248.71	1302
2249.65	1266
2250.6	1300
2251.55	1310
2252.49	1304
2253.44	1256
2254.39	1282
2255.33	1246
2256.28	1296
2257.22	1284
2258.17	1264
2259.12	1292
2260.06	1284
2261.01	1268
2261.95	1348
2262.9	1292
2263.84	1326
2264.78	1278
2265.73	1286
2266.67	1290
2267.62	1314
2268.56	1284
2269.51	1284
2270.45	1264
2271.39	1290
2272.34	1256
2273.28	1310
2274.22	1298
2275.17	1256
2276.11	1252
2277.05	1264
2277.99	1280
2278.94	1252
2279.88	1252
2280.82	1266
2281.76	1270
2282.71	1262
2283.65	1270
2284.59	1294
2285.53	1260
2286.47	1278
2287.41	1280
2288.35	1194
2289.3	1210
2290.24	1264
2291.18	1246
2292.12	1304
2293.06	1262
2294	1194
2294.94	1242
2295.88	1224
2296.82	1256
2297.76	1238
2298.7	1226
2299.64	1264
2300.58	1254
2301.52	1234
2302.46	1248
2303.39	1210
2304.33	1218
2305.27	1226
2306.21	1258
2307.15	1208
2308.09	1230
2309.02	1190
2309.96	1188
2310.9	1204
2311.84	1248
2312.77	1270
2313.71	1224
2314.65	1230
2315.59	1224
2316.52	1216
2317.46	1232
2318.4	1228
2319.33	1226
2320.27	1208
2321.21	1192
2322.14	1284
2323.08	1210
2324.01	1228
2324.95	1228
2325.89	1194
2326.82	1222
2327.76	1208
2328.69	1168
2329.63	1178
2330.56	1182
2331.5	1212
2332.43	1174
2333.36	1236
2334.3	1212
2335.23	1162
2336.17	1182
2337.1	1194
2338.03	1190
2338.97	1174
2339.9	1216
2340.83	1184
2341.77	1184
2342.7	1192
2343.63	1158
2344.57	1166
2345.5	1178
2346.43	1200
2347.36	1144
2348.3	1236
2349.23	1142
2350.16	1186
2351.09	1182
2352.02	1156
2352.95	1174
2353.89	1172
2354.82	1168
2355.75	1170
2356.68	1180
2357.61	1200
2358.54	1194
2359.47	1162
2360.4	1170
2361.33	1182
2362.26	1158
2363.19	1156
2364.12	1150
2365.05	1142
2365.98	1174
2366.91	1138
2367.84	1118
2368.77	1154
2369.7	1166
2370.63	1172
2371.56	1154
2372.48	1120
2373.41	1154
2374.34	1154
2375.27	1166
2376.2	1146
2377.12	1156
2378.05	1142
2378.98	1136
2379.91	1120
2380.84	1136
2381.76	1116
2382.69	1130
2383.62	1164
2384.54	1136
2385.47	1126
2386.4	1116
2387.32	1128
2388.25	1112
2389.18	1118
2390.1	1120
2391.03	1150
2391.95	1156
2392.88	1112
2393.8	1098
2394.73	1074
2395.65	1142
2396.58	1096
2397.5	1116
2398.43	1158
2399.35	1122
2400.28	1084
2401.2	1122
2402.13	1136
2403.05	1114
2403.97	1074
2404.9	1114
2405.82	1138
2406.75	1106
2407.67	1110
2408.59	1108
2409.51	1096
2410.44	1086
2411.36	1122
2412.28	1080
2413.21	1100
2414.13	1072
2415.05	1102
2415.97	1088
2416.9	1084
2417.82	1098
2418.74	1098
2419.66	1062
2420.58	1106
2421.5	1050
2422.42	1080
2423.35	1098
2424.27	1068
2425.19	1116
2426.11	1046
2427.03	1074
2427.95	1096
2428.87	1096
2429.79	1104
2430.71	1088
2431.63	1068
2432.55	1060
2433.47	1070
2434.39	1088
2435.31	1092
2436.23	1050
2437.14	1080
2438.06	1040
2438.98	1108
2439.9	1038
2440.82	1074
2441.74	1064
2442.66	1086
2443.57	1064
2444.49	1052
2445.41	1024
2446.33	1050
2447.24	1034
2448.16	1068
2449.08	1062
2450	1024
2450.91	1034
2451.83	1066
2452.75	1036
2453.66	1038
2454.58	1058
2455.5	1038
2456.41	1024
2457.33	1046
2458.24	1030
2459.16	1038
2460.08	1042
2460.99	992
2461.91	1074
2462.82	1038
2463.74	1060
2464.65	998
2465.57	1026
2466.48	1042
2467.4	986
2468.31	1024
2469.22	1010
2470.14	1012
2471.05	1024
2471.97	1012
2472.88	994
2473.79	980
2474.71	992
2475.62	988
2476.53	990
2477.45	1050
2478.36	1024
2479.27	1040
2480.19	1020
2481.1	1018
2482.01	1004
2482.92	988
2483.83	994
2484.75	984
2485.66	1002
2486.57	964
2487.48	976
2488.39	976
2489.3	964
2490.22	990
2491.13	1018
2492.04	996
2492.95	956
2493.86	978
2494.77	986
2495.68	978
2496.59	988
2497.5	968
2498.41	962
2499.32	984
2500.23	946
2501.14	998
2502.05	986
2502.96	928
2503.87	956
2504.78	980
2505.68	918
2506.59	950
2507.5	960
2508.41	968
2509.32	956
2510.23	934
2511.14	952
2512.04	978
2512.95	994
2513.86	946
2514.77	926
2515.67	924
2516.58	918
2517.49	944
2518.39	950
2519.3	958
2520.21	944
2521.11	944
2522.02	926
2522.93	942
2523.83	928
2524.74	942
2525.65	942
2526.55	920
2527.46	930
2528.36	944
2529.27	914
2530.17	926
2531.08	942
2531.98	892
2532.89	912
2533.79	932
2534.7	940
2535.6	910
2536.51	922
2537.41	900
2538.32	914
2539.22	930
2540.12	930
2541.03	906
2541.93	872
2542.83	898
2543.74	892
2544.64	894
2545.54	916
2546.45	926
2547.35	902
2548.25	910
2549.15	890
2550.06	864
2550.96	860
2551.86	896
2552.76	868
2553.66	896
2554.56	876
2555.47	890
2556.37	902
2557.27	872
2558.17	912
2559.07	910
2559.97	888
2560.87	878
2561.77	850
2562.67	902
2563.58	896
2564.47	874
2565.38	874
2566.27	860
2567.18	880
2568.07	868
2568.97	856
2569.87	876
2570.77	890
2571.67	854
2572.57	884
2573.47	858
2574.37	846
2575.27	840
2576.17	836
2577.06	902
2577.96	830
2578.86	874
2579.76	840
2580.66	868
2581.55	844
2582.45	858
2583.35	852
2584.25	890
2585.14	876
2586.04	836
2586.94	844
2587.83	838
2588.73	846
2589.63	832
2590.52	832
2591.42	828
2592.32	844
2593.21	832
2594.11	846
2595	824
2595.9	840
2596.8	846
2597.69	824
2598.59	834
2599.48	834
2600.38	794
2601.27	790
2602.17	788
2603.06	802
2603.95	828
2604.85	828
2605.74	792
2606.64	814
2607.53	816
2608.42	814
2609.32	784
2610.21	818
2611.1	808
2612	840
2612.89	788
2613.78	788
2614.68	808
2615.57	784
2616.46	770
2617.36	774
2618.25	770
2619.14	796
2620.03	790
2620.92	786
2621.82	784
2622.71	796
2623.6	804
2624.49	802
2625.38	762
2626.27	794
2627.16	782
2628.05	770
2628.95	778
2629.84	804
2630.73	750
2631.62	778
2632.51	772
2633.4	758
2634.29	784
2635.18	794
2636.07	770
2636.96	754
2637.85	764
2638.74	750
2639.62	786
2640.51	798
2641.4	764
2642.29	802
2643.18	776
2644.07	798
2644.96	744
2645.85	744
2646.73	736
2647.62	776
2648.51	742
2649.4	762
2650.28	724
2651.17	734
2652.06	732
2652.95	736
2653.83	762
2654.72	778
2655.61	766
2656.5	776
2657.38	716
2658.27	728
2659.15	706
2660.04	752
2660.93	716
2661.81	726
2662.7	720
2663.58	736
2664.47	748
2665.35	722
2666.24	744
2667.13	720
2668.01	694
2668.9	716
2669.78	758
2670.66	734
2671.55	720
2672.43	730
2673.32	700
2674.2	718
2675.09	740
2675.97	750
2676.85	752
2677.74	710
2678.62	758
2679.5	712
2680.39	710
2681.27	712
2682.15	700
2683.04	680
2683.92	708
2684.8	706
2685.68	710
2686.57	692
2687.45	714
2688.33	694
2689.21	724
2690.09	726
2690.98	702
2691.86	700
2692.74	718
2693.62	692
2694.5	710
2695.38	700
2696.26	660
2697.15	718
2698.03	692
2698.91	688
2699.79	682
2700.67	672
2701.55	674
2702.43	726
2703.31	706
2704.19	712
2705.07	680
2705.95	706
2706.83	682
2707.7	660
2708.58	720
2709.46	688
2710.34	682
2711.22	656
2712.1	674
2712.98	678
2713.86	668
2714.73	690
2715.61	654
2716.49	664
2717.37	696
2718.25	674
2719.12	652
2720	656
2720.88	664
2721.76	680
2722.63	656
2723.51	642
2724.39	654
2725.26	690
2726.14	654
2727.02	656
2727.89	634
2728.77	658
2729.64	668
2730.52	638
2731.4	690
2732.27	638
2733.15	688
2734.02	642
2734.9	632
2735.77	634
2736.65	636
2737.52	636
2738.4	628
2739.27	652
2740.15	628
2741.02	628
2741.9	634
2742.77	652
2743.64	642
2744.52	636
2745.39	666
2746.27	594
2747.14	608
2748.01	644
2748.89	620
2749.76	664
2750.63	652
2751.51	618
2752.38	620
2753.25	646
2754.12	624
2755	640
2755.87	574
2756.74	612
2757.61	644
2758.48	620
2759.35	644
2760.23	554
2761.1	644
2761.97	600
2762.84	618
2763.71	598
2764.58	610
2765.45	594
2766.32	614
2767.19	624
2768.07	632
2768.94	598
2769.81	620
2770.68	596
2771.55	626
2772.42	618
2773.29	600
2774.16	630
2775.02	586
2775.89	596
2776.76	592
2777.63	616
2778.5	592
2779.37	582
2780.24	576
2781.11	580
2781.98	594
2782.84	584
2783.71	588
2784.58	602
2785.45	586
2786.32	598
2787.18	574
2788.05	590
2788.92	580
2789.79	590
2790.65	586
2791.52	598
2792.39	552
2793.25	574
2794.12	564
2794.99	552
2795.85	592
2796.72	570
2797.59	546
2798.45	588
2799.32	580
2800.18	576
2801.05	582
2801.92	604
2802.78	566
2803.65	559
2804.51	552
2805.38	592
2806.24	580
2807.11	574
2807.97	540
2808.84	578
2809.7	568
2810.57	548
2811.43	560
2812.29	556
2813.16	544
2814.02	546
2814.88	550
2815.75	562
2816.61	548
2817.47	536
2818.34	554
2819.2	544
2820.06	540
2820.93	558
2821.79	556
2822.65	552
2823.51	532
2824.38	524
2825.24	550
2826.1	516
2826.96	546
2827.82	534
2828.69	540
2829.55	544
2830.41	526
2831.27	516
2832.13	564
2832.99	538
2833.85	564
2834.71	520
2835.57	536
2836.44	526
2837.3	522
2838.16	532
2839.02	516
2839.88	528
2840.74	534
2841.6	534
2842.46	556
2843.32	500
2844.18	504
2845.03	502
2845.89	516
2846.75	532
2847.61	502
2848.47	540
2849.33	516
2850.19	516
2851.05	526
2851.9	548
2852.76	500
2853.62	548
2854.48	508
2855.34	516
2856.19	506
2857.05	530
2857.91	496
2858.77	512
2859.62	484
2860.48	520
2861.34	512
2862.19	500
2863.05	538
2863.91	504
2864.76	494
2865.62	516
2866.48	488
2867.33	500
2868.19	514
2869.04	516
2869.9	500
2870.76	504
2871.61	484
2872.47	494
2873.32	486
2874.18	490
2875.03	478
2875.89	492
2876.74	482
2877.6	502
2878.45	478
2879.31	496
2880.16	506
2881.01	492
2881.87	490
2882.72	486
2883.58	496
2884.43	478
2885.28	498
2886.14	490
2886.99	498
2887.84	482
2888.7	464
2889.55	482
2890.4	492
2891.25	484
2892.11	472
2892.96	476
2893.81	474
2894.66	478
2895.52	468
2896.37	496
2897.22	454
2898.07	486
2898.92	466
2899.77	484
2900.62	490
2901.48	466
2902.33	468
2903.18	478
2904.03	470
2904.88	470
2905.73	480
2906.58	472
2907.43	448
2908.28	460
2909.13	482
2909.98	480
2910.83	470
2911.68	476
2912.53	462
2913.38	446
2914.23	466
2915.08	458
2915.93	486
2916.78	426
2917.63	446
2918.47	468
2919.32	474
2920.17	458
2921.02	468
2921.87	424
2922.72	464
2923.56	472
2924.41	470
2925.26	440
2926.11	442
2926.95	460
2927.8	442
2928.65	448
2929.5	464
2930.34	452
2931.19	470
2932.04	426
2932.88	438
2933.73	484
2934.58	458
2935.42	432
2936.27	428
2937.11	446
2937.96	454
2938.81	418
2939.65	480
2940.5	428
2941.34	448
2942.19	446
2943.03	450
2943.88	454
2944.72	452
2945.57	406
2946.41	456
2947.26	442
2948.1	458
2948.95	428
2949.79	436
2950.64	468
2951.48	450
2952.32	430
2953.17	442
2954.01	432
2954.85	438
2955.7	444
2956.54	474
2957.38	438
2958.23	436
2959.07	454
2959.91	414
2960.75	450
2961.6	438
2962.44	442
2963.28	422
2964.12	448
2964.97	436
2965.81	422
2966.65	412
2967.49	420
2968.33	408
2969.17	424
2970.02	454
2970.86	424
2971.7	426
2972.54	436
2973.38	400
2974.22	420
2975.06	428
2975.9	396
2976.74	400
2977.58	426
2978.42	430
2979.26	408
2980.1	412
2980.94	392
2981.78	400
2982.62	410
2983.46	414
2984.3	390
2985.14	398
2985.98	394
2986.82	400
2987.66	404
2988.49	402
2989.33	388
2990.17	404
2991.01	408
2991.85	412
2992.69	396
2993.52	386
2994.36	402
2995.2	418
2996.04	418
2996.87	390
2997.71	382
2998.55	392
2999.39	378
