#Acq. time (s)=	10
#Accumulations=	1
#Range (cm-¹)=	100...3000
#Windows=	3
#Autofocus=	Off
#AutoExposure=	Off
#Spike filter=	Off
#Delay time (s)=	0
#Binning=	1
#Readout mode=	Signal
#DeNoise=	Off
#ICS correction=	Off
#Dark correction=	Off
#Inst. Process=	Off
#Instrument=	LabRAM HR Evol
#Detector=	Syncerity OE
#Objective=	x100_VIS
#Grating=	600 (500nm)
#ND Filter=	5%
#Laser=	633nm_Edge
#Hole=	74.97
#Range=	Visible
#Project=	Omar
#Sample=	26-06-23
#Site=	1
#Title=	Organic
#Remark=	
#Date=	26.06.2023 15:56
#Acquired=	26.06.2023 15:56:08
101.018	1914
102.302	1890
103.586	1864
104.869	1794
106.152	1838
107.435	1848
108.717	1882
109.999	1874
111.281	1840
112.563	1892
113.845	1872
115.126	1886
116.407	1814
117.688	1836
118.969	1864
120.249	1836
121.53	1904
122.81	1898
124.09	1838
125.369	1856
126.649	1826
127.928	1930
129.207	1856
130.486	1868
131.765	1870
133.043	1882
134.321	1862
135.599	1932
136.877	1868
138.155	1876
139.432	1904
140.708	1898
141.985	1920
143.261	1916
144.538	1844
145.814	1874
147.09	1864
148.366	1838
149.641	1858
150.916	1880
152.191	1860
153.466	1904
154.741	1944
156.016	1846
157.289	1898
158.563	1888
159.837	1872
161.111	1854
162.385	1868
163.657	1838
164.93	1878
166.203	1848
167.476	1860
168.747	1908
170.019	1876
171.291	1870
172.562	1872
173.834	1838
175.105	1824
176.377	1862
177.646	1844
178.917	1856
180.188	1814
181.457	1836
182.727	1862
183.996	1840
185.266	1884
186.536	1888
187.804	1918
189.073	1860
190.342	1870
191.609	1868
192.878	1860
194.145	1882
195.413	1882
196.681	1896
197.948	1814
199.215	1814
200.481	1862
201.749	1856
203.014	1918
204.281	1846
205.546	1918
206.813	1838
208.077	1870
209.343	1898
210.608	1914
211.873	1890
213.137	1900
214.402	1900
215.666	1868
216.93	1912
218.194	1914
219.458	1894
220.721	1838
221.983	1860
223.247	1836
224.509	1896
225.772	1864
227.034	1910
228.295	1910
229.558	1898
230.819	1896
232.081	1884
233.342	1914
234.602	1898
235.864	1882
237.124	1972
238.384	1874
239.645	1912
240.904	1926
242.164	1914
243.423	1884
244.683	1944
245.941	1922
247.2	1948
248.46	1932
249.717	1894
250.975	1924
252.233	1932
253.492	1900
254.749	1890
256.006	1936
257.263	1894
258.519	1928
259.777	1880
261.033	1892
262.289	1934
263.545	1932
264.8	1906
266.057	1922
267.312	1892
268.567	1914
269.822	1912
271.076	1892
272.331	1852
273.585	1876
274.839	1976
276.094	1874
277.347	1826
278.601	1902
279.854	1912
281.107	1886
282.359	1956
283.612	1910
284.864	1918
286.116	1936
287.368	1926
288.62	1918
289.871	1874
291.123	1932
292.374	1904
293.625	1940
294.875	1938
296.126	1924
297.376	1940
298.626	1930
299.876	1958
301.126	1974
302.375	1960
303.625	1954
304.874	1958
306.122	1888
307.371	1980
308.62	1942
309.866	1960
311.114	2012
312.362	1962
313.61	1914
314.857	1960
316.105	1944
317.352	1876
318.599	1954
319.844	1958
321.09	1938
322.337	1958
323.583	1936
324.828	1956
326.073	1910
327.318	1956
328.563	1956
329.808	1972
331.053	1984
332.296	2006
333.541	1962
334.785	1922
336.029	1980
337.272	1932
338.515	1936
339.759	1942
341.001	2010
342.244	2026
343.486	2016
344.728	1964
345.97	1984
347.212	1974
348.453	1952
349.695	1984
350.936	1974
352.176	2032
353.418	2008
354.659	1962
355.898	2028
357.139	2000
358.378	1986
359.618	2016
360.858	2000
362.097	1968
363.336	1974
364.574	1992
365.813	1974
367.051	1954
368.29	1994
369.527	2020
370.766	2032
372.002	1952
373.241	2044
374.477	1952
375.715	1998
376.951	2038
378.188	2042
379.424	2010
380.66	1926
381.896	2014
383.132	2018
384.367	1980
385.603	2004
386.838	1996
388.072	1998
389.307	2020
390.541	2060
391.776	2000
393.01	1996
394.243	2018
395.477	1970
396.71	2050
397.943	1998
399.177	2010
400.409	2018
401.641	2016
402.875	2056
404.106	2028
405.338	2068
406.57	2068
407.802	2038
409.032	2088
410.263	2062
411.495	2058
412.725	2082
413.955	2094
415.185	2084
416.417	2112
417.646	2112
418.875	2108
420.104	2074
421.335	2114
422.564	2200
423.792	2194
425.02	2170
426.249	2128
427.477	2174
428.706	2186
429.933	2170
431.161	2100
432.388	2216
433.615	2122
434.841	2128
436.068	2136
437.294	2202
438.522	2162
439.748	2136
440.974	2180
442.199	2210
443.425	2184
444.65	2138
445.875	2126
447.1	2196
448.324	2202
449.549	2140
450.773	2118
451.997	2210
453.221	2192
454.445	2126
455.668	2206
456.891	2162
458.114	2182
459.337	2190
460.56	2158
461.782	2192
463.005	2212
464.227	2202
465.447	2198
466.669	2192
467.89	2204
469.112	2184
470.333	2248
471.554	2168
472.774	2238
473.995	2236
475.214	2214
476.434	2252
477.654	2278
478.874	2268
480.093	2268
481.312	2254
482.53	2258
483.749	2214
484.968	2300
486.186	2312
487.405	2300
488.622	2330
489.84	2270
491.057	2314
492.275	2346
493.491	2338
494.708	2300
495.925	2266
497.141	2396
498.357	2352
499.574	2304
500.789	2314
502.005	2344
503.221	2324
504.435	2308
505.65	2398
506.866	2342
508.079	2346
509.294	2340
510.509	2324
511.722	2306
512.936	2362
514.149	2366
515.363	2412
516.577	2380
517.789	2348
519.002	2384
520.214	2392
521.427	2400
522.638	2454
523.851	2338
525.062	2446
526.274	2418
527.485	2416
528.697	2376
529.907	2404
531.118	2378
532.328	2414
533.539	2364
534.748	2382
535.959	2440
537.168	2432
538.379	2456
539.587	2428
540.796	2510
542.005	2432
543.214	2456
544.423	2460
545.631	2468
546.838	2530
548.047	2466
549.254	2500
550.461	2482
551.669	2460
552.876	2554
554.082	2492
555.29	2516
556.496	2524
557.701	2520
558.909	2506
560.114	2520
561.319	2560
562.524	2582
563.731	2558
564.935	2536
566.14	2542
567.344	2546
568.549	2572
569.753	2596
570.957	2688
572.161	2612
573.364	2624
574.568	2638
575.771	2666
576.974	2698
578.177	2590
579.379	2630
580.581	2678
581.785	2692
582.987	2726
584.188	2714
585.39	2664
586.591	2708
587.792	2666
588.993	2714
590.193	2714
591.394	2738
592.594	2738
593.796	2760
594.996	2814
596.195	2824
597.395	2768
598.594	2778
599.793	2838
600.992	2822
602.191	2824
603.39	2836
604.588	2804
605.786	2816
606.984	2934
608.181	2874
609.378	2966
610.576	2936
611.773	2934
612.97	2854
614.167	2922
615.364	2952
616.56	2996
617.757	2942
618.953	2906
620.149	3048
621.343	2994
622.539	3046
623.734	3004
624.929	3024
626.124	3074
627.319	3056
628.512	3104
629.707	3166
630.901	3118
632.095	3124
633.289	3136
634.481	3226
635.675	3146
636.868	3216
638.061	3244
639.253	3232
640.446	3182
641.638	3220
642.831	3196
644.021	3282
645.213	3290
646.405	3312
647.595	3300
648.787	3318
649.978	3328
651.168	3298
652.359	3426
653.549	3360
654.738	3420
655.929	3416
657.117	3424
658.307	3388
659.497	3426
660.685	3400
661.875	3472
663.063	3528
664.252	3446
665.439	3530
666.628	3470
667.816	3526
669.003	3588
670.191	3590
671.378	3560
672.565	3562
673.751	3634
674.939	3534
676.124	3620
677.311	3634
678.497	3664
679.682	3660
680.868	3642
682.053	3694
683.239	3674
684.424	3628
685.609	3682
686.793	3804
687.977	3722
689.162	3720
690.346	3730
691.529	3750
692.714	3808
693.897	3862
695.081	3814
696.264	3872
697.446	3850
698.63	3864
699.812	3844
700.993	3876
702.175	3898
703.358	3968
704.539	3966
705.72	3994
706.901	3950
708.083	3990
709.264	4030
710.444	4066
711.625	3986
712.806	4112
713.986	4062
715.165	4130
716.345	4112
717.524	4200
718.705	4162
719.884	4120
721.062	4166
722.241	4300
723.419	4230
724.597	4348
725.775	4308
726.954	4304
728.132	4310
729.31	4308
730.487	4336
731.664	4320
732.841	4364
734.017	4392
735.194	4362
736.37	4402
737.546	4484
738.722	4484
739.898	4452
741.074	4490
742.249	4484
743.424	4500
744.599	4530
745.774	4566
746.949	4550
748.123	4566
749.298	4698
750.472	4638
751.646	4660
752.819	4638
753.993	4666
755.166	4722
756.34	4786
757.511	4748
758.684	4770
759.857	4666
761.029	4764
762.202	4908
763.374	4836
764.546	4826
765.716	4904
766.888	4880
768.059	4976
769.23	4990
770.401	4978
771.571	4910
772.741	4970
773.912	4982
775.082	5062
776.251	5080
777.421	5048
778.59	5064
779.76	5154
780.928	5210
782.097	5168
783.266	5130
784.434	5244
785.602	5294
786.771	5280
787.938	5264
789.106	5202
790.274	5248
791.44	5342
792.608	5384
793.775	5384
794.941	5370
796.108	5430
797.273	5466
798.44	5514
799.606	5386
800.771	5492
801.937	5520
803.102	5568
804.268	5580
805.432	5592
806.597	5666
807.761	5636
808.926	5720
810.09	5716
811.254	5618
812.417	5844
813.582	5844
814.744	5932
815.908	5844
817.071	5904
818.234	5878
819.396	5932
820.558	6062
821.721	6138
822.883	6024
824.045	6100
825.206	6002
826.367	6096
827.529	6166
828.69	6118
829.85	6180
831.012	6220
832.172	6130
833.332	6232
834.493	6296
835.653	6262
836.812	6290
837.972	6338
839.131	6352
840.29	6474
841.449	6422
842.609	6440
843.767	6508
844.925	6440
846.083	6448
847.242	6538
848.399	6592
849.557	6574
850.714	6654
851.871	6674
853.029	6648
854.186	6626
855.342	6724
856.498	6792
857.654	6880
858.81	6836
859.966	6920
861.122	6730
862.278	6802
863.434	6956
864.589	6860
865.744	6880
866.898	6964
868.053	6968
869.207	7116
870.361	7100
871.515	6952
872.669	7072
873.822	7112
874.976	7126
876.129	7108
877.282	7076
878.435	7066
879.588	7192
880.74	7214
881.893	7278
883.045	7172
884.197	7162
885.349	7286
886.5	7386
887.652	7292
888.802	7238
889.953	7256
891.104	7320
892.254	7414
893.405	7396
894.555	7294
895.706	7442
896.854	7280
898.004	7542
899.154	7514
900.303	7456
901.453	7472
902.6	7678
903.749	7520
904.898	7502
906.047	7556
907.194	7576
908.342	7614
909.49	7718
910.638	7708
911.785	7574
912.932	7692
914.08	7672
915.225	7720
916.372	7798
917.519	7716
918.666	7752
919.811	7870
920.957	7790
922.102	7858
923.248	7790
924.394	7838
925.538	7886
926.684	8008
927.828	7848
928.973	7938
930.118	8042
931.261	7996
932.406	8058
933.549	7964
934.693	8098
935.836	8086
936.979	8218
938.122	8076
939.265	8078
940.407	8162
941.55	8188
942.692	8324
943.835	8274
944.976	8286
946.118	8238
947.259	8332
948.401	8420
949.542	8220
950.682	8358
951.824	8410
952.964	8412
954.105	8392
955.245	8550
956.385	8308
957.525	8444
958.664	8588
959.803	8446
960.944	8504
962.082	8480
963.221	8538
964.36	8740
965.498	8666
966.636	8684
967.774	8694
968.913	8592
970.051	8714
971.188	8691
972.325	8668
973.463	8746
974.6	8734
975.736	8708
976.873	8778
978.009	8736
979.146	8762
980.282	8724
981.418	8798
982.554	8842
983.689	8948
984.824	8896
985.959	8878
987.095	8836
988.23	8824
989.364	8830
990.499	8828
991.633	8850
992.767	8974
993.9	8884
995.034	8978
996.167	8890
997.301	9010
998.434	9080
999.567	8978
1000.7	9136
1001.83	9006
1002.96	8956
1004.1	9018
1005.23	9006
1006.36	8988
1007.49	9074
1008.62	8964
1009.76	8972
1010.89	9040
1012.02	9090
1013.15	9192
1014.28	9140
1015.41	9170
1016.54	9078
1017.67	9120
1018.8	9218
1019.93	9086
1021.06	9200
1022.19	9210
1023.32	9136
1024.44	9374
1025.57	9286
1026.7	9310
1027.83	9244
1028.96	9326
1030.09	9342
1031.21	9324
1032.34	9364
1033.47	9276
1034.6	9420
1035.72	9474
1036.85	9336
1037.98	9380
1039.1	9416
1040.23	9366
1041.35	9312
1042.48	9500
1043.61	9490
1044.73	9444
1045.86	9526
1046.98	9342
1048.11	9346
1049.23	9560
1050.36	9440
1051.48	9532
1052.61	9568
1053.73	9416
1054.85	9480
1055.98	9422
1057.1	9676
1058.22	9542
1059.35	9526
1060.47	9566
1061.59	9492
1062.72	9564
1063.84	9472
1064.96	9542
1066.08	9568
1067.2	9564
1068.33	9592
1069.45	9532
1070.57	9450
1071.69	9644
1072.81	9502
1073.93	9516
1075.05	9418
1076.17	9602
1077.29	9540
1078.41	9510
1079.53	9486
1080.65	9448
1081.77	9536
1082.89	9402
1084.01	9400
1085.13	9414
1086.25	9382
1087.37	9384
1088.48	9386
1089.6	9364
1090.72	9262
1091.84	9390
1092.96	9340
1094.07	9476
1095.19	9394
1096.31	9324
1097.43	9356
1098.54	9312
1099.66	9322
1100.78	9368
1101.89	9262
1103.01	9278
1104.12	9206
1105.24	9208
1106.35	9366
1107.47	9204
1108.59	9324
1109.7	9244
1110.81	9258
1111.93	9182
1113.04	9198
1114.16	9138
1115.27	9110
1116.39	9184
1117.5	9146
1118.61	9114
1119.73	9108
1120.84	9172
1121.95	9120
1123.06	9004
1124.18	9166
1125.29	9094
1126.4	9126
1127.51	9076
1128.63	9036
1129.74	9078
1130.85	9056
1131.96	9060
1133.07	9106
1134.18	9126
1135.29	9052
1136.4	9056
1137.51	9092
1138.62	9018
1139.73	8942
1140.84	9066
1141.95	9066
1143.06	9080
1144.17	9012
1145.28	9042
1146.39	8890
1147.5	8962
1148.61	9086
1149.72	8866
1150.82	8950
1151.93	8914
1153.04	8872
1154.15	8988
1155.26	8914
1156.36	9080
1157.47	13772
1158.58	8868
1159.68	9086
1160.79	10790
1161.9	8778
1163	8938
1164.11	8768
1165.22	8762
1166.32	8816
1167.43	8754
1168.53	8740
1169.64	8740
1170.74	8750
1171.85	8876
1172.95	8934
1174.06	8582
1175.16	8650
1176.26	8630
1177.37	8806
1178.47	8516
1179.58	8514
1180.68	8628
1181.78	8548
1182.88	8450
1183.99	8410
1185.09	8436
1186.19	8442
1187.3	8346
1188.4	8506
1189.5	8394
1190.6	8356
1191.7	8344
1192.8	8328
1193.9	8258
1195.01	8290
1196.11	8349.34
1197.21	8171.92
1198.31	8231.55
1199.41	8123.71
1200.51	8139.61
1201.61	8094.04
1202.71	8074.7
1203.81	8138.11
1204.91	8117.55
1206.01	8113.14
1207.11	8097.36
1208.2	7998.99
1209.3	7970.98
1210.4	7896.58
1211.5	8076.47
1212.6	7789.6
1213.7	7831.28
1214.8	7799.71
1215.89	7966.64
1216.99	7875.22
1218.09	7871.76
1219.18	7769.68
1220.28	7770.1
1221.38	7774.59
1222.48	7722.97
1223.57	7673.23
1224.67	7749.37
1225.76	7628.21
1226.86	7654.06
1227.96	7589.98
1229.05	7603.33
1230.15	7595.04
1231.24	7605.81
1232.34	7548.67
1233.43	7561.12
1234.53	7567.18
1235.62	7483.19
1236.71	7500.85
1237.81	7481.74
1238.9	7445.96
1240	7413.52
1241.09	7418.45
1242.18	7440.76
1243.28	7434.59
1244.37	7318.5
1245.46	7330.17
1246.56	7331.04
1247.65	7322.96
1248.74	7311.97
1249.83	7301.36
1250.93	7276.92
1252.02	7225.67
1253.11	7248.51
1254.2	7191.27
1255.29	7239.32
1256.38	7257.3
1257.47	7222.44
1258.56	7179.88
1259.65	7168.86
1260.74	7109.43
1261.84	7113.86
1262.92	7069.3
1264.01	7094.98
1265.1	7074.28
1266.19	7082.9
1267.28	7073.16
1268.37	7075.05
1269.46	7037.87
1270.55	7002.04
1271.64	6977.27
1272.73	6976.48
1273.82	7030.55
1274.9	6940.94
1275.99	6931.81
1277.08	6965.63
1278.17	6953.34
1279.26	6884.9
1280.34	6892.08
1281.43	6855.28
1282.52	6830.66
1283.6	6834.86
1284.69	6731.79
1285.78	6823.95
1286.86	6754.58
1287.95	6758.99
1289.03	6746.09
1290.12	6732.61
1291.21	6726.64
1292.29	6664.1
1293.38	6618.18
1294.46	6622.61
1295.55	6651.18
1296.63	6567.91
1297.71	6620.8
1298.8	6537.09
1299.88	6679.06
1300.97	6607.42
1302.05	6546.93
1303.13	6565.24
1304.22	6443.09
1305.3	6435.85
1306.38	6507.16
1307.34	6470
1308.43	6446
1309.52	6506
1310.61	6460
1311.7	6430
1312.78	6354
1313.87	6398
1314.96	6302
1316.05	6294
1317.13	6278
1318.22	6296
1319.3	6294
1320.39	6254
1321.48	6232
1322.56	6216
1323.65	6154
1324.73	6266
1325.82	6210
1326.9	6104
1327.99	6112
1329.07	6128
1330.16	6050
1331.24	6016
1332.33	6030
1333.41	5994
1334.5	6060
1335.58	6020
1336.66	6008
1337.75	5900
1338.83	5914
1339.91	5772
1341	5940
1342.08	5756
1343.16	5820
1344.25	5858
1345.33	5792
1346.41	5746
1347.49	5812
1348.57	5738
1349.65	5732
1350.74	5682
1351.82	5732
1352.9	5718
1353.98	5644
1355.06	5734
1356.14	5626
1357.22	5616
1358.3	5574
1359.38	5554
1360.46	5518
1361.54	5530
1362.62	5572
1363.7	5426
1364.78	5484
1365.86	5412
1366.94	5482
1368.02	5482
1369.09	5452
1370.17	5464
1371.25	5344
1372.33	5432
1373.41	5434
1374.48	5292
1375.56	5324
1376.64	5306
1377.72	5308
1378.79	5282
1379.87	5298
1380.95	5372
1382.02	5254
1383.1	5312
1384.17	5242
1385.25	5264
1386.33	5248
1387.4	5250
1388.48	5076
1389.55	5114
1390.63	5136
1391.7	5110
1392.78	5210
1393.85	5100
1394.93	5110
1396	5072
1397.07	5086
1398.15	5066
1399.22	5050
1400.3	5110
1401.37	5030
1402.44	4988
1403.52	5040
1404.59	4966
1405.66	4922
1406.73	4968
1407.81	4966
1408.88	4894
1409.95	4972
1411.02	4896
1412.09	4844
1413.17	4880
1414.24	4810
1415.31	4908
1416.38	4816
1417.45	4796
1418.52	4880
1419.59	4786
1420.66	4808
1421.73	4798
1422.8	4772
1423.87	4778
1424.94	4688
1426.01	4762
1427.08	4728
1428.15	4658
1429.22	4826
1430.29	4712
1431.35	4740
1432.42	4592
1433.49	4754
1434.56	4658
1435.63	4556
1436.7	4646
1437.76	4520
1438.83	4610
1439.9	4540
1440.96	4570
1442.03	4606
1443.1	4628
1444.17	4534
1445.23	4554
1446.3	4580
1447.36	4554
1448.43	4568
1449.49	4502
1450.56	4500
1451.63	4494
1452.69	4574
1453.76	4488
1454.82	4382
1455.89	4484
1456.95	4462
1458.01	4402
1459.08	4466
1460.14	4450
1461.21	4352
1462.27	4492
1463.34	4404
1464.4	4392
1465.46	4304
1466.52	4350
1467.59	4318
1468.65	4346
1469.71	4324
1470.77	4300
1471.84	4316
1472.9	4276
1473.96	4308
1475.02	4264
1476.08	4264
1477.15	4174
1478.21	4334
1479.27	4286
1480.33	4260
1481.39	4304
1482.45	4244
1483.51	4296
1484.57	4284
1485.63	4216
1486.69	4204
1487.75	4212
1488.81	4194
1489.87	4128
1490.93	4260
1491.99	4104
1493.05	4196
1494.1	4222
1495.16	4086
1496.22	4134
1497.28	4158
1498.34	4186
1499.4	4144
1500.45	4080
1501.51	4166
1502.57	4048
1503.63	4036
1504.68	4078
1505.74	4012
1506.8	4074
1507.85	4026
1508.91	4110
1509.97	3990
1511.02	4020
1512.08	3986
1513.13	4030
1514.19	4052
1515.24	3970
1516.3	3996
1517.35	3942
1518.41	3874
1519.46	3896
1520.52	4010
1521.57	3984
1522.63	3954
1523.68	3960
1524.73	3960
1525.79	3880
1526.84	3902
1527.9	3820
1528.95	3906
1530	3846
1531.06	3800
1532.11	3814
1533.16	3844
1534.21	3836
1535.26	3854
1536.32	3782
1537.37	3770
1538.42	3804
1539.47	3860
1540.52	3794
1541.57	3786
1542.63	3734
1543.68	3692
1544.73	3672
1545.78	3758
1546.83	3744
1547.88	3702
1548.93	3682
1549.98	3706
1551.03	3700
1552.08	3660
1553.13	3674
1554.18	3682
1555.23	3690
1556.27	3658
1557.32	3626
1558.37	3736
1559.42	3634
1560.47	3710
1561.52	3680
1562.56	3636
1563.61	3566
1564.66	3590
1565.71	3632
1566.75	3634
1567.8	3558
1568.85	3610
1569.9	3628
1570.94	3540
1571.99	3574
1573.03	3556
1574.08	3542
1575.13	3596
1576.17	3528
1577.22	3556
1578.26	3524
1579.31	3498
1580.35	3584
1581.4	3548
1582.44	3486
1583.49	3574
1584.53	3544
1585.58	3508
1586.62	3494
1587.66	3552
1588.71	3462
1589.75	3482
1590.8	3516
1591.84	3490
1592.88	3548
1593.93	3456
1594.97	3444
1596.01	3482
1597.05	3526
1598.1	3436
1599.14	3386
1600.18	3406
1601.22	3458
1602.26	3392
1603.31	3470
1604.35	3488
1605.39	3390
1606.43	3478
1607.47	3492
1608.51	3354
1609.55	3424
1610.59	3420
1611.63	3362
1612.67	3410
1613.71	3408
1614.75	3364
1615.79	3366
1616.83	3402
1617.87	3408
1618.91	3412
1619.95	3386
1620.99	3392
1622.02	3340
1623.06	3320
1624.1	3356
1625.14	3356
1626.18	3428
1627.21	3400
1628.25	3334
1629.29	3362
1630.33	3326
1631.36	3302
1632.4	3342
1633.44	3340
1634.48	3352
1635.51	3354
1636.55	3290
1637.58	3330
1638.62	3316
1639.66	3254
1640.69	3288
1641.73	3318
1642.76	3310
1643.8	3322
1644.83	3302
1645.87	3344
1646.9	3232
1647.94	3260
1648.97	3240
1650	3230
1651.04	3240
1652.07	3248
1653.11	3232
1654.14	3294
1655.17	3270
1656.21	3228
1657.24	3264
1658.27	3216
1659.31	3234
1660.34	3240
1661.37	3222
1662.4	3222
1663.43	3210
1664.47	3182
1665.5	3134
1666.53	3132
1667.56	3168
1668.59	3144
1669.62	3108
1670.66	3188
1671.69	3224
1672.72	3152
1673.75	3162
1674.78	3092
1675.81	3126
1676.84	3112
1677.87	3132
1678.9	3070
1679.93	3076
1680.96	3132
1681.98	3064
1683.01	3130
1684.04	3052
1685.07	3110
1686.1	3100
1687.13	3120
1688.16	3148
1689.19	3096
1690.21	3056
1691.24	3106
1692.27	3104
1693.3	2964
1694.32	3058
1695.35	3038
1696.38	2982
1697.4	3032
1698.43	3072
1699.46	3044
1700.48	3048
1701.51	3016
1702.54	3046
1703.56	3080
1704.59	2956
1705.61	2996
1706.64	2948
1707.66	2976
1708.69	2940
1709.71	2912
1710.74	2886
1711.76	2982
1712.79	3008
1713.81	3046
1714.83	2956
1715.86	2954
1716.88	2954
1717.91	2958
1718.93	2910
1719.95	2884
1720.98	2936
1722	2988
1723.02	2964
1724.04	2956
1725.07	2902
1726.09	2928
1727.11	2958
1728.13	2946
1729.15	2900
1730.18	2930
1731.2	2922
1732.22	2884
1733.24	2888
1734.26	2888
1735.28	2904
1736.3	2894
1737.32	2894
1738.34	2910
1739.36	2826
1740.38	2940
1741.4	2902
1742.42	2926
1743.44	2884
1744.46	2864
1745.48	2868
1746.5	2854
1747.52	2944
1748.54	2824
1749.56	2812
1750.58	2830
1751.6	2804
1752.61	2816
1753.63	2826
1754.65	2838
1755.67	2886
1756.68	2852
1757.7	2838
1758.72	2840
1759.74	2862
1760.75	2868
1761.77	2766
1762.79	2828
1763.8	2870
1764.82	2810
1765.84	2784
1766.85	2820
1767.87	2814
1768.88	2816
1769.9	2808
1770.91	2844
1771.93	2860
1772.94	2738
1773.96	2786
1774.97	2822
1775.99	2764
1777	2834
1778.02	2770
1779.03	2770
1780.04	2804
1781.06	2800
1782.07	2836
1783.09	2774
1784.1	2780
1785.11	2750
1786.13	2814
1787.14	2736
1788.15	2692
1789.16	2776
1790.18	2822
1791.19	2750
1792.2	2758
1793.21	2860
1794.22	2722
1795.23	2758
1796.25	2704
1797.26	2718
1798.27	2726
1799.28	2754
1800.29	2722
1801.3	2782
1802.31	2710
1803.32	2722
1804.33	2742
1805.34	2740
1806.35	2682
1807.36	2770
1808.37	2760
1809.38	2678
1810.39	2702
1811.4	2686
1812.41	2756
1813.42	2712
1814.43	2762
1815.43	2704
1816.44	2700
1817.45	2652
1818.46	2742
1819.47	2708
1820.47	2670
1821.48	2662
1822.49	2654
1823.49	2660
1824.5	2636
1825.51	2698
1826.52	2732
1827.52	2654
1828.53	2710
1829.54	2628
1830.54	2686
1831.55	2662
1832.55	2652
1833.56	2672
1834.56	2708
1835.57	2600
1836.57	2682
1837.58	2694
1838.58	2670
1839.59	2584
1840.59	2660
1841.6	2656
1842.6	2542
1843.61	2568
1844.61	2644
1845.61	2606
1846.62	2570
1847.62	2584
1848.62	2572
1849.63	2564
1850.63	2620
1851.63	2568
1852.64	2606
1853.64	2606
1854.64	2650
1855.64	2608
1856.64	2558
1857.65	2600
1858.65	2528
1859.65	2608
1860.65	2562
1861.65	2594
1862.65	2514
1863.65	2514
1864.66	2542
1865.66	2538
1866.66	2598
1867.66	2510
1868.66	2558
1869.66	2564
1870.66	2516
1871.66	2536
1872.66	2560
1873.66	2568
1874.66	2584
1875.65	2562
1876.65	2542
1877.65	2472
1878.65	2558
1879.65	2542
1880.65	2504
1881.65	2506
1882.64	2480
1883.64	2544
1884.64	2548
1885.64	2520
1886.63	2486
1887.63	2436
1888.63	2474
1889.63	2538
1890.62	2570
1891.62	2468
1892.62	2466
1893.61	2538
1894.61	2554
1895.6	2532
1896.6	2516
1897.6	2508
1898.59	2470
1899.59	2478
1900.58	2476
1901.58	2490
1902.57	2466
1903.57	2556
1904.56	2534
1905.56	2522
1906.55	2434
1907.54	2558
1908.54	2468
1909.53	2514
1910.53	2498
1911.52	2528
1912.51	2472
1913.51	2490
1914.5	2444
1915.49	2482
1916.49	2448
1917.48	2486
1918.47	2494
1919.46	2506
1920.46	2528
1921.45	2510
1922.44	2446
1923.43	2440
1924.42	2482
1925.41	2532
1926.41	2454
1927.4	2426
1928.39	2438
1929.38	2460
1930.37	2468
1931.36	2404
1932.35	2426
1933.34	2434
1934.33	2420
1935.32	2426
1936.31	2460
1937.3	2478
1938.29	2434
1939.28	2486
1940.27	2482
1941.26	2428
1942.24	2474
1943.23	2472
1944.22	2420
1945.21	2420
1946.2	2458
1947.19	2428
1948.17	2446
1949.16	2380
1950.15	2385
1951.14	2390
1952.13	2368
1953.11	2422
1954.1	2476
1955.09	2466
1956.07	2380
1957.06	2372
1958.05	2450
1959.03	2410
1960.02	2448
1961	2398
1961.99	2432
1962.98	2406
1963.96	2414
1964.95	2376
1965.93	2442
1966.92	2388
1967.9	2382
1968.89	2370
1969.87	2406
1970.85	2376
1971.84	2366
1972.82	2332
1973.81	2392
1974.79	2386
1975.78	2430
1976.76	2378
1977.74	2438
1978.73	2374
1979.71	2324
1980.69	2396
1981.67	2356
1982.66	2368
1983.64	2368
1984.62	2392
1985.6	2374
1986.59	2442
1987.57	2378
1988.55	2346
1989.53	2346
1990.51	2346
1991.49	2368
1992.47	2360
1993.45	2352
1994.44	2344
1995.42	2328
1996.4	2362
1997.38	2318
1998.36	2360
1999.34	2346
2000.32	2388
2001.3	2302
2002.28	2346
2003.26	2336
2004.24	2372
2005.22	2310
2006.19	2290
2007.17	2322
2008.15	2364
2009.13	2318
2010.11	2348
2011.09	2364
2012.06	2342
2013.04	2272
2014.02	2312
2015	2358
2015.98	2362
2016.95	2334
2017.93	2326
2018.91	2348
2019.88	2332
2020.86	2340
2021.84	2374
2022.81	2312
2023.79	2324
2024.77	2302
2025.74	2332
2026.72	2300
2027.69	2306
2028.67	2290
2029.65	2314
2030.62	2288
2031.6	2306
2032.57	2344
2033.55	2308
2034.52	2282
2035.5	2322
2036.47	2250
2037.44	2304
2038.42	2286
2039.39	2332
2040.36	2250
2041.34	2266
2042.31	2350
2043.29	2266
2044.26	2282
2045.23	2308
2046.2	2278
2047.18	2292
2048.15	2262
2049.12	2240
2050.09	2242
2051.07	2266
2052.04	2258
2053.01	2252
2053.98	2254
2054.95	2324
2055.93	2270
2056.9	2250
2057.87	2266
2058.84	2296
2059.81	2248
2060.78	2280
2061.75	2300
2062.72	2280
2063.69	2300
2064.66	2218
2065.63	2282
2066.6	2258
2067.57	2260
2068.54	2242
2069.51	2292
2070.48	2242
2071.45	2196
2072.42	2246
2073.38	2260
2074.35	2234
2075.32	2238
2076.29	2256
2077.26	2320
2078.23	2220
2079.19	2226
2080.16	2242
2081.13	2278
2082.1	2244
2083.06	2224
2084.03	2254
2085	2246
2085.96	2192
2086.93	2198
2087.9	2254
2088.86	2248
2089.83	2212
2090.8	2262
2091.76	2228
2092.73	2264
2093.69	2208
2094.66	2226
2095.62	2262
2096.59	2214
2097.55	2244
2098.52	2234
2099.48	2248
2100.45	2236
2101.41	2082
2102.38	2206
2103.34	2236
2104.31	2158
2105.27	2192
2106.23	2220
2107.2	2242
2108.16	2260
2109.12	2186
2110.09	2164
2111.05	2194
2112.01	2208
2112.98	2202
2113.94	2138
2114.9	2220
2115.86	2206
2116.82	2194
2117.79	2224
2118.75	2192
2119.71	2148
2120.67	2216
2121.63	2112
2122.59	2186
2123.55	2192
2124.52	2174
2125.48	2216
2126.44	2202
2127.4	2206
2128.36	2136
2129.32	2176
2130.28	2190
2131.24	2168
2132.2	2168
2133.16	2102
2134.12	2186
2135.08	2210
2136.04	2140
2136.99	2180
2137.95	2150
2138.91	2172
2139.87	2128
2140.83	2194
2141.79	2144
2142.75	2144
2143.7	2138
2144.66	2130
2145.62	2128.06
2146.58	2155.57
2147.53	2181.64
2148.49	2151.81
2149.45	2149.03
2150.41	2143.53
2151.36	2192.52
2152.32	2115.02
2153.28	2182.67
2154.23	2105.26
2155.19	2129.36
2156.14	2139.42
2157.1	2089.13
2158.06	2142.16
2159.01	2089.48
2159.97	2122.13
2160.92	2108.78
2161.88	2138.5
2162.83	2086.83
2163.79	2114.03
2164.74	2113.34
2165.7	2097.1
2166.65	2067.82
2167.61	2101.03
2168.56	2070.06
2169.51	2062.57
2170.47	2077.11
2171.42	2136.94
2172.38	2101.31
2173.33	2081.31
2174.28	2058.71
2175.24	2095.12
2176.19	2093.63
2177.14	2062.44
2178.09	2095.41
2179.05	2061.9
2180	2103.85
2180.95	2085.67
2181.9	2069.88
2182.86	2086.22
2183.81	2073.32
2184.76	2050.01
2185.71	2027.69
2186.66	2059.99
2187.61	2089.83
2188.57	2082.77
2189.52	2050.45
2190.47	2063.78
2191.42	2027.02
2192.37	2024.58
2193.32	2081.78
2194.27	2062.2
2195.22	2040.96
2196.17	2055.6
2197.12	2021.49
2198.07	2062.2
2199.02	2042.4
2199.97	2033.17
2200.92	2052.12
2201.87	2033.98
2202.82	2049.95
2203.76	2048.12
2204.71	2032.18
2205.66	2055.27
2206.61	2036.76
2207.56	2023.05
2208.51	2040.52
2209.45	2036.68
2210.4	2035.64
2211.35	2047.62
2212.3	2018.43
2213.25	1999.56
2214.19	2037.11
2215.14	2052.41
2216.09	2087.44
2217.03	2037.93
2217.98	2026.18
2218.93	2050.98
2219.87	2028.02
2220.82	2048.19
2221.77	2028.1
2222.71	2000.34
2223.66	1995.94
2224.6	2000.18
2225.55	2008.11
2226.49	2008.95
2227.44	2002.39
2228.38	2021.23
2229.33	2024.19
2230.27	2019.05
2231.22	2021.81
2232.16	2035.95
2233.11	2027.94
2234.05	2008.99
2235	2016.57
2235.94	2017.72
2236.88	2017.72
2237.83	2021.5
2238.77	1979.84
2239.72	1982.48
2240.66	2012.05
2241.6	1983.67
2242.07	1966
2243.02	1970
2243.97	1962
2244.92	2070
2245.87	1988
2246.81	2012
2247.76	1990
2248.71	2034
2249.65	2020
2250.6	1982
2251.55	1996
2252.49	2056
2253.44	1990
2254.39	1990
2255.33	1984
2256.28	2042
2257.22	1946
2258.17	1980
2259.12	2000
2260.06	2052
2261.01	1956
2261.95	1954
2262.9	1964
2263.84	1984
2264.78	1986
2265.73	1980
2266.67	1936
2267.62	1986
2268.56	1938
2269.51	1990
2270.45	2004
2271.39	1996
2272.34	1998
2273.28	1958
2274.22	2010
2275.17	1938
2276.11	1958
2277.05	1972
2277.99	1930
2278.94	1974
2279.88	1958
2280.82	1982
2281.76	1958
2282.71	1978
2283.65	1986
2284.59	1980
2285.53	1954
2286.47	1964
2287.41	1912
2288.35	1998
2289.3	1944
2290.24	1900
2291.18	1936
2292.12	1866
2293.06	1944
2294	1936
2294.94	1918
2295.88	1902
2296.82	1964
2297.76	1884
2298.7	1918
2299.64	1862
2300.58	1894
2301.52	1904
2302.46	1912
2303.39	1900
2304.33	1900
2305.27	1848
2306.21	1848
2307.15	1850
2308.09	1938
2309.02	1870
2309.96	1900
2310.9	1956
2311.84	1926
2312.77	1888
2313.71	1872
2314.65	1894
2315.59	1944
2316.52	1892
2317.46	1882
2318.4	1880
2319.33	1854
2320.27	1898
2321.21	1850
2322.14	1862
2323.08	1880
2324.01	1854
2324.95	1860
2325.89	1830
2326.82	1854
2327.76	1850
2328.69	1862
2329.63	1844
2330.56	1878
2331.5	1850
2332.43	1800
2333.36	1876
2334.3	1864
2335.23	1858
2336.17	1854
2337.1	1864
2338.03	1806
2338.97	1858
2339.9	1836
2340.83	1784
2341.77	1790
2342.7	1884
2343.63	1802
2344.57	1856
2345.5	1784
2346.43	1804
2347.36	1848
2348.3	1812
2349.23	1808
2350.16	1770
2351.09	1796
2352.02	1792
2352.95	1824
2353.89	1766
2354.82	1830
2355.75	1774
2356.68	1858
2357.61	1826
2358.54	1746
2359.47	1798
2360.4	1838
2361.33	1804
2362.26	1724
2363.19	1790
2364.12	1784
2365.05	1792
2365.98	1746
2366.91	1770
2367.84	1754
2368.77	1804
2369.7	1822
2370.63	1728
2371.56	1764
2372.48	1784
2373.41	1748
2374.34	1776
2375.27	1726
2376.2	1756
2377.12	1774
2378.05	1816
2378.98	1760
2379.91	1742
2380.84	1778
2381.76	1742
2382.69	1714
2383.62	1724
2384.54	1734
2385.47	1762
2386.4	1778
2387.32	1756
2388.25	1708
2389.18	1716
2390.1	1696
2391.03	1718
2391.95	1712
2392.88	1680
2393.8	1778
2394.73	1698
2395.65	1710
2396.58	1722
2397.5	1696
2398.43	1678
2399.35	1696
2400.28	1730
2401.2	1712
2402.13	1654
2403.05	1714
2403.97	1680
2404.9	1682
2405.82	1696
2406.75	1690
2407.67	1644
2408.59	1672
2409.51	1728
2410.44	1666
2411.36	1678
2412.28	1676
2413.21	1648
2414.13	1694
2415.05	1692
2415.97	1662
2416.9	1694
2417.82	1694
2418.74	1640
2419.66	1636
2420.58	1636
2421.5	1630
2422.42	1658
2423.35	1654
2424.27	1650
2425.19	1674
2426.11	1614
2427.03	1626
2427.95	1684
2428.87	1632
2429.79	1676
2430.71	1638
2431.63	1612
2432.55	1626
2433.47	1654
2434.39	1644
2435.31	1622
2436.23	1628
2437.14	1628
2438.06	1622
2438.98	1620
2439.9	1668
2440.82	1550
2441.74	1626
2442.66	1568
2443.57	1636
2444.49	1622
2445.41	1614
2446.33	1580
2447.24	1590
2448.16	1660
2449.08	1608
2450	1570
2450.91	1582
2451.83	1580
2452.75	1630
2453.66	1590
2454.58	1568
2455.5	1616
2456.41	1574
2457.33	1534
2458.24	1594
2459.16	1580
2460.08	1522
2460.99	1540
2461.91	1584
2462.82	1580
2463.74	1544
2464.65	1558
2465.57	1568
2466.48	1568
2467.4	1558
2468.31	1550
2469.22	1528
2470.14	1580
2471.05	1508
2471.97	1550
2472.88	1560
2473.79	1566
2474.71	1540
2475.62	1540
2476.53	1562
2477.45	1540
2478.36	1504
2479.27	1474
2480.19	1550
2481.1	1550
2482.01	1504
2482.92	1490
2483.83	1498
2484.75	1468
2485.66	1464
2486.57	1466
2487.48	1440
2488.39	1496
2489.3	1488
2490.22	1454
2491.13	1482
2492.04	1466
2492.95	1454
2493.86	1496
2494.77	1448
2495.68	1490
2496.59	1402
2497.5	1446
2498.41	1470
2499.32	1446
2500.23	1444
2501.14	1474
2502.05	1470
2502.96	1496
2503.87	1420
2504.78	1452
2505.68	1458
2506.59	1466
2507.5	1418
2508.41	1402
2509.32	1434
2510.23	1464
2511.14	1462
2512.04	1448
2512.95	1400
2513.86	1438
2514.77	1420
2515.67	1410
2516.58	1360
2517.49	1412
2518.39	1374
2519.3	1418
2520.21	1428
2521.11	1390
2522.02	1400
2522.93	1380
2523.83	1418
2524.74	1396
2525.65	1440
2526.55	1368
2527.46	1402
2528.36	1382
2529.27	1364
2530.17	1388
2531.08	1396
2531.98	1356
2532.89	1384
2533.79	1396
2534.7	1394
2535.6	1370
2536.51	1344
2537.41	1382
2538.32	1344
2539.22	1328
2540.12	1376
2541.03	1318
2541.93	1370
2542.83	1392
2543.74	1354
2544.64	1316
2545.54	1380
2546.45	1394
2547.35	1384
2548.25	1324
2549.15	1380
2550.06	1312
2550.96	1370
2551.86	1310
2552.76	1336
2553.66	1304
2554.56	1326
2555.47	1312
2556.37	1310
2557.27	1344
2558.17	1354
2559.07	1310
2559.97	1330
2560.87	1308
2561.77	1352
2562.67	1326
2563.58	1316
2564.47	1302
2565.38	1364
2566.27	1266
2567.18	1328
2568.07	1316
2568.97	1322
2569.87	1242
2570.77	1272
2571.67	1264
2572.57	1268
2573.47	1262
2574.37	1240
2575.27	1292
2576.17	1284
2577.06	1280
2577.96	1276
2578.86	1306
2579.76	1258
2580.66	1262
2581.55	1264
2582.45	1246
2583.35	1280
2584.25	1204
2585.14	1256
2586.04	1306
2586.94	1220
2587.83	1272
2588.73	1288
2589.63	1228
2590.52	1264
2591.42	1268
2592.32	1254
2593.21	1218
2594.11	1238
2595	1228
2595.9	1212
2596.8	1260
2597.69	1194
2598.59	1232
2599.48	1240
2600.38	1234
2601.27	1186
2602.17	1264
2603.06	1212
2603.95	1220
2604.85	1184
2605.74	1208
2606.64	1200
2607.53	1212
2608.42	1188
2609.32	1154
2610.21	1208
2611.1	1182
2612	1208
2612.89	1190
2613.78	1206
2614.68	1198
2615.57	1176
2616.46	1190
2617.36	1204
2618.25	1180
2619.14	1156
2620.03	1202
2620.92	1200
2621.82	1112
2622.71	1132
2623.6	1194
2624.49	1176
2625.38	1186
2626.27	1186
2627.16	1144
2628.05	1148
2628.95	1134
2629.84	1134
2630.73	1162
2631.62	1162
2632.51	1140
2633.4	1134
2634.29	1144
2635.18	1130
2636.07	1170
2636.96	1132
2637.85	1158
2638.74	1112
2639.62	1102
2640.51	1112
2641.4	1162
2642.29	1116
2643.18	1088
2644.07	1100
2644.96	1084
2645.85	1122
2646.73	1060
2647.62	1098
2648.51	1058
2649.4	1074
2650.28	1082
2651.17	1082
2652.06	1092
2652.95	1130
2653.83	1112
2654.72	1072
2655.61	1086
2656.5	1118
2657.38	1064
2658.27	1078
2659.15	1084
2660.04	1092
2660.93	1088
2661.81	1054
2662.7	1100
2663.58	1108
2664.47	1112
2665.35	1070
2666.24	1112
2667.13	1076
2668.01	1080
2668.9	1050
2669.78	1070
2670.66	1062
2671.55	1078
2672.43	1034
2673.32	1036
2674.2	1040
2675.09	1066
2675.97	1044
2676.85	1058
2677.74	1092
2678.62	1032
2679.5	1030
2680.39	1068
2681.27	1048
2682.15	1048
2683.04	1030
2683.92	1028
2684.8	1018
2685.68	1018
2686.57	1032
2687.45	986
2688.33	1054
2689.21	1046
2690.09	1016
2690.98	1010
2691.86	982
2692.74	1026
2693.62	1010
2694.5	1008
2695.38	1030
2696.26	980
2697.15	1020
2698.03	1002
2698.91	988
2699.79	1026
2700.67	998
2701.55	1022
2702.43	968
2703.31	1006
2704.19	962
2705.07	1018
2705.95	1018
2706.83	990
2707.7	988
2708.58	984
2709.46	980
2710.34	1016
2711.22	966
2712.1	976
2712.98	964
2713.86	970
2714.73	984
2715.61	958
2716.49	976
2717.37	970
2718.25	954
2719.12	982
2720	968
2720.88	930
2721.76	952
2722.63	988
2723.51	924
2724.39	958
2725.26	944
2726.14	954
2727.02	940
2727.89	932
2728.77	932
2729.64	950
2730.52	892
2731.4	898
2732.27	944
2733.15	910
2734.02	934
2734.9	952
2735.77	942
2736.65	910
2737.52	938
2738.4	944
2739.27	918
2740.15	900
2741.02	884
2741.9	908
2742.77	916
2743.64	960
2744.52	922
2745.39	912
2746.27	920
2747.14	900
2748.01	894
2748.89	908
2749.76	914
2750.63	920
2751.51	930
2752.38	884
2753.25	870
2754.12	884
2755	900
2755.87	864
2756.74	908
2757.61	896
2758.48	894
2759.35	908
2760.23	906
2761.1	872
2761.97	840
2762.84	890
2763.71	874
2764.58	904
2765.45	860
2766.32	922
2767.19	852
2768.07	878
2768.94	862
2769.81	872
2770.68	900
2771.55	826
2772.42	840
2773.29	836
2774.16	846
2775.02	848
2775.89	848
2776.76	868
2777.63	854
2778.5	826
2779.37	818
2780.24	816
2781.11	790
2781.98	818
2782.84	874
2783.71	830
2784.58	810
2785.45	836
2786.32	860
2787.18	838
2788.05	858
2788.92	838
2789.79	844
2790.65	820
2791.52	786
2792.39	844
2793.25	830
2794.12	836
2794.99	828
2795.85	838
2796.72	816
2797.59	840
2798.45	828
2799.32	806
2800.18	814
2801.05	816
2801.92	818
2802.78	802
2803.65	795
2804.51	788
2805.38	804
2806.24	818
2807.11	810
2807.97	806
2808.84	790
2809.7	790
2810.57	826
2811.43	788
2812.29	782
2813.16	792
2814.02	796
2814.88	772
2815.75	770
2816.61	818
2817.47	780
2818.34	796
2819.2	802
2820.06	772
2820.93	788
2821.79	778
2822.65	786
2823.51	762
2824.38	800
2825.24	770
2826.1	788
2826.96	748
2827.82	756
2828.69	748
2829.55	786
2830.41	734
2831.27	760
2832.13	756
2832.99	738
2833.85	772
2834.71	756
2835.57	754
2836.44	760
2837.3	764
2838.16	744
2839.02	754
2839.88	758
2840.74	732
2841.6	756
2842.46	738
2843.32	740
2844.18	714
2845.03	736
2845.89	772
2846.75	720
2847.61	760
2848.47	740
2849.33	730
2850.19	738
2851.05	716
2851.9	716
2852.76	682
2853.62	730
2854.48	698
2855.34	742
2856.19	748
2857.05	734
2857.91	708
2858.77	700
2859.62	752
2860.48	668
2861.34	736
2862.19	710
2863.05	714
2863.91	706
2864.76	708
2865.62	684
2866.48	712
2867.33	694
2868.19	702
2869.04	674
2869.9	706
2870.76	688
2871.61	726
2872.47	678
2873.32	674
2874.18	690
2875.03	670
2875.89	706
2876.74	672
2877.6	688
2878.45	678
2879.31	692
2880.16	684
2881.01	680
2881.87	662
2882.72	652
2883.58	694
2884.43	666
2885.28	644
2886.14	636
2886.99	664
2887.84	650
2888.7	658
2889.55	638
2890.4	658
2891.25	634
2892.11	670
2892.96	692
2893.81	658
2894.66	666
2895.52	714
2896.37	696
2897.22	638
2898.07	680
2898.92	676
2899.77	680
2900.62	682
2901.48	692
2902.33	664
2903.18	626
2904.03	646
2904.88	648
2905.73	680
2906.58	668
2907.43	640
2908.28	642
2909.13	630
2909.98	646
2910.83	662
2911.68	646
2912.53	622
2913.38	662
2914.23	634
2915.08	660
2915.93	626
2916.78	636
2917.63	618
2918.47	652
2919.32	630
2920.17	632
2921.02	614
2921.87	618
2922.72	622
2923.56	646
2924.41	634
2925.26	630
2926.11	616
2926.95	634
2927.8	648
2928.65	624
2929.5	606
2930.34	614
2931.19	628
2932.04	618
2932.88	642
2933.73	618
2934.58	620
2935.42	624
2936.27	624
2937.11	616
2937.96	664
2938.81	596
2939.65	600
2940.5	600
2941.34	642
2942.19	648
2943.03	588
2943.88	636
2944.72	616
2945.57	618
2946.41	598
2947.26	588
2948.1	606
2948.95	574
2949.79	598
2950.64	598
2951.48	616
2952.32	608
2953.17	614
2954.01	596
2954.85	588
2955.7	588
2956.54	594
2957.38	586
2958.23	580
2959.07	594
2959.91	582
2960.75	586
2961.6	564
2962.44	594
2963.28	552
2964.12	594
2964.97	580
2965.81	566
2966.65	584
2967.49	586
2968.33	560
2969.17	590
2970.02	570
2970.86	570
2971.7	564
2972.54	582
2973.38	564
2974.22	588
2975.06	570
2975.9	552
2976.74	548
2977.58	562
2978.42	558
2979.26	552
2980.1	570
2980.94	588
2981.78	556
2982.62	608
2983.46	552
2984.3	528
2985.14	550
2985.98	544
2986.82	584
2987.66	512
2988.49	556
2989.33	546
2990.17	578
2991.01	554
2991.85	552
2992.69	570
2993.52	564
2994.36	510
2995.2	532
2996.04	552
2996.87	532
2997.71	544
2998.55	538
2999.39	548
