#Acq. time (s)=	10
#Accumulations=	1
#Range (cm-¹)=	100...3000
#Windows=	3
#Autofocus=	Off
#AutoExposure=	Off
#Spike filter=	Off
#Delay time (s)=	0
#Binning=	1
#Readout mode=	Signal
#DeNoise=	Off
#ICS correction=	Off
#Dark correction=	Off
#Inst. Process=	Off
#Instrument=	LabRAM HR Evol
#Detector=	Syncerity OE
#Objective=	x100_VIS
#Grating=	600 (500nm)
#ND Filter=	5%
#Laser=	633nm_Edge
#Hole=	74.97
#Range=	Visible
#Project=	Omar
#Sample=	26-06-23
#Site=	1
#Title=	Organic
#Remark=	
#Date=	26.06.2023 15:54
#Acquired=	26.06.2023 15:54:18
101.018	2076
102.302	2050
103.586	2032
104.869	2098
106.152	2074
107.435	2036
108.717	2130
109.999	2086
111.281	2074
112.563	2108
113.845	2012
115.126	2018
116.407	2076
117.688	2080
118.969	2130
120.249	2102
121.53	2096
122.81	2100
124.09	2060
125.369	2142
126.649	2098
127.928	2084
129.207	2080
130.486	2108
131.765	2050
133.043	2082
134.321	2058
135.599	2136
136.877	2070
138.155	2076
139.432	2138
140.708	2116
141.985	2062
143.261	2092
144.538	2114
145.814	2044
147.09	2056
148.366	2048
149.641	2092
150.916	2008
152.191	2048
153.466	2060
154.741	2046
156.016	2046
157.289	2082
158.563	2080
159.837	2078
161.111	2088
162.385	2104
163.657	2064
164.93	2074
166.203	2078
167.476	2044
168.747	2086
170.019	2044
171.291	2024
172.562	2072
173.834	2070
175.105	2048
176.377	2042
177.646	2044
178.917	2054
180.188	2076
181.457	2046
182.727	2046
183.996	2082
185.266	1988
186.536	2068
187.804	2008
189.073	2022
190.342	2092
191.609	2008
192.878	2054
194.145	2024
195.413	2118
196.681	2112
197.948	2100
199.215	2032
200.481	2090
201.749	2108
203.014	2050
204.281	2074
205.546	2106
206.813	2116
208.077	2062
209.343	2098
210.608	2082
211.873	2076
213.137	2078
214.402	2100
215.666	2030
216.93	2126
218.194	2094
219.458	2100
220.721	2140
221.983	2054
223.247	2108
224.509	2116
225.772	2090
227.034	2106
228.295	2090
229.558	2126
230.819	2098
232.081	2082
233.342	2088
234.602	2074
235.864	2162
237.124	2110
238.384	2098
239.645	2102
240.904	2128
242.164	2118
243.423	2110
244.683	2142
245.941	2166
247.2	2172
248.46	2132
249.717	2128
250.975	2124
252.233	2170
253.492	2086
254.749	2136
256.006	2164
257.263	2126
258.519	2086
259.777	2102
261.033	2060
262.289	2126
263.545	2142
264.8	2098
266.057	2088
267.312	2146
268.567	2094
269.822	2090
271.076	2144
272.331	2106
273.585	2118
274.839	2132
276.094	2126
277.347	2110
278.601	2150
279.854	2114
281.107	2132
282.359	2156
283.612	2158
284.864	2106
286.116	2124
287.368	2096
288.62	2088
289.871	2112
291.123	2118
292.374	2168
293.625	2112
294.875	2140
296.126	2134
297.376	2136
298.626	2158
299.876	2116
301.126	2124
302.375	2140
303.625	2108
304.874	2192
306.122	2178
307.371	2138
308.62	2258
309.866	2132
311.114	2192
312.362	2136
313.61	2164
314.857	2174
316.105	2172
317.352	2190
318.599	2170
319.844	2160
321.09	2218
322.337	2122
323.583	2210
324.828	2158
326.073	2224
327.318	2094
328.563	2206
329.808	2168
331.053	2184
332.296	2158
333.541	2216
334.785	2186
336.029	2158
337.272	2204
338.515	2196
339.759	2190
341.001	2228
342.244	2202
343.486	2182
344.728	2154
345.97	2210
347.212	2232
348.453	2126
349.695	2208
350.936	2260
352.176	2218
353.418	2158
354.659	2192
355.898	2180
357.139	2178
358.378	2212
359.618	2170
360.858	2210
362.097	2202
363.336	2246
364.574	2232
365.813	2230
367.051	2212
368.29	2200
369.527	2218
370.766	2170
372.002	2214
373.241	2228
374.477	2282
375.715	2254
376.951	2180
378.188	2228
379.424	2230
380.66	2206
381.896	2148
383.132	2232
384.367	2226
385.603	2204
386.838	2178
388.072	2226
389.307	2262
390.541	2192
391.776	2218
393.01	2234
394.243	2234
395.477	2236
396.71	2216
397.943	2250
399.177	2206
400.409	2246
401.641	2256
402.875	2246
404.106	2300
405.338	2258
406.57	2230
407.802	2258
409.032	2310
410.263	2360
411.495	2260
412.725	2340
413.955	2282
415.185	2300
416.417	2324
417.646	2336
418.875	2348
420.104	2358
421.335	2358
422.564	2364
423.792	2338
425.02	2328
426.249	2374
427.477	2370
428.706	2388
429.933	2404
431.161	2392
432.388	2364
433.615	2408
434.841	2404
436.068	2374
437.294	2422
438.522	2400
439.748	2380
440.974	2414
442.199	2400
443.425	2466
444.65	2414
445.875	2368
447.1	2414
448.324	2456
449.549	2406
450.773	2420
451.997	2472
453.221	2446
454.445	2458
455.668	2444
456.891	2454
458.114	2464
459.337	2452
460.56	2416
461.782	2450
463.005	2410
464.227	2474
465.447	2484
466.669	2470
467.89	2500
469.112	2406
470.333	2404
471.554	2444
472.774	2514
473.995	2450
475.214	2508
476.434	2458
477.654	2464
478.874	2472
480.093	2524
481.312	2434
482.53	2506
483.749	2496
484.968	2546
486.186	2524
487.405	2580
488.622	2566
489.84	2534
491.057	2544
492.275	2564
493.491	2556
494.708	2568
495.925	2528
497.141	2528
498.357	2584
499.574	2592
500.789	2586
502.005	2560
503.221	2624
504.435	2588
505.65	2570
506.866	2522
508.079	2596
509.294	2654
510.509	2614
511.722	2642
512.936	2650
514.149	2628
515.363	2642
516.577	2600
517.789	2646
519.002	2684
520.214	2704
521.427	2646
522.638	2668
523.851	2650
525.062	2706
526.274	2626
527.485	2634
528.697	2722
529.907	2670
531.118	2670
532.328	2700
533.539	2702
534.748	2666
535.959	2736
537.168	2732
538.379	2728
539.587	2698
540.796	2738
542.005	2772
543.214	2772
544.423	2746
545.631	2712
546.838	2678
548.047	2784
549.254	2782
550.461	2776
551.669	2760
552.876	2816
554.082	2832
555.29	2846
556.496	2732
557.701	2834
558.909	2848
560.114	2936
561.319	2836
562.524	2852
563.731	2866
564.935	2866
566.14	2910
567.344	2838
568.549	2894
569.753	2864
570.957	2888
572.161	2868
573.364	2926
574.568	3026
575.771	2936
576.974	2932
578.177	2976
579.379	2944
580.581	2936
581.785	2940
582.987	3042
584.188	3030
585.39	2928
586.591	3026
587.792	3086
588.993	3026
590.193	3070
591.394	3052
592.594	3020
593.796	3080
594.996	3096
596.195	3124
597.395	3078
598.594	3094
599.793	3072
600.992	3126
602.191	3188
603.39	3130
604.588	3170
605.786	3180
606.984	3250
608.181	3178
609.378	3196
610.576	3224
611.773	3182
612.97	3264
614.167	3292
615.364	3286
616.56	3232
617.757	3342
618.953	3348
620.149	3354
621.343	3372
622.539	3434
623.734	3396
624.929	3412
626.124	3394
627.319	3358
628.512	3462
629.707	3520
630.901	3508
632.095	3460
633.289	3472
634.481	3586
635.675	3538
636.868	3548
638.061	3578
639.253	3630
640.446	3582
641.638	3544
642.831	3684
644.021	3586
645.213	3672
646.405	3712
647.595	3704
648.787	3758
649.978	3702
651.168	3714
652.359	3740
653.549	3774
654.738	3764
655.929	3842
657.117	3808
658.307	3802
659.497	3856
660.685	3840
661.875	3918
663.063	3874
664.252	3836
665.439	3886
666.628	3964
667.816	3926
669.003	3896
670.191	3962
671.378	3994
672.565	4012
673.751	3940
674.939	4012
676.124	3930
677.311	4052
678.497	3960
679.682	4036
680.868	4062
682.053	4058
683.239	4068
684.424	4096
685.609	4092
686.793	4128
687.977	4170
689.162	4146
690.346	4158
691.529	4252
692.714	4284
693.897	4270
695.081	4266
696.264	4302
697.446	4224
698.63	4346
699.812	4398
700.993	4354
702.175	4354
703.358	4390
704.539	4496
705.72	4414
706.901	4408
708.083	4510
709.264	4608
710.444	4542
711.625	4580
712.806	4608
713.986	4602
715.165	4634
716.345	4628
717.524	4682
718.705	4642
719.884	4848
721.062	4768
722.241	4790
723.419	4816
724.597	4864
725.775	4798
726.954	4796
728.132	4810
729.31	4838
730.487	5042
731.664	5050
732.841	4944
734.017	5002
735.194	5072
736.37	4932
737.546	5070
738.722	5036
739.898	5070
741.074	5068
742.249	5100
743.424	5164
744.599	5232
745.774	5170
746.949	5154
748.123	5246
749.298	5180
750.472	5238
751.646	5292
752.819	5286
753.993	5462
755.166	5376
756.34	5382
757.511	5426
758.684	5336
759.857	5446
761.029	5394
762.202	5478
763.374	5450
764.546	5420
765.716	5464
766.888	5568
768.059	5574
769.23	5656
770.401	5698
771.571	5614
772.741	5730
773.912	5696
775.082	5698
776.251	5710
777.421	5822
778.59	5700
779.76	5798
780.928	5754
782.097	5792
783.266	5886
784.434	5840
785.602	5920
786.771	5928
787.938	6000
789.106	5942
790.274	5970
791.44	5972
792.608	6020
793.775	6042
794.941	6178
796.108	6062
797.273	6128
798.44	6220
799.606	6228
800.771	6282
801.937	6274
803.102	6266
804.268	6342
805.432	6332
806.597	6374
807.761	6452
808.926	6506
810.09	6528
811.254	6522
812.417	6574
813.582	6592
814.744	6548
815.908	6666
817.071	6650
818.234	6592
819.396	6764
820.558	6704
821.721	6710
822.883	6736
824.045	6898
825.206	6904
826.367	6892
827.529	6900
828.69	6990
829.85	7000
831.012	6976
832.172	7206
833.332	7100
834.493	7062
835.653	7092
836.812	7252
837.972	7112
839.131	7320
840.29	7268
841.449	7322
842.609	7292
843.767	7310
844.925	7300
846.083	7334
847.242	7464
848.399	7500
849.557	7514
850.714	7522
851.871	7516
853.029	7574
854.186	7590
855.342	7676
856.498	7636
857.654	7608
858.81	7802
859.966	7694
861.122	7746
862.278	7936
863.434	7770
864.589	7924
865.744	7918
866.898	7938
868.053	7880
869.207	7938
870.361	7944
871.515	7992
872.669	8056
873.822	8050
874.976	8226
876.129	8086
877.282	8030
878.435	8202
879.588	8138
880.74	8256
881.893	8216
883.045	8226
884.197	8160
885.349	8266
886.5	8280
887.652	8218
888.802	8322
889.953	8378
891.104	8378
892.254	8406
893.405	8352
894.555	8302
895.706	8476
896.854	8386
898.004	8544
899.154	8506
900.303	8648
901.453	8580
902.6	8496
903.749	8662
904.898	8538
906.047	8606
907.194	8706
908.342	8698
909.49	8824
910.638	8692
911.785	8866
912.932	8772
914.08	8760
915.225	8744
916.372	8888
917.519	8924
918.666	8846
919.811	8894
920.957	8882
922.102	8856
923.248	8926
924.394	8928
925.538	9078
926.684	9062
927.828	9004
928.973	9088
930.118	9136
931.261	9050
932.406	9236
933.549	9110
934.693	9198
935.836	9144
936.979	9292
938.122	9224
939.265	9344
940.407	9142
941.55	9362
942.692	9456
943.835	9376
944.976	9422
946.118	9432
947.259	9392
948.401	9574
949.542	9512
950.682	9522
951.824	9500
952.964	9636
954.105	9580
955.245	9714
956.385	9688
957.525	9686
958.664	9664
959.803	9832
960.944	9590
962.082	9750
963.221	9840
964.36	9698
965.498	9818
966.636	9864
967.774	9750
968.913	9906
970.051	9874
971.188	9959
972.325	10044
973.463	9894
974.6	10034
975.736	10000
976.873	10064
978.009	9986
979.146	9956
980.282	9966
981.418	9926
982.554	10068
983.689	10028
984.824	10130
985.959	9934
987.095	9972
988.23	10160
989.364	9978
990.499	10184
991.633	10028
992.767	10168
993.9	10232
995.034	10186
996.167	10294
997.301	10126
998.434	10306
999.567	10242
1000.7	10132
1001.83	10200
1002.96	10280
1004.1	10378
1005.23	10256
1006.36	10220
1007.49	10168
1008.62	10356
1009.76	10320
1010.89	10220
1012.02	10334
1013.15	10340
1014.28	10286
1015.41	10292
1016.54	10336
1017.67	10392
1018.8	10354
1019.93	10376
1021.06	10368
1022.19	10474
1023.32	10388
1024.44	10426
1025.57	10496
1026.7	10554
1027.83	10522
1028.96	10448
1030.09	10560
1031.21	10544
1032.34	10544
1033.47	10512
1034.6	10698
1035.72	10670
1036.85	10546
1037.98	10662
1039.1	10724
1040.23	10670
1041.35	10708
1042.48	10626
1043.61	10682
1044.73	10554
1045.86	10784
1046.98	10694
1048.11	10722
1049.23	10752
1050.36	10704
1051.48	10772
1052.61	10864
1053.73	10608
1054.85	10728
1055.98	10858
1057.1	10868
1058.22	10748
1059.35	10804
1060.47	10742
1061.59	10662
1062.72	10764
1063.84	10834
1064.96	10840
1066.08	10940
1067.2	10874
1068.33	10784
1069.45	10742
1070.57	10776
1071.69	10684
1072.81	10784
1073.93	10770
1075.05	10776
1076.17	10684
1077.29	10884
1078.41	10714
1079.53	10760
1080.65	10664
1081.77	10682
1082.89	10656
1084.01	10736
1085.13	10726
1086.25	10728
1087.37	10724
1088.48	10686
1089.6	10588
1090.72	10544
1091.84	10660
1092.96	10520
1094.07	10504
1095.19	10538
1096.31	10518
1097.43	10632
1098.54	10610
1099.66	10566
1100.78	10596
1101.89	10472
1103.01	10536
1104.12	10382
1105.24	10368
1106.35	10338
1107.47	10456
1108.59	10328
1109.7	10354
1110.81	10460
1111.93	10378
1113.04	10318
1114.16	10394
1115.27	10424
1116.39	10374
1117.5	10308
1118.61	10318
1119.73	10484
1120.84	10312
1121.95	10332
1123.06	10402
1124.18	10336
1125.29	10178
1126.4	10264
1127.51	10316
1128.63	10294
1129.74	10236
1130.85	10202
1131.96	10208
1133.07	10306
1134.18	10288
1135.29	10260
1136.4	10180
1137.51	10172
1138.62	10220
1139.73	10122
1140.84	10160
1141.95	10172
1143.06	10092
1144.17	10058
1145.28	10040
1146.39	10056
1147.5	10176
1148.61	10092
1149.72	10162
1150.82	10110
1151.93	10054
1153.04	10114
1154.15	10218
1155.26	10210
1156.36	10060
1157.47	10066
1158.58	10064
1159.68	9978
1160.79	9896
1161.9	10056
1163	9916
1164.11	10028
1165.22	9944
1166.32	9842
1167.43	9902
1168.53	10012
1169.64	9854
1170.74	9832
1171.85	9780
1172.95	9838
1174.06	9802
1175.16	9748
1176.26	9802
1177.37	9766
1178.47	9786
1179.58	9638
1180.68	9690
1181.78	9650
1182.88	9680
1183.99	9560
1185.09	9662
1186.19	9668
1187.3	9464
1188.4	9542
1189.5	9456
1190.6	9338
1191.7	9332
1192.8	9308
1193.9	9354
1195.01	9376
1196.11	9306.3
1197.21	9290.79
1198.31	9126.29
1199.41	9300.53
1200.51	9266.38
1201.61	9197.16
1202.71	9116.14
1203.81	9129.84
1204.91	9232.97
1206.01	8968.36
1207.11	9000.9
1208.2	8941.45
1209.3	9019.41
1210.4	9001.73
1211.5	8933.88
1212.6	8893.51
1213.7	8825.31
1214.8	8807.09
1215.89	8867.8
1216.99	8793.42
1218.09	8716.96
1219.18	8751.56
1220.28	8804.39
1221.38	8751.44
1222.48	8722.54
1223.57	8706.42
1224.67	8617.15
1225.76	8583.16
1226.86	8625.96
1227.96	8660.21
1229.05	8642.27
1230.15	8549.63
1231.24	8503.16
1232.34	8481.3
1233.43	8397.83
1234.53	8473.21
1235.62	8435.43
1236.71	8440.14
1237.81	8334.22
1238.9	8362.05
1240	8432.73
1241.09	8369.55
1242.18	8337.75
1243.28	8260.04
1244.37	8270.94
1245.46	8328.33
1246.56	8295.26
1247.65	8142.31
1248.74	8131.06
1249.83	8176.62
1250.93	8198.95
1252.02	8171.91
1253.11	8162.21
1254.2	8152.17
1255.29	8090.43
1256.38	8044.47
1257.47	8047.13
1258.56	8042.31
1259.65	8016.35
1260.74	8037.84
1261.84	7997.13
1262.92	7958.44
1264.01	7932.47
1265.1	7913.96
1266.19	7943.71
1267.28	7931.72
1268.37	7924.56
1269.46	7901.18
1270.55	7812.26
1271.64	7840.72
1272.73	7833.08
1273.82	7764.86
1274.9	7821.14
1275.99	7792.03
1277.08	7817.2
1278.17	7728.03
1279.26	7816.42
1280.34	7699.76
1281.43	7688.87
1282.52	7722.66
1283.6	7670.04
1284.69	7580.16
1285.78	7583.68
1286.86	7640.74
1287.95	7580.35
1289.03	7581.06
1290.12	7520.48
1291.21	7468.12
1292.29	7392.92
1293.38	7450.82
1294.46	7453.3
1295.55	7426.26
1296.63	7510.58
1297.71	7405.07
1298.8	7361.89
1299.88	7360.78
1300.97	7396.3
1302.05	7319.51
1303.13	7307.44
1304.22	7399.05
1305.3	7221.45
1306.38	7191.47
1307.34	7218
1308.43	7084
1309.52	7116
1310.61	7160
1311.7	7160
1312.78	7120
1313.87	6968
1314.96	7006
1316.05	7036
1317.13	6896
1318.22	6922
1319.3	6990
1320.39	6976
1321.48	6856
1322.56	6896
1323.65	6872
1324.73	6834
1325.82	6854
1326.9	6772
1327.99	6828
1329.07	6750
1330.16	6748
1331.24	6656
1332.33	6638
1333.41	6660
1334.5	6690
1335.58	6736
1336.66	6628
1337.75	6562
1338.83	6540
1339.91	6450
1341	6434
1342.08	6462
1343.16	6446
1344.25	6494
1345.33	6410
1346.41	6300
1347.49	6436
1348.57	6416
1349.65	6400
1350.74	6282
1351.82	6358
1352.9	6326
1353.98	6232
1355.06	6268
1356.14	6210
1357.22	6186
1358.3	6166
1359.38	6298
1360.46	6144
1361.54	6224
1362.62	6136
1363.7	6254
1364.78	6014
1365.86	6116
1366.94	5984
1368.02	6108
1369.09	6086
1370.17	6056
1371.25	5922
1372.33	6018
1373.41	5872
1374.48	5872
1375.56	5950
1376.64	5908
1377.72	5820
1378.79	5954
1379.87	5970
1380.95	5832
1382.02	5814
1383.1	5766
1384.17	5842
1385.25	5768
1386.33	5838
1387.4	5850
1388.48	5674
1389.55	5710
1390.63	5708
1391.7	5592
1392.78	5792
1393.85	5626
1394.93	5710
1396	5610
1397.07	5622
1398.15	5626
1399.22	5590
1400.3	5610
1401.37	5604
1402.44	5492
1403.52	5566
1404.59	5520
1405.66	5450
1406.73	5620
1407.81	5498
1408.88	5478
1409.95	5416
1411.02	5446
1412.09	5418
1413.17	5348
1414.24	5388
1415.31	5294
1416.38	5360
1417.45	5338
1418.52	5362
1419.59	5322
1420.66	5306
1421.73	5330
1422.8	5350
1423.87	5198
1424.94	5220
1426.01	5248
1427.08	5200
1428.15	5120
1429.22	5278
1430.29	5246
1431.35	5328
1432.42	5018
1433.49	5216
1434.56	5150
1435.63	5090
1436.7	5114
1437.76	5110
1438.83	5052
1439.9	5054
1440.96	5136
1442.03	5108
1443.1	5114
1444.17	4976
1445.23	5010
1446.3	4978
1447.36	4986
1448.43	4956
1449.49	5006
1450.56	5060
1451.63	5028
1452.69	4952
1453.76	4898
1454.82	4852
1455.89	4964
1456.95	4884
1458.01	4922
1459.08	4902
1460.14	4790
1461.21	4950
1462.27	4856
1463.34	4876
1464.4	4870
1465.46	4804
1466.52	4838
1467.59	4832
1468.65	4872
1469.71	4850
1470.77	4872
1471.84	4804
1472.9	4802
1473.96	4758
1475.02	4690
1476.08	4658
1477.15	4680
1478.21	4756
1479.27	4804
1480.33	4648
1481.39	4754
1482.45	4704
1483.51	4634
1484.57	4698
1485.63	4664
1486.69	4646
1487.75	4706
1488.81	4610
1489.87	4572
1490.93	4696
1491.99	4618
1493.05	4564
1494.1	4570
1495.16	4566
1496.22	4564
1497.28	4524
1498.34	4564
1499.4	4518
1500.45	4586
1501.51	4586
1502.57	4500
1503.63	4462
1504.68	4474
1505.74	4482
1506.8	4528
1507.85	4500
1508.91	4548
1509.97	4506
1511.02	4386
1512.08	4454
1513.13	4498
1514.19	4382
1515.24	4388
1516.3	4356
1517.35	4458
1518.41	4380
1519.46	4290
1520.52	4322
1521.57	4374
1522.63	4276
1523.68	4324
1524.73	4272
1525.79	4256
1526.84	4246
1527.9	4182
1528.95	4268
1530	4278
1531.06	4214
1532.11	4186
1533.16	4256
1534.21	4256
1535.26	4174
1536.32	4192
1537.37	4218
1538.42	4244
1539.47	4132
1540.52	4140
1541.57	4128
1542.63	4152
1543.68	4060
1544.73	4110
1545.78	4090
1546.83	4026
1547.88	4134
1548.93	4120
1549.98	4134
1551.03	4132
1552.08	4078
1553.13	4094
1554.18	4090
1555.23	3978
1556.27	4050
1557.32	3966
1558.37	3986
1559.42	4006
1560.47	3996
1561.52	4048
1562.56	3996
1563.61	4024
1564.66	3998
1565.71	3976
1566.75	4000
1567.8	3976
1568.85	3978
1569.9	3908
1570.94	3896
1571.99	3958
1573.03	3846
1574.08	3844
1575.13	3820
1576.17	3966
1577.22	3922
1578.26	3924
1579.31	3894
1580.35	3930
1581.4	3912
1582.44	3908
1583.49	3874
1584.53	3932
1585.58	3902
1586.62	3928
1587.66	3832
1588.71	3780
1589.75	3870
1590.8	3782
1591.84	3884
1592.88	3812
1593.93	3886
1594.97	3918
1596.01	3792
1597.05	3784
1598.1	3800
1599.14	3820
1600.18	3794
1601.22	3780
1602.26	3838
1603.31	3832
1604.35	3828
1605.39	3778
1606.43	3776
1607.47	3766
1608.51	3750
1609.55	3746
1610.59	3812
1611.63	3794
1612.67	3776
1613.71	3752
1614.75	3792
1615.79	3708
1616.83	3758
1617.87	3784
1618.91	3794
1619.95	3736
1620.99	3762
1622.02	3740
1623.06	3746
1624.1	3690
1625.14	3670
1626.18	3698
1627.21	3672
1628.25	3702
1629.29	3720
1630.33	3686
1631.36	3652
1632.4	3660
1633.44	3698
1634.48	3748
1635.51	3668
1636.55	3698
1637.58	3620
1638.62	3716
1639.66	3636
1640.69	3694
1641.73	3622
1642.76	3676
1643.8	3650
1644.83	3622
1645.87	3602
1646.9	3550
1647.94	3550
1648.97	3640
1650	3538
1651.04	3510
1652.07	3578
1653.11	3524
1654.14	3576
1655.17	3474
1656.21	3580
1657.24	3510
1658.27	3598
1659.31	3548
1660.34	3538
1661.37	3546
1662.4	3510
1663.43	3506
1664.47	3502
1665.5	3498
1666.53	3478
1667.56	3476
1668.59	3406
1669.62	3478
1670.66	3524
1671.69	3408
1672.72	3414
1673.75	3464
1674.78	3438
1675.81	3422
1676.84	3416
1677.87	3460
1678.9	3366
1679.93	3358
1680.96	3380
1681.98	3392
1683.01	3380
1684.04	3510
1685.07	3366
1686.1	3372
1687.13	3408
1688.16	3322
1689.19	3426
1690.21	3414
1691.24	3380
1692.27	3432
1693.3	3348
1694.32	3292
1695.35	3302
1696.38	3362
1697.4	3308
1698.43	3292
1699.46	3280
1700.48	3332
1701.51	3278
1702.54	3282
1703.56	3302
1704.59	3256
1705.61	3294
1706.64	3298
1707.66	3210
1708.69	3312
1709.71	3266
1710.74	3272
1711.76	3282
1712.79	3268
1713.81	3304
1714.83	3218
1715.86	3264
1716.88	3264
1717.91	3256
1718.93	3226
1719.95	3208
1720.98	3168
1722	3226
1723.02	3262
1724.04	3204
1725.07	3190
1726.09	3250
1727.11	3262
1728.13	3126
1729.15	3202
1730.18	3292
1731.2	3184
1732.22	3172
1733.24	3210
1734.26	3190
1735.28	3188
1736.3	3210
1737.32	3224
1738.34	3120
1739.36	3198
1740.38	3190
1741.4	3096
1742.42	3166
1743.44	3146
1744.46	3178
1745.48	3156
1746.5	3150
1747.52	3132
1748.54	3154
1749.56	3154
1750.58	3126
1751.6	3140
1752.61	3164
1753.63	3142
1754.65	3122
1755.67	3162
1756.68	3128
1757.7	3132
1758.72	3066
1759.74	3118
1760.75	3126
1761.77	3178
1762.79	3084
1763.8	3048
1764.82	3092
1765.84	3096
1766.85	3132
1767.87	3122
1768.88	3096
1769.9	3102
1770.91	3108
1771.93	3048
1772.94	3122
1773.96	3148
1774.97	3132
1775.99	3188
1777	3080
1778.02	3054
1779.03	3050
1780.04	3026
1781.06	3060
1782.07	3076
1783.09	3012
1784.1	3126
1785.11	3082
1786.13	3032
1787.14	3062
1788.15	3082
1789.16	3040
1790.18	3072
1791.19	2996
1792.2	3012
1793.21	3108
1794.22	3034
1795.23	3050
1796.25	3046
1797.26	3044
1798.27	2942
1799.28	3022
1800.29	3042
1801.3	3074
1802.31	3006
1803.32	2964
1804.33	2992
1805.34	2930
1806.35	2972
1807.36	2948
1808.37	3024
1809.38	3006
1810.39	2952
1811.4	2914
1812.41	2952
1813.42	3020
1814.43	2930
1815.43	2970
1816.44	2998
1817.45	2946
1818.46	3018
1819.47	2984
1820.47	2908
1821.48	2896
1822.49	2860
1823.49	2928
1824.5	3018
1825.51	2966
1826.52	2928
1827.52	2918
1828.53	2934
1829.54	2942
1830.54	2880
1831.55	2946
1832.55	2844
1833.56	2838
1834.56	2912
1835.57	2920
1836.57	2850
1837.58	2910
1838.58	2938
1839.59	2924
1840.59	2864
1841.6	2878
1842.6	2884
1843.61	2878
1844.61	2900
1845.61	2860
1846.62	2902
1847.62	2894
1848.62	2838
1849.63	2898
1850.63	2796
1851.63	2884
1852.64	2844
1853.64	2868
1854.64	2850
1855.64	2808
1856.64	2828
1857.65	2854
1858.65	2850
1859.65	2846
1860.65	2838
1861.65	2866
1862.65	2830
1863.65	2774
1864.66	2742
1865.66	2786
1866.66	2872
1867.66	2790
1868.66	2790
1869.66	2800
1870.66	2834
1871.66	2798
1872.66	2822
1873.66	2814
1874.66	2814
1875.65	2754
1876.65	2792
1877.65	2864
1878.65	2808
1879.65	2790
1880.65	2790
1881.65	2792
1882.64	2808
1883.64	2824
1884.64	2814
1885.64	2766
1886.63	2768
1887.63	2832
1888.63	2778
1889.63	2762
1890.62	2820
1891.62	2778
1892.62	2814
1893.61	2714
1894.61	2754
1895.6	2742
1896.6	2706
1897.6	2744
1898.59	2760
1899.59	2754
1900.58	2708
1901.58	2662
1902.57	2732
1903.57	2732
1904.56	2714
1905.56	2754
1906.55	2790
1907.54	2752
1908.54	2786
1909.53	2772
1910.53	2772
1911.52	2750
1912.51	2764
1913.51	2740
1914.5	2798
1915.49	2722
1916.49	2780
1917.48	2658
1918.47	2778
1919.46	2744
1920.46	2676
1921.45	2750
1922.44	2770
1923.43	2730
1924.42	2658
1925.41	2778
1926.41	2746
1927.4	2732
1928.39	2704
1929.38	2706
1930.37	2696
1931.36	2638
1932.35	2756
1933.34	2680
1934.33	2738
1935.32	2680
1936.31	2674
1937.3	2708
1938.29	2674
1939.28	2670
1940.27	2714
1941.26	2750
1942.24	2642
1943.23	2704
1944.22	2664
1945.21	2666
1946.2	2666
1947.19	2630
1948.17	2694
1949.16	2680
1950.15	2667
1951.14	2654
1952.13	2748
1953.11	2668
1954.1	2674
1955.09	2676
1956.07	2628
1957.06	2606
1958.05	2662
1959.03	2668
1960.02	2660
1961	2700
1961.99	2636
1962.98	2702
1963.96	2626
1964.95	2638
1965.93	2610
1966.92	2610
1967.9	2684
1968.89	2654
1969.87	2636
1970.85	2698
1971.84	2694
1972.82	2574
1973.81	2576
1974.79	2666
1975.78	2626
1976.76	2612
1977.74	2642
1978.73	2648
1979.71	2602
1980.69	2614
1981.67	2640
1982.66	2624
1983.64	2622
1984.62	2614
1985.6	2616
1986.59	2626
1987.57	2604
1988.55	2618
1989.53	2626
1990.51	2600
1991.49	2596
1992.47	2632
1993.45	2602
1994.44	2576
1995.42	2556
1996.4	2562
1997.38	2590
1998.36	2606
1999.34	2586
2000.32	2612
2001.3	2566
2002.28	2566
2003.26	2626
2004.24	2646
2005.22	2616
2006.19	2558
2007.17	2542
2008.15	2608
2009.13	2490
2010.11	2528
2011.09	2522
2012.06	2566
2013.04	2574
2014.02	2572
2015	2546
2015.98	2562
2016.95	2578
2017.93	2512
2018.91	2584
2019.88	2572
2020.86	2586
2021.84	2578
2022.81	2642
2023.79	2572
2024.77	2566
2025.74	2588
2026.72	2602
2027.69	2602
2028.67	2606
2029.65	2606
2030.62	2568
2031.6	2528
2032.57	2518
2033.55	2540
2034.52	2494
2035.5	2494
2036.47	2534
2037.44	2516
2038.42	2534
2039.39	2552
2040.36	2580
2041.34	2524
2042.31	2476
2043.29	2564
2044.26	2544
2045.23	2500
2046.2	2498
2047.18	2466
2048.15	2534
2049.12	2508
2050.09	2514
2051.07	2494
2052.04	2536
2053.01	2574
2053.98	2458
2054.95	2530
2055.93	2596
2056.9	2490
2057.87	2516
2058.84	2560
2059.81	2532
2060.78	2510
2061.75	2466
2062.72	2486
2063.69	2560
2064.66	2492
2065.63	2474
2066.6	2494
2067.57	2498
2068.54	2514
2069.51	2470
2070.48	2506
2071.45	2460
2072.42	2450
2073.38	2490
2074.35	2508
2075.32	2556
2076.29	2462
2077.26	2502
2078.23	2486
2079.19	2500
2080.16	2450
2081.13	2468
2082.1	2472
2083.06	2484
2084.03	2518
2085	2510
2085.96	2488
2086.93	2454
2087.9	2486
2088.86	2514
2089.83	2468
2090.8	2440
2091.76	2450
2092.73	2430
2093.69	2530
2094.66	2400
2095.62	2462
2096.59	2424
2097.55	2464
2098.52	2486
2099.48	2460
2100.45	2432
2101.41	2440
2102.38	2456
2103.34	2434
2104.31	2438
2105.27	2498
2106.23	2510
2107.2	2504
2108.16	2392
2109.12	2374
2110.09	2426
2111.05	2346
2112.01	2404
2112.98	2458
2113.94	2432
2114.9	2434
2115.86	2424
2116.82	2450
2117.79	2462
2118.75	2436
2119.71	2406
2120.67	2414
2121.63	2432
2122.59	2456
2123.55	2420
2124.52	2364
2125.48	2436
2126.44	2456
2127.4	2468
2128.36	2410
2129.32	2362
2130.28	2396
2131.24	2484
2132.2	2340
2133.16	2418
2134.12	2370
2135.08	2444
2136.04	2440
2136.99	2430
2137.95	2422
2138.91	2424
2139.87	2392
2140.83	2370
2141.79	2372
2142.75	2362
2143.7	2364
2144.66	2340
2145.62	2363.86
2146.58	2331.96
2147.53	2343.71
2148.49	2337.04
2149.45	2396.73
2150.41	2350.38
2151.36	2353.09
2152.32	2376.43
2153.28	2340.91
2154.23	2345.96
2155.19	2383.55
2156.14	2345.13
2157.1	2358.23
2158.06	2315.84
2159.01	2342.78
2159.97	2352.05
2160.92	2311.57
2161.88	2349.62
2162.83	2362.96
2163.79	2320.74
2164.74	2321.97
2165.7	2296.8
2166.65	2304.6
2167.61	2299.76
2168.56	2341.57
2169.51	2336.38
2170.47	2344.46
2171.42	2273.49
2172.38	2319.44
2173.33	2265.04
2174.28	2304.19
2175.24	2299.6
2176.19	2275.83
2177.14	2337.35
2178.09	2302.77
2179.05	2304.8
2180	2288.13
2180.95	2275.72
2181.9	2290.47
2182.86	2279.85
2183.81	2304.96
2184.76	2291.88
2185.71	2295.21
2186.66	2286.95
2187.61	2246.04
2188.57	2301.99
2189.52	2275.27
2190.47	2274.55
2191.42	2271.81
2192.37	2240.94
2193.32	2251.32
2194.27	2280.91
2195.22	2286.71
2196.17	2247.18
2197.12	2258.73
2198.07	2292.11
2199.02	2245.35
2199.97	2228.49
2200.92	2273.87
2201.87	2293.94
2202.82	2257.18
2203.76	2256.69
2204.71	2265.77
2205.66	2220.59
2206.61	2203.46
2207.56	2225.45
2208.51	2228.61
2209.45	2228.05
2210.4	2216.22
2211.35	2231.73
2212.3	2231.36
2213.25	2217.26
2214.19	2235.74
2215.14	2205.9
2216.09	2235.14
2217.03	2221.15
2217.98	2224.46
2218.93	2202.23
2219.87	2230.1
2220.82	2231.37
2221.77	2209.71
2222.71	2234.76
2223.66	2229.1
2224.6	2212.7
2225.55	2183.38
2226.49	2205.45
2227.44	2207.92
2228.38	2231.84
2229.33	2204.39
2230.27	2202.65
2231.22	2175.97
2232.16	2185.39
2233.11	2227.6
2234.05	2215.67
2235	2196.46
2235.94	2217.83
2236.88	2231
2237.83	2227.76
2238.77	2194.35
2239.72	2186.11
2240.66	2203.92
2241.6	2218.76
2242.07	2240
2243.02	2162
2243.97	2172
2244.92	2218
2245.87	2234
2246.81	2186
2247.76	2176
2248.71	2228
2249.65	2122
2250.6	2118
2251.55	2182
2252.49	2164
2253.44	2204
2254.39	2220
2255.33	2206
2256.28	2186
2257.22	2202
2258.17	2178
2259.12	2220
2260.06	2182
2261.01	2210
2261.95	2200
2262.9	2230
2263.84	2168
2264.78	2176
2265.73	2186
2266.67	2196
2267.62	2192
2268.56	2166
2269.51	2188
2270.45	2158
2271.39	2144
2272.34	2170
2273.28	2176
2274.22	2170
2275.17	2178
2276.11	2114
2277.05	2126
2277.99	2142
2278.94	2116
2279.88	2154
2280.82	2100
2281.76	2138
2282.71	2142
2283.65	2168
2284.59	2198
2285.53	2112
2286.47	2134
2287.41	2112
2288.35	2072
2289.3	2166
2290.24	2128
2291.18	2100
2292.12	2108
2293.06	2168
2294	2072
2294.94	2126
2295.88	2116
2296.82	2108
2297.76	2064
2298.7	2110
2299.64	2062
2300.58	2104
2301.52	2060
2302.46	2074
2303.39	2116
2304.33	2136
2305.27	2132
2306.21	2070
2307.15	2110
2308.09	2038
2309.02	2058
2309.96	2110
2310.9	2096
2311.84	2084
2312.77	2070
2313.71	2066
2314.65	2076
2315.59	2104
2316.52	2040
2317.46	2092
2318.4	2054
2319.33	2040
2320.27	2058
2321.21	2068
2322.14	2086
2323.08	2022
2324.01	2020
2324.95	2018
2325.89	2036
2326.82	2042
2327.76	2034
2328.69	2068
2329.63	2006
2330.56	1994
2331.5	2036
2332.43	2030
2333.36	2078
2334.3	2040
2335.23	2044
2336.17	2010
2337.1	1966
2338.03	2030
2338.97	2012
2339.9	2002
2340.83	1952
2341.77	1996
2342.7	2044
2343.63	2048
2344.57	2006
2345.5	2052
2346.43	2046
2347.36	2010
2348.3	2000
2349.23	2016
2350.16	2004
2351.09	2030
2352.02	1966
2352.95	1996
2353.89	1938
2354.82	1998
2355.75	2032
2356.68	1956
2357.61	2034
2358.54	1972
2359.47	2000
2360.4	1952
2361.33	1964
2362.26	2022
2363.19	2004
2364.12	1992
2365.05	1978
2365.98	1940
2366.91	1922
2367.84	1960
2368.77	1938
2369.7	1998
2370.63	1952
2371.56	1952
2372.48	1938
2373.41	1930
2374.34	1968
2375.27	1898
2376.2	1916
2377.12	1860
2378.05	1954
2378.98	1956
2379.91	1916
2380.84	1924
2381.76	1892
2382.69	1914
2383.62	1932
2384.54	1892
2385.47	1912
2386.4	1898
2387.32	1902
2388.25	1926
2389.18	1868
2390.1	1930
2391.03	1888
2391.95	1850
2392.88	1888
2393.8	1876
2394.73	1876
2395.65	1898
2396.58	1832
2397.5	1908
2398.43	1854
2399.35	1900
2400.28	1892
2401.2	1842
2402.13	1828
2403.05	1818
2403.97	1858
2404.9	1874
2405.82	1874
2406.75	1850
2407.67	1854
2408.59	1826
2409.51	1788
2410.44	1894
2411.36	1852
2412.28	1892
2413.21	1868
2414.13	1834
2415.05	1860
2415.97	1828
2416.9	1828
2417.82	1786
2418.74	1794
2419.66	1814
2420.58	1788
2421.5	1818
2422.42	1824
2423.35	1798
2424.27	1814
2425.19	1820
2426.11	1780
2427.03	1774
2427.95	1818
2428.87	1778
2429.79	1826
2430.71	1786
2431.63	1808
2432.55	1778
2433.47	1734
2434.39	1762
2435.31	1708
2436.23	1758
2437.14	1774
2438.06	1742
2438.98	1752
2439.9	1752
2440.82	1784
2441.74	1786
2442.66	1784
2443.57	1788
2444.49	1688
2445.41	1762
2446.33	1706
2447.24	1732
2448.16	1784
2449.08	1718
2450	1708
2450.91	1778
2451.83	1716
2452.75	1742
2453.66	1750
2454.58	1744
2455.5	1724
2456.41	1730
2457.33	1710
2458.24	1694
2459.16	1734
2460.08	1730
2460.99	1688
2461.91	1644
2462.82	1656
2463.74	1708
2464.65	1718
2465.57	1676
2466.48	1668
2467.4	1714
2468.31	1716
2469.22	1656
2470.14	1644
2471.05	1660
2471.97	1692
2472.88	1680
2473.79	1656
2474.71	1666
2475.62	1696
2476.53	1682
2477.45	1676
2478.36	1678
2479.27	1652
2480.19	1708
2481.1	1612
2482.01	1608
2482.92	1636
2483.83	1692
2484.75	1620
2485.66	1622
2486.57	1664
2487.48	1650
2488.39	1592
2489.3	1638
2490.22	1612
2491.13	1648
2492.04	1572
2492.95	1634
2493.86	1604
2494.77	1614
2495.68	1640
2496.59	1630
2497.5	1642
2498.41	1600
2499.32	1582
2500.23	1594
2501.14	1592
2502.05	1598
2502.96	1608
2503.87	1610
2504.78	1564
2505.68	1574
2506.59	1662
2507.5	1606
2508.41	1594
2509.32	1570
2510.23	1584
2511.14	1524
2512.04	1574
2512.95	1558
2513.86	1606
2514.77	1590
2515.67	1566
2516.58	1558
2517.49	1536
2518.39	1560
2519.3	1536
2520.21	1576
2521.11	1574
2522.02	1534
2522.93	1538
2523.83	1518
2524.74	1500
2525.65	1522
2526.55	1498
2527.46	1548
2528.36	1532
2529.27	1524
2530.17	1534
2531.08	1500
2531.98	1512
2532.89	1506
2533.79	1466
2534.7	1510
2535.6	1488
2536.51	1470
2537.41	1516
2538.32	1504
2539.22	1502
2540.12	1550
2541.03	1512
2541.93	1536
2542.83	1516
2543.74	1446
2544.64	1460
2545.54	1482
2546.45	1462
2547.35	1502
2548.25	1488
2549.15	1490
2550.06	1464
2550.96	1480
2551.86	1494
2552.76	1452
2553.66	1480
2554.56	1448
2555.47	1468
2556.37	1428
2557.27	1470
2558.17	1452
2559.07	1396
2559.97	1450
2560.87	1454
2561.77	1442
2562.67	1452
2563.58	1404
2564.47	1432
2565.38	1412
2566.27	1416
2567.18	1410
2568.07	1388
2568.97	1468
2569.87	1370
2570.77	1376
2571.67	1400
2572.57	1462
2573.47	1376
2574.37	1382
2575.27	1430
2576.17	1378
2577.06	1440
2577.96	1408
2578.86	1394
2579.76	1376
2580.66	1420
2581.55	1380
2582.45	1382
2583.35	1356
2584.25	1374
2585.14	1342
2586.04	1360
2586.94	1358
2587.83	1360
2588.73	1370
2589.63	1314
2590.52	1346
2591.42	1348
2592.32	1366
2593.21	1370
2594.11	1362
2595	1364
2595.9	1322
2596.8	1354
2597.69	1312
2598.59	1358
2599.48	1316
2600.38	1328
2601.27	1330
2602.17	1270
2603.06	1272
2603.95	1326
2604.85	1290
2605.74	1296
2606.64	1292
2607.53	1376
2608.42	1288
2609.32	1324
2610.21	1324
2611.1	1302
2612	1330
2612.89	1324
2613.78	1302
2614.68	1294
2615.57	1264
2616.46	1306
2617.36	1266
2618.25	1248
2619.14	1282
2620.03	1284
2620.92	1332
2621.82	1312
2622.71	1286
2623.6	1242
2624.49	1254
2625.38	1276
2626.27	1236
2627.16	1224
2628.05	1284
2628.95	1278
2629.84	1252
2630.73	1276
2631.62	1228
2632.51	1256
2633.4	1218
2634.29	1224
2635.18	1252
2636.07	1244
2636.96	1202
2637.85	1264
2638.74	1204
2639.62	1222
2640.51	1226
2641.4	1234
2642.29	1214
2643.18	1230
2644.07	1184
2644.96	1196
2645.85	1210
2646.73	1216
2647.62	1188
2648.51	1230
2649.4	1188
2650.28	1210
2651.17	1176
2652.06	1204
2652.95	1212
2653.83	1186
2654.72	1198
2655.61	1202
2656.5	1204
2657.38	1180
2658.27	1164
2659.15	1160
2660.04	1168
2660.93	1204
2661.81	1142
2662.7	1156
2663.58	1124
2664.47	1160
2665.35	1186
2666.24	1130
2667.13	1162
2668.01	1164
2668.9	1160
2669.78	1166
2670.66	1152
2671.55	1164
2672.43	1146
2673.32	1152
2674.2	1088
2675.09	1176
2675.97	1128
2676.85	1150
2677.74	1160
2678.62	1152
2679.5	1132
2680.39	1108
2681.27	1164
2682.15	1100
2683.04	1116
2683.92	1100
2684.8	1118
2685.68	1136
2686.57	1126
2687.45	1136
2688.33	1146
2689.21	1120
2690.09	1132
2690.98	1104
2691.86	1138
2692.74	1076
2693.62	1124
2694.5	1122
2695.38	1126
2696.26	1100
2697.15	1090
2698.03	1078
2698.91	1138
2699.79	1070
2700.67	1078
2701.55	1110
2702.43	1052
2703.31	1028
2704.19	1050
2705.07	1106
2705.95	1084
2706.83	1066
2707.7	1078
2708.58	1058
2709.46	1030
2710.34	1058
2711.22	1056
2712.1	1054
2712.98	1050
2713.86	1100
2714.73	1062
2715.61	1062
2716.49	1066
2717.37	1032
2718.25	1030
2719.12	1088
2720	1054
2720.88	1028
2721.76	1078
2722.63	1048
2723.51	1042
2724.39	1054
2725.26	1024
2726.14	1044
2727.02	1042
2727.89	1044
2728.77	1000
2729.64	1036
2730.52	1026
2731.4	1016
2732.27	1038
2733.15	1028
2734.02	1024
2734.9	1000
2735.77	982
2736.65	976
2737.52	990
2738.4	1002
2739.27	974
2740.15	990
2741.02	956
2741.9	998
2742.77	1024
2743.64	984
2744.52	948
2745.39	986
2746.27	1006
2747.14	940
2748.01	974
2748.89	968
2749.76	966
2750.63	1006
2751.51	948
2752.38	932
2753.25	980
2754.12	954
2755	936
2755.87	976
2756.74	996
2757.61	922
2758.48	948
2759.35	948
2760.23	976
2761.1	926
2761.97	948
2762.84	988
2763.71	934
2764.58	926
2765.45	948
2766.32	952
2767.19	960
2768.07	934
2768.94	932
2769.81	954
2770.68	926
2771.55	924
2772.42	938
2773.29	924
2774.16	914
2775.02	932
2775.89	918
2776.76	880
2777.63	924
2778.5	884
2779.37	920
2780.24	924
2781.11	882
2781.98	902
2782.84	896
2783.71	930
2784.58	918
2785.45	940
2786.32	912
2787.18	866
2788.05	880
2788.92	880
2789.79	886
2790.65	880
2791.52	846
2792.39	894
2793.25	882
2794.12	928
2794.99	872
2795.85	894
2796.72	862
2797.59	876
2798.45	858
2799.32	920
2800.18	876
2801.05	902
2801.92	892
2802.78	858
2803.65	852
2804.51	846
2805.38	854
2806.24	898
2807.11	858
2807.97	890
2808.84	848
2809.7	862
2810.57	836
2811.43	862
2812.29	860
2813.16	878
2814.02	888
2814.88	848
2815.75	880
2816.61	810
2817.47	886
2818.34	846
2819.2	848
2820.06	846
2820.93	834
2821.79	822
2822.65	870
2823.51	860
2824.38	816
2825.24	818
2826.1	806
2826.96	790
2827.82	798
2828.69	808
2829.55	836
2830.41	800
2831.27	818
2832.13	794
2832.99	832
2833.85	822
2834.71	838
2835.57	822
2836.44	806
2837.3	838
2838.16	808
2839.02	792
2839.88	786
2840.74	798
2841.6	820
2842.46	816
2843.32	832
2844.18	780
2845.03	752
2845.89	838
2846.75	776
2847.61	764
2848.47	792
2849.33	760
2850.19	770
2851.05	806
2851.9	808
2852.76	772
2853.62	796
2854.48	774
2855.34	784
2856.19	766
2857.05	736
2857.91	748
2858.77	780
2859.62	748
2860.48	770
2861.34	764
2862.19	760
2863.05	726
2863.91	762
2864.76	716
2865.62	740
2866.48	750
2867.33	764
2868.19	758
2869.04	748
2869.9	756
2870.76	740
2871.61	736
2872.47	740
2873.32	734
2874.18	748
2875.03	734
2875.89	722
2876.74	750
2877.6	726
2878.45	776
2879.31	756
2880.16	716
2881.01	734
2881.87	728
2882.72	718
2883.58	704
2884.43	746
2885.28	712
2886.14	720
2886.99	746
2887.84	710
2888.7	710
2889.55	782
2890.4	748
2891.25	754
2892.11	730
2892.96	714
2893.81	724
2894.66	738
2895.52	722
2896.37	702
2897.22	710
2898.07	710
2898.92	706
2899.77	712
2900.62	732
2901.48	732
2902.33	704
2903.18	708
2904.03	670
2904.88	680
2905.73	738
2906.58	692
2907.43	700
2908.28	734
2909.13	676
2909.98	710
2910.83	696
2911.68	674
2912.53	676
2913.38	688
2914.23	710
2915.08	684
2915.93	708
2916.78	664
2917.63	692
2918.47	706
2919.32	684
2920.17	690
2921.02	680
2921.87	692
2922.72	670
2923.56	694
2924.41	684
2925.26	698
2926.11	714
2926.95	684
2927.8	676
2928.65	652
2929.5	672
2930.34	656
2931.19	668
2932.04	620
2932.88	650
2933.73	678
2934.58	680
2935.42	644
2936.27	660
2937.11	682
2937.96	654
2938.81	656
2939.65	654
2940.5	640
2941.34	700
2942.19	662
2943.03	656
2943.88	632
2944.72	666
2945.57	674
2946.41	668
2947.26	664
2948.1	668
2948.95	668
2949.79	644
2950.64	652
2951.48	642
2952.32	674
2953.17	636
2954.01	634
2954.85	602
2955.7	640
2956.54	634
2957.38	594
2958.23	636
2959.07	638
2959.91	634
2960.75	646
2961.6	630
2962.44	638
2963.28	654
2964.12	616
2964.97	630
2965.81	616
2966.65	652
2967.49	594
2968.33	638
2969.17	630
2970.02	650
2970.86	628
2971.7	648
2972.54	634
2973.38	634
2974.22	614
2975.06	614
2975.9	612
2976.74	604
2977.58	638
2978.42	616
2979.26	594
2980.1	568
2980.94	586
2981.78	590
2982.62	612
2983.46	600
2984.3	600
2985.14	618
2985.98	590
2986.82	588
2987.66	596
2988.49	588
2989.33	602
2990.17	570
2991.01	598
2991.85	572
2992.69	614
2993.52	588
2994.36	614
2995.2	600
2996.04	570
2996.87	588
2997.71	586
2998.55	594
2999.39	570
