#Acq. time (s)=	10
#Accumulations=	1
#Range (cm-¹)=	100...3000
#Windows=	3
#Autofocus=	Off
#AutoExposure=	Off
#Spike filter=	Off
#Delay time (s)=	0
#Binning=	1
#Readout mode=	Signal
#DeNoise=	Off
#ICS correction=	Off
#Dark correction=	Off
#Inst. Process=	Off
#Instrument=	LabRAM HR Evol
#Detector=	Syncerity OE
#Objective=	x100_VIS
#Grating=	600 (500nm)
#ND Filter=	25%
#Laser=	633nm_Edge
#Hole=	100.021
#Range=	Visible
#Project=	Omar
#Sample=	26-06-23
#Site=	1
#Title=	Organic
#Remark=	
#Date=	26.06.2023 16:14
#Acquired=	26.06.2023 16:14:57
101.018	41046
102.302	41066
103.586	41014
104.869	41238
106.152	41252
107.435	41380
108.717	41338
109.999	41450
111.281	41554
112.563	41578
113.845	41966
115.126	41930
116.407	41670
117.688	41900
118.969	42006
120.249	42216
121.53	42288
122.81	42236
124.09	42356
125.369	42524
126.649	42450
127.928	42580
129.207	42674
130.486	42656
131.765	42880
133.043	42902
134.321	43154
135.599	42920
136.877	43294
138.155	43156
139.432	43196
140.708	43298
141.985	43656
143.261	43528
144.538	43602
145.814	43408
147.09	43756
148.366	43674
149.641	43878
150.916	43724
152.191	43876
153.466	43940
154.741	43996
156.016	44028
157.289	44082
158.563	44290
159.837	44434
161.111	44364
162.385	44790
163.657	44460
164.93	44812
166.203	44834
167.476	44736
168.747	44460
170.019	44864
171.291	44936
172.562	44804
173.834	45014
175.105	45182
176.377	45108
177.646	45114
178.917	45228
180.188	44956
181.457	45136
182.727	45462
183.996	45400
185.266	45534
186.536	45662
187.804	45636
189.073	45488
190.342	45768
191.609	45926
192.878	46364
194.145	46224
195.413	46496
196.681	46510
197.948	46716
199.215	46720
200.481	47038
201.749	47200
203.014	47050
204.281	47394
205.546	47378
206.813	47358
208.077	47490
209.343	47606
210.608	47676
211.873	48070
213.137	47866
214.402	48060
215.666	48208
216.93	48334
218.194	48376
219.458	48602
220.721	48664
221.983	48860
223.247	48828
224.509	48954
225.772	48918
227.034	49108
228.295	49336
229.558	49662
230.819	49602
232.081	49820
233.342	49824
234.602	50066
235.864	49954
237.124	50260
238.384	50352
239.645	50476
240.904	50396
242.164	50842
243.423	50694
244.683	50956
245.941	50868
247.2	51228
248.46	51164
249.717	51286
250.975	51132
252.233	51386
253.492	51378
254.749	51708
256.006	51812
257.263	51580
258.519	51466
259.777	51896
261.033	51544
262.289	51660
263.545	51966
264.8	51614
266.057	52014
267.312	52044
268.567	51936
269.822	52048
271.076	51600
272.331	51878
273.585	52256
274.839	51750
276.094	52072
277.347	52132
278.601	52616
279.854	52424
281.107	52562
282.359	52642
283.612	53056
284.864	52898
286.116	53136
287.368	53334
288.62	53500
289.871	53474
291.123	54052
292.374	53812
293.625	54228
294.875	54422
296.126	54162
297.376	54538
298.626	54468
299.876	55114
301.126	55020
302.375	54984
303.625	55454
304.874	55424
306.122	55344
307.371	55630
308.62	55792
309.866	56168
311.114	56170
312.362	56392
313.61	56124
314.857	56352
316.105	56612
317.352	56476
318.599	56618
319.844	56432
321.09	56660
322.337	57018
323.583	56988
324.828	56890
326.073	56868
327.318	57132
328.563	57034
329.808	57336
331.053	57348
332.296	57342
333.541	57572
334.785	57958
336.029	57564
337.272	57666
338.515	57862
339.759	57824
341.001	58102
342.244	58206
343.486	58676
344.728	58626
345.97	58824
347.212	58786
348.453	59064
349.695	59346
350.936	59194
352.176	59350
353.418	59502
354.659	59372
355.898	59586
357.139	59866
358.378	59584
359.618	59868
360.858	60018
362.097	60196
363.336	60374
364.574	60554
365.813	60396
367.051	60126
368.29	60582
369.527	60602
370.766	60886
372.002	60398
373.241	60922
374.477	61238
375.715	60918
376.951	60998
378.188	60630
379.424	61164
380.66	61116
381.896	61260
383.132	61206
384.367	61424
385.603	61318
386.838	61474
388.072	61528
389.307	61732
390.541	61546
391.776	61880
393.01	62072
394.243	62086
395.477	62030
396.71	62322
397.943	62324
399.177	62612
400.409	62592
401.641	62782
402.875	63200
404.106	63296
405.338	63514
406.57	63672
407.802	63970
409.032	64362
410.263	64368
411.495	64478
412.725	64496
413.955	64535
415.185	64535
416.417	64535
417.646	64535
418.875	64535
420.104	64535
421.335	64535
422.564	64535
423.792	64535
425.02	64535
426.249	64535
427.477	64535
428.706	64535
429.933	64535
431.161	64535
432.388	64535
433.615	64535
434.841	64535
436.068	64535
437.294	64535
438.522	64535
439.748	64535
440.974	64535
442.199	64535
443.425	64535
444.65	64535
445.875	64535
447.1	64535
448.324	64535
449.549	64535
450.773	64535
451.997	64535
453.221	64535
454.445	64535
455.668	64535
456.891	64535
458.114	64535
459.337	64535
460.56	64535
461.782	64535
463.005	64535
464.227	64535
465.447	64535
466.669	64535
467.89	64535
469.112	64535
470.333	64535
471.554	64535
472.774	64535
473.995	64535
475.214	64535
476.434	64535
477.654	64535
478.874	64535
480.093	64535
481.312	64535
482.53	64535
483.749	64535
484.968	64535
486.186	64535
487.405	64535
488.622	64535
489.84	64535
491.057	64535
492.275	64535
493.491	64535
494.708	64535
495.925	64535
497.141	64535
498.357	64535
499.574	64535
500.789	64535
502.005	64535
503.221	64535
504.435	64535
505.65	64535
506.866	64535
508.079	64535
509.294	64535
510.509	64535
511.722	64535
512.936	64535
514.149	64535
515.363	64535
516.577	64535
517.789	64535
519.002	64535
520.214	64535
521.427	64535
522.638	64535
523.851	64535
525.062	64535
526.274	64535
527.485	64535
528.697	64535
529.907	64535
531.118	64535
532.328	64535
533.539	64535
534.748	64535
535.959	64535
537.168	64535
538.379	64535
539.587	64535
540.796	64535
542.005	64535
543.214	64535
544.423	64535
545.631	64535
546.838	64535
548.047	64535
549.254	64535
550.461	64535
551.669	64535
552.876	64535
554.082	64535
555.29	64535
556.496	64535
557.701	64535
558.909	64535
560.114	64535
561.319	64535
562.524	64535
563.731	64535
564.935	64535
566.14	64535
567.344	64535
568.549	64535
569.753	64535
570.957	64535
572.161	64535
573.364	64535
574.568	64535
575.771	64535
576.974	64535
578.177	64535
579.379	64535
580.581	64535
581.785	64535
582.987	64535
584.188	64535
585.39	64535
586.591	64535
587.792	64535
588.993	64535
590.193	64535
591.394	64535
592.594	64535
593.796	64535
594.996	64535
596.195	64535
597.395	64535
598.594	64535
599.793	64535
600.992	64535
602.191	64535
603.39	64535
604.588	64535
605.786	64535
606.984	64535
608.181	64535
609.378	64535
610.576	64535
611.773	64535
612.97	64535
614.167	64535
615.364	64535
616.56	64535
617.757	64535
618.953	64535
620.149	64535
621.343	64535
622.539	64535
623.734	64535
624.929	64535
626.124	64535
627.319	64535
628.512	64535
629.707	64535
630.901	64535
632.095	64535
633.289	64535
634.481	64535
635.675	64535
636.868	64535
638.061	64535
639.253	64535
640.446	64535
641.638	64535
642.831	64535
644.021	64535
645.213	64535
646.405	64535
647.595	64535
648.787	64535
649.978	64535
651.168	64535
652.359	64535
653.549	64535
654.738	64535
655.929	64535
657.117	64535
658.307	64535
659.497	64535
660.685	64535
661.875	64535
663.063	64535
664.252	64535
665.439	64535
666.628	64535
667.816	64535
669.003	64535
670.191	64535
671.378	64535
672.565	64535
673.751	64535
674.939	64535
676.124	64535
677.311	64535
678.497	64535
679.682	64535
680.868	64535
682.053	64535
683.239	64535
684.424	64535
685.609	64535
686.793	64535
687.977	64535
689.162	64535
690.346	64535
691.529	64535
692.714	64535
693.897	64535
695.081	64535
696.264	64535
697.446	64535
698.63	64535
699.812	64535
700.993	64535
702.175	64535
703.358	64535
704.539	64535
705.72	64535
706.901	64535
708.083	64535
709.264	64535
710.444	64535
711.625	64535
712.806	64535
713.986	64535
715.165	64535
716.345	64535
717.524	64535
718.705	64535
719.884	64535
721.062	64535
722.241	64535
723.419	64535
724.597	64535
725.775	64535
726.954	64535
728.132	64535
729.31	64535
730.487	64535
731.664	64535
732.841	64535
734.017	64535
735.194	64535
736.37	64535
737.546	64535
738.722	64535
739.898	64535
741.074	64535
742.249	64535
743.424	64535
744.599	64535
745.774	64535
746.949	64535
748.123	64535
749.298	64535
750.472	64535
751.646	64535
752.819	64535
753.993	64535
755.166	64535
756.34	64535
757.511	64535
758.684	64535
759.857	64535
761.029	64535
762.202	64535
763.374	64535
764.546	64535
765.716	64535
766.888	64535
768.059	64535
769.23	64535
770.401	64535
771.571	64535
772.741	64535
773.912	64535
775.082	64535
776.251	64535
777.421	64535
778.59	64535
779.76	64535
780.928	64535
782.097	64535
783.266	64535
784.434	64535
785.602	64535
786.771	64535
787.938	64535
789.106	64535
790.274	64535
791.44	64535
792.608	64535
793.775	64535
794.941	64535
796.108	64535
797.273	64535
798.44	64535
799.606	64535
800.771	64535
801.937	64535
803.102	64535
804.268	64535
805.432	64535
806.597	64535
807.761	64535
808.926	64535
810.09	64535
811.254	64535
812.417	64535
813.582	64535
814.744	64535
815.908	64535
817.071	64535
818.234	64535
819.396	64535
820.558	64535
821.721	64535
822.883	64535
824.045	64535
825.206	64535
826.367	64535
827.529	64535
828.69	64535
829.85	64535
831.012	64535
832.172	64535
833.332	64535
834.493	64535
835.653	64535
836.812	64535
837.972	64535
839.131	64535
840.29	64535
841.449	64535
842.609	64535
843.767	64535
844.925	64535
846.083	64535
847.242	64535
848.399	64535
849.557	64535
850.714	64535
851.871	64535
853.029	64535
854.186	64535
855.342	64535
856.498	64535
857.654	64535
858.81	64535
859.966	64535
861.122	64535
862.278	64535
863.434	64535
864.589	64535
865.744	64535
866.898	64535
868.053	64535
869.207	64535
870.361	64535
871.515	64535
872.669	64535
873.822	64535
874.976	64535
876.129	64535
877.282	64535
878.435	64535
879.588	64535
880.74	64535
881.893	64535
883.045	64535
884.197	64535
885.349	64535
886.5	64535
887.652	64535
888.802	64535
889.953	64535
891.104	64535
892.254	64535
893.405	64535
894.555	64535
895.706	64535
896.854	64535
898.004	64535
899.154	64535
900.303	64535
901.453	64535
902.6	64535
903.749	64535
904.898	64535
906.047	64535
907.194	64535
908.342	64535
909.49	64535
910.638	64535
911.785	64535
912.932	64535
914.08	64535
915.225	64535
916.372	64535
917.519	64535
918.666	64535
919.811	64535
920.957	64535
922.102	64535
923.248	64535
924.394	64535
925.538	64535
926.684	64535
927.828	64535
928.973	64535
930.118	64535
931.261	64535
932.406	64535
933.549	64535
934.693	64535
935.836	64535
936.979	64535
938.122	64535
939.265	64535
940.407	64535
941.55	64535
942.692	64535
943.835	64535
944.976	64535
946.118	64535
947.259	64535
948.401	64535
949.542	64535
950.682	64535
951.824	64535
952.964	64535
954.105	64535
955.245	64535
956.385	64535
957.525	64535
958.664	64535
959.803	64535
960.944	64535
962.082	64535
963.221	64535
964.36	64535
965.498	64535
966.636	64535
967.774	64535
968.913	64535
970.051	64535
971.188	64535
972.325	64535
973.463	64535
974.6	64535
975.736	64535
976.873	64535
978.009	64535
979.146	64535
980.282	64535
981.418	64535
982.554	64535
983.689	64535
984.824	64535
985.959	64535
987.095	64535
988.23	64535
989.364	64535
990.499	64535
991.633	64535
992.767	64535
993.9	64535
995.034	64535
996.167	64535
997.301	64535
998.434	64535
999.567	64535
1000.7	64535
1001.83	64535
1002.96	64535
1004.1	64535
1005.23	64535
1006.36	64535
1007.49	64535
1008.62	64535
1009.76	64535
1010.89	64535
1012.02	64535
1013.15	64535
1014.28	64535
1015.41	64535
1016.54	64535
1017.67	64535
1018.8	64535
1019.93	64535
1021.06	64535
1022.19	64535
1023.32	64535
1024.44	64535
1025.57	64535
1026.7	64535
1027.83	64535
1028.96	64535
1030.09	64535
1031.21	64535
1032.34	64535
1033.47	64535
1034.6	64535
1035.72	64535
1036.85	64535
1037.98	64535
1039.1	64535
1040.23	64535
1041.35	64535
1042.48	64535
1043.61	64535
1044.73	64535
1045.86	64535
1046.98	64535
1048.11	64535
1049.23	64535
1050.36	64535
1051.48	64535
1052.61	64535
1053.73	64535
1054.85	64535
1055.98	64535
1057.1	64535
1058.22	64535
1059.35	64535
1060.47	64535
1061.59	64535
1062.72	64535
1063.84	64535
1064.96	64535
1066.08	64535
1067.2	64535
1068.33	64535
1069.45	64535
1070.57	64535
1071.69	64535
1072.81	64535
1073.93	64535
1075.05	64535
1076.17	64535
1077.29	64535
1078.41	64535
1079.53	64535
1080.65	64535
1081.77	64535
1082.89	64535
1084.01	64535
1085.13	64535
1086.25	64535
1087.37	64535
1088.48	64535
1089.6	64535
1090.72	64535
1091.84	64535
1092.96	64535
1094.07	64535
1095.19	64535
1096.31	64535
1097.43	64535
1098.54	64535
1099.66	64535
1100.78	64535
1101.89	64535
1103.01	64535
1104.12	64535
1105.24	64535
1106.35	64535
1107.47	64535
1108.59	64535
1109.7	64535
1110.81	64535
1111.93	64535
1113.04	64535
1114.16	64535
1115.27	64535
1116.39	64535
1117.5	64535
1118.61	64535
1119.73	64535
1120.84	64535
1121.95	64535
1123.06	64535
1124.18	64535
1125.29	64535
1126.4	64535
1127.51	64535
1128.63	64535
1129.74	64535
1130.85	64535
1131.96	64535
1133.07	64535
1134.18	64535
1135.29	64535
1136.4	64535
1137.51	64535
1138.62	64535
1139.73	64535
1140.84	64535
1141.95	64535
1143.06	64535
1144.17	64535
1145.28	64535
1146.39	64535
1147.5	64535
1148.61	64535
1149.72	64535
1150.82	64535
1151.93	64535
1153.04	64535
1154.15	64535
1155.26	64535
1156.36	64535
1157.47	64535
1158.58	64535
1159.68	64535
1160.79	64535
1161.9	64535
1163	64535
1164.11	64535
1165.22	64535
1166.32	64535
1167.43	64535
1168.53	64535
1169.64	64535
1170.74	64535
1171.85	64535
1172.95	64535
1174.06	64535
1175.16	64535
1176.26	64535
1177.37	64535
1178.47	64535
1179.58	64535
1180.68	64535
1181.78	64535
1182.88	64535
1183.99	64535
1185.09	64535
1186.19	64535
1187.3	64535
1188.4	64535
1189.5	64535
1190.6	64535
1191.7	64535
1192.8	64535
1193.9	64535
1195.01	64535
1196.11	64535
1197.21	64535
1198.31	64535
1199.41	64535
1200.51	64535
1201.61	64535
1202.71	64535
1203.81	64535
1204.91	64535
1206.01	64535
1207.11	64535
1208.2	64535
1209.3	64535
1210.4	64535
1211.5	64535
1212.6	64535
1213.7	64535
1214.8	64535
1215.89	64535
1216.99	64535
1218.09	64535
1219.18	64535
1220.28	64535
1221.38	64535
1222.48	64535
1223.57	64535
1224.67	64535
1225.76	64535
1226.86	64535
1227.96	64535
1229.05	64535
1230.15	64535
1231.24	64535
1232.34	64535
1233.43	64535
1234.53	64535
1235.62	64535
1236.71	64535
1237.81	64535
1238.9	64535
1240	64535
1241.09	64535
1242.18	64535
1243.28	64535
1244.37	64535
1245.46	64535
1246.56	64535
1247.65	64535
1248.74	64535
1249.83	64535
1250.93	64535
1252.02	64535
1253.11	64535
1254.2	64535
1255.29	64535
1256.38	64535
1257.47	64535
1258.56	64535
1259.65	64535
1260.74	64535
1261.84	64535
1262.92	64535
1264.01	64535
1265.1	64535
1266.19	64535
1267.28	64535
1268.37	64535
1269.46	64535
1270.55	64535
1271.64	64535
1272.73	64535
1273.82	64535
1274.9	64535
1275.99	64535
1277.08	64535
1278.17	64535
1279.26	64535
1280.34	64535
1281.43	64535
1282.52	64535
1283.6	64535
1284.69	64535
1285.78	64535
1286.86	64535
1287.95	64535
1289.03	64535
1290.12	64535
1291.21	64535
1292.29	64535
1293.38	64535
1294.46	64535
1295.55	64535
1296.63	64535
1297.71	64535
1298.8	64535
1299.88	64535
1300.97	64535
1302.05	64535
1303.13	64535
1304.22	64535
1305.3	64535
1306.38	64535
1307.34	64535
1308.43	64535
1309.52	64535
1310.61	64535
1311.7	64535
1312.78	64535
1313.87	64535
1314.96	64535
1316.05	64535
1317.13	64535
1318.22	64535
1319.3	64535
1320.39	64535
1321.48	64535
1322.56	64535
1323.65	64535
1324.73	64535
1325.82	64535
1326.9	64535
1327.99	64535
1329.07	64535
1330.16	64535
1331.24	64535
1332.33	64535
1333.41	64535
1334.5	64535
1335.58	64535
1336.66	64535
1337.75	64535
1338.83	64535
1339.91	64535
1341	64535
1342.08	64535
1343.16	64535
1344.25	64535
1345.33	64535
1346.41	64535
1347.49	64535
1348.57	64535
1349.65	64535
1350.74	64535
1351.82	64535
1352.9	64535
1353.98	64535
1355.06	64535
1356.14	64535
1357.22	64535
1358.3	64535
1359.38	64535
1360.46	64535
1361.54	64535
1362.62	64535
1363.7	64535
1364.78	64535
1365.86	64535
1366.94	64535
1368.02	64535
1369.09	64535
1370.17	64535
1371.25	64535
1372.33	64535
1373.41	64535
1374.48	64535
1375.56	64535
1376.64	64535
1377.72	64535
1378.79	64535
1379.87	64535
1380.95	64535
1382.02	64535
1383.1	64535
1384.17	64535
1385.25	64535
1386.33	64535
1387.4	64535
1388.48	64535
1389.55	64535
1390.63	64535
1391.7	64535
1392.78	64535
1393.85	64535
1394.93	64535
1396	64535
1397.07	64535
1398.15	64535
1399.22	64535
1400.3	64535
1401.37	64535
1402.44	64535
1403.52	64535
1404.59	64535
1405.66	64535
1406.73	64535
1407.81	64535
1408.88	64535
1409.95	64535
1411.02	64535
1412.09	64535
1413.17	64535
1414.24	64535
1415.31	64535
1416.38	64535
1417.45	64535
1418.52	64535
1419.59	64535
1420.66	64535
1421.73	64535
1422.8	64535
1423.87	64535
1424.94	64535
1426.01	64535
1427.08	64535
1428.15	64535
1429.22	64535
1430.29	64535
1431.35	64535
1432.42	64535
1433.49	64535
1434.56	64535
1435.63	64535
1436.7	64535
1437.76	64535
1438.83	64535
1439.9	64535
1440.96	64535
1442.03	64535
1443.1	64535
1444.17	64535
1445.23	64535
1446.3	64535
1447.36	64535
1448.43	64535
1449.49	64535
1450.56	64535
1451.63	64535
1452.69	64535
1453.76	64535
1454.82	64535
1455.89	64535
1456.95	64535
1458.01	64535
1459.08	64535
1460.14	64535
1461.21	64535
1462.27	64535
1463.34	64535
1464.4	64535
1465.46	64535
1466.52	64535
1467.59	64535
1468.65	64535
1469.71	64535
1470.77	64535
1471.84	64535
1472.9	64535
1473.96	64535
1475.02	64535
1476.08	64535
1477.15	64535
1478.21	64535
1479.27	64535
1480.33	64535
1481.39	64535
1482.45	64535
1483.51	64535
1484.57	64535
1485.63	64535
1486.69	64535
1487.75	64535
1488.81	64535
1489.87	64535
1490.93	64535
1491.99	64535
1493.05	64535
1494.1	64535
1495.16	64535
1496.22	64535
1497.28	64535
1498.34	64535
1499.4	64535
1500.45	64535
1501.51	64535
1502.57	64535
1503.63	64535
1504.68	64535
1505.74	64535
1506.8	64535
1507.85	64535
1508.91	64535
1509.97	64535
1511.02	64535
1512.08	64535
1513.13	64535
1514.19	64535
1515.24	64535
1516.3	64535
1517.35	64535
1518.41	64535
1519.46	64535
1520.52	64535
1521.57	64535
1522.63	64535
1523.68	64535
1524.73	64535
1525.79	64535
1526.84	64535
1527.9	64535
1528.95	64535
1530	64535
1531.06	64535
1532.11	64535
1533.16	64535
1534.21	64535
1535.26	64535
1536.32	64535
1537.37	64535
1538.42	64535
1539.47	64535
1540.52	64535
1541.57	64535
1542.63	64535
1543.68	64535
1544.73	64535
1545.78	64535
1546.83	64535
1547.88	64535
1548.93	64535
1549.98	64535
1551.03	64535
1552.08	64535
1553.13	64535
1554.18	64535
1555.23	64535
1556.27	64535
1557.32	64535
1558.37	64535
1559.42	64535
1560.47	64535
1561.52	64535
1562.56	64535
1563.61	64535
1564.66	64535
1565.71	64535
1566.75	64535
1567.8	64535
1568.85	64535
1569.9	64535
1570.94	64535
1571.99	64535
1573.03	64535
1574.08	64535
1575.13	64535
1576.17	64535
1577.22	64535
1578.26	64535
1579.31	64535
1580.35	64535
1581.4	64535
1582.44	64535
1583.49	64535
1584.53	64535
1585.58	64535
1586.62	64535
1587.66	64535
1588.71	64535
1589.75	64535
1590.8	64535
1591.84	64535
1592.88	64535
1593.93	64535
1594.97	64535
1596.01	64535
1597.05	64535
1598.1	64535
1599.14	64535
1600.18	64535
1601.22	64535
1602.26	64535
1603.31	64535
1604.35	64535
1605.39	64535
1606.43	64535
1607.47	64535
1608.51	64535
1609.55	64535
1610.59	64535
1611.63	64535
1612.67	64535
1613.71	64535
1614.75	64535
1615.79	64535
1616.83	64535
1617.87	64535
1618.91	64535
1619.95	64535
1620.99	64535
1622.02	64535
1623.06	64535
1624.1	64535
1625.14	64535
1626.18	64535
1627.21	64535
1628.25	64535
1629.29	64535
1630.33	64535
1631.36	64535
1632.4	64535
1633.44	64535
1634.48	64535
1635.51	64535
1636.55	64535
1637.58	64535
1638.62	64535
1639.66	64535
1640.69	64535
1641.73	64535
1642.76	64535
1643.8	64535
1644.83	64535
1645.87	64535
1646.9	64535
1647.94	64535
1648.97	64535
1650	64535
1651.04	64535
1652.07	64535
1653.11	64535
1654.14	64535
1655.17	64535
1656.21	64535
1657.24	64535
1658.27	64535
1659.31	64535
1660.34	64535
1661.37	64535
1662.4	64535
1663.43	64535
1664.47	64535
1665.5	64535
1666.53	64535
1667.56	64535
1668.59	64535
1669.62	64535
1670.66	64535
1671.69	64535
1672.72	64535
1673.75	64535
1674.78	64535
1675.81	64535
1676.84	64535
1677.87	64535
1678.9	64535
1679.93	64535
1680.96	64535
1681.98	64535
1683.01	64535
1684.04	64535
1685.07	64535
1686.1	64535
1687.13	64535
1688.16	64535
1689.19	64535
1690.21	64535
1691.24	64535
1692.27	64535
1693.3	64535
1694.32	64535
1695.35	64535
1696.38	64535
1697.4	64535
1698.43	64535
1699.46	64535
1700.48	64535
1701.51	64535
1702.54	64535
1703.56	64535
1704.59	64535
1705.61	64535
1706.64	64535
1707.66	64535
1708.69	64535
1709.71	64535
1710.74	64535
1711.76	64535
1712.79	64535
1713.81	64535
1714.83	64535
1715.86	64535
1716.88	64535
1717.91	64535
1718.93	64535
1719.95	64535
1720.98	64535
1722	64535
1723.02	64535
1724.04	64535
1725.07	64535
1726.09	64535
1727.11	64535
1728.13	64535
1729.15	64535
1730.18	64535
1731.2	64535
1732.22	64535
1733.24	64535
1734.26	64535
1735.28	64535
1736.3	64535
1737.32	64535
1738.34	64535
1739.36	64535
1740.38	64535
1741.4	64535
1742.42	64535
1743.44	64535
1744.46	64535
1745.48	64535
1746.5	64535
1747.52	64535
1748.54	64535
1749.56	64535
1750.58	64535
1751.6	64535
1752.61	64535
1753.63	64535
1754.65	64535
1755.67	64535
1756.68	64535
1757.7	64535
1758.72	64535
1759.74	64535
1760.75	64535
1761.77	64535
1762.79	64535
1763.8	64535
1764.82	64535
1765.84	64535
1766.85	64535
1767.87	64535
1768.88	64535
1769.9	64535
1770.91	64535
1771.93	64535
1772.94	64535
1773.96	64535
1774.97	64535
1775.99	64535
1777	64535
1778.02	64535
1779.03	64535
1780.04	64535
1781.06	64535
1782.07	64535
1783.09	64535
1784.1	64535
1785.11	64535
1786.13	64535
1787.14	64535
1788.15	64535
1789.16	64535
1790.18	64535
1791.19	64535
1792.2	64535
1793.21	64535
1794.22	64535
1795.23	64535
1796.25	64535
1797.26	64535
1798.27	64535
1799.28	64535
1800.29	64535
1801.3	64535
1802.31	64535
1803.32	64535
1804.33	64535
1805.34	64535
1806.35	64535
1807.36	64535
1808.37	64535
1809.38	64535
1810.39	64535
1811.4	64535
1812.41	64535
1813.42	64535
1814.43	64535
1815.43	64535
1816.44	64535
1817.45	64535
1818.46	64535
1819.47	64535
1820.47	64535
1821.48	64535
1822.49	64535
1823.49	64535
1824.5	64535
1825.51	64535
1826.52	64535
1827.52	64535
1828.53	64535
1829.54	64535
1830.54	64535
1831.55	64535
1832.55	64535
1833.56	64535
1834.56	64535
1835.57	64535
1836.57	64535
1837.58	64535
1838.58	64535
1839.59	64535
1840.59	64535
1841.6	64535
1842.6	64535
1843.61	64535
1844.61	64535
1845.61	64535
1846.62	64535
1847.62	64535
1848.62	64535
1849.63	64535
1850.63	64535
1851.63	64535
1852.64	64535
1853.64	64535
1854.64	64535
1855.64	64535
1856.64	64535
1857.65	64535
1858.65	64535
1859.65	64535
1860.65	64535
1861.65	64535
1862.65	64535
1863.65	64535
1864.66	64535
1865.66	64535
1866.66	64535
1867.66	64535
1868.66	64535
1869.66	64535
1870.66	64535
1871.66	64535
1872.66	64535
1873.66	64535
1874.66	64535
1875.65	64535
1876.65	64535
1877.65	64535
1878.65	64535
1879.65	64535
1880.65	64535
1881.65	64535
1882.64	64535
1883.64	64535
1884.64	64535
1885.64	64535
1886.63	64535
1887.63	64535
1888.63	64535
1889.63	64535
1890.62	64535
1891.62	64535
1892.62	64535
1893.61	64535
1894.61	64535
1895.6	64535
1896.6	64535
1897.6	64535
1898.59	64535
1899.59	64535
1900.58	64535
1901.58	64535
1902.57	64535
1903.57	64535
1904.56	64535
1905.56	64535
1906.55	64535
1907.54	64535
1908.54	64535
1909.53	64535
1910.53	64535
1911.52	64535
1912.51	64535
1913.51	64535
1914.5	64535
1915.49	64535
1916.49	64535
1917.48	64535
1918.47	64535
1919.46	64535
1920.46	64535
1921.45	64535
1922.44	64535
1923.43	64535
1924.42	64535
1925.41	64535
1926.41	64535
1927.4	64535
1928.39	64535
1929.38	64535
1930.37	64535
1931.36	64535
1932.35	64535
1933.34	64535
1934.33	64535
1935.32	64535
1936.31	64535
1937.3	64535
1938.29	64535
1939.28	64535
1940.27	64535
1941.26	64535
1942.24	64535
1943.23	64535
1944.22	64535
1945.21	64535
1946.2	64535
1947.19	64535
1948.17	64535
1949.16	64535
1950.15	64535
1951.14	64535
1952.13	64535
1953.11	64535
1954.1	64535
1955.09	64535
1956.07	64535
1957.06	64535
1958.05	64535
1959.03	64535
1960.02	64535
1961	64535
1961.99	64535
1962.98	64535
1963.96	64535
1964.95	64535
1965.93	64535
1966.92	64535
1967.9	64535
1968.89	64535
1969.87	64535
1970.85	64535
1971.84	64535
1972.82	64535
1973.81	64535
1974.79	64535
1975.78	64535
1976.76	64535
1977.74	64535
1978.73	64535
1979.71	64535
1980.69	64535
1981.67	64535
1982.66	64535
1983.64	64535
1984.62	64535
1985.6	64535
1986.59	64535
1987.57	64535
1988.55	64535
1989.53	64535
1990.51	64535
1991.49	64535
1992.47	64535
1993.45	64535
1994.44	64535
1995.42	64535
1996.4	64535
1997.38	64535
1998.36	64535
1999.34	64535
2000.32	64535
2001.3	64535
2002.28	64535
2003.26	64535
2004.24	64535
2005.22	64535
2006.19	64535
2007.17	64535
2008.15	64535
2009.13	64535
2010.11	64535
2011.09	64535
2012.06	64535
2013.04	64535
2014.02	64535
2015	64535
2015.98	64535
2016.95	64535
2017.93	64535
2018.91	64535
2019.88	64535
2020.86	64535
2021.84	64535
2022.81	64535
2023.79	64535
2024.77	64535
2025.74	64535
2026.72	64535
2027.69	64535
2028.67	64535
2029.65	64535
2030.62	64535
2031.6	64535
2032.57	64535
2033.55	64535
2034.52	64535
2035.5	64535
2036.47	64535
2037.44	64535
2038.42	64535
2039.39	64535
2040.36	64535
2041.34	64535
2042.31	64535
2043.29	64535
2044.26	64535
2045.23	64535
2046.2	64535
2047.18	64535
2048.15	64535
2049.12	64535
2050.09	64535
2051.07	64535
2052.04	64535
2053.01	64535
2053.98	64535
2054.95	64535
2055.93	64535
2056.9	64535
2057.87	64535
2058.84	64535
2059.81	64535
2060.78	64535
2061.75	64535
2062.72	64535
2063.69	64535
2064.66	64535
2065.63	64535
2066.6	64535
2067.57	64535
2068.54	64535
2069.51	64535
2070.48	64535
2071.45	64535
2072.42	64535
2073.38	64535
2074.35	64535
2075.32	64535
2076.29	64535
2077.26	64535
2078.23	64535
2079.19	64535
2080.16	64535
2081.13	64535
2082.1	64535
2083.06	64535
2084.03	64535
2085	64535
2085.96	64535
2086.93	64535
2087.9	64535
2088.86	64535
2089.83	64535
2090.8	64535
2091.76	64535
2092.73	64535
2093.69	64535
2094.66	64535
2095.62	64535
2096.59	64535
2097.55	64535
2098.52	64535
2099.48	64535
2100.45	64535
2101.41	64535
2102.38	64535
2103.34	64535
2104.31	64535
2105.27	64535
2106.23	64535
2107.2	64535
2108.16	64535
2109.12	64535
2110.09	64535
2111.05	64535
2112.01	64535
2112.98	64535
2113.94	64535
2114.9	64535
2115.86	64535
2116.82	64535
2117.79	64535
2118.75	64535
2119.71	64535
2120.67	64535
2121.63	64535
2122.59	64535
2123.55	64535
2124.52	64535
2125.48	64535
2126.44	64535
2127.4	64535
2128.36	64535
2129.32	64535
2130.28	64535
2131.24	64535
2132.2	64535
2133.16	64535
2134.12	64535
2135.08	64535
2136.04	64535
2136.99	64535
2137.95	64535
2138.91	64535
2139.87	64535
2140.83	64535
2141.79	64535
2142.75	64535
2143.7	64535
2144.66	64535
2145.62	64535
2146.58	64535
2147.53	64535
2148.49	64535
2149.45	64535
2150.41	64535
2151.36	64535
2152.32	64535
2153.28	64535
2154.23	64535
2155.19	64535
2156.14	64535
2157.1	64535
2158.06	64535
2159.01	64535
2159.97	64535
2160.92	64535
2161.88	64535
2162.83	64535
2163.79	64535
2164.74	64535
2165.7	64535
2166.65	64535
2167.61	64535
2168.56	64535
2169.51	64535
2170.47	64535
2171.42	64535
2172.38	64535
2173.33	64535
2174.28	64535
2175.24	64535
2176.19	64535
2177.14	64535
2178.09	64535
2179.05	64535
2180	64535
2180.95	64535
2181.9	64535
2182.86	64535
2183.81	64535
2184.76	64535
2185.71	64535
2186.66	64535
2187.61	64535
2188.57	64535
2189.52	64535
2190.47	64535
2191.42	64535
2192.37	64535
2193.32	64535
2194.27	64535
2195.22	64535
2196.17	64535
2197.12	64535
2198.07	64535
2199.02	64535
2199.97	64535
2200.92	64535
2201.87	64535
2202.82	64535
2203.76	64535
2204.71	64535
2205.66	64535
2206.61	64535
2207.56	64535
2208.51	64535
2209.45	64535
2210.4	64535
2211.35	64535
2212.3	64535
2213.25	64535
2214.19	64535
2215.14	64535
2216.09	64535
2217.03	64535
2217.98	64535
2218.93	64535
2219.87	64535
2220.82	64535
2221.77	64535
2222.71	64535
2223.66	64535
2224.6	64535
2225.55	64535
2226.49	64535
2227.44	64535
2228.38	64535
2229.33	64535
2230.27	64535
2231.22	64535
2232.16	64535
2233.11	64535
2234.05	64535
2235	64535
2235.94	64535
2236.88	64535
2237.83	64525.5
2238.77	64526.1
2239.72	64535
2240.66	64535
2241.6	64535
2242.07	64535
2243.02	64454
2243.97	64535
2244.92	64535
2245.87	64535
2246.81	64408
2247.76	64535
2248.71	64535
2249.65	64535
2250.6	64480
2251.55	64535
2252.49	64508
2253.44	64516
2254.39	64254
2255.33	64222
2256.28	64522
2257.22	64014
2258.17	64294
2259.12	63868
2260.06	64098
2261.01	64220
2261.95	63956
2262.9	63868
2263.84	63776
2264.78	64176
2265.73	63790
2266.67	63992
2267.62	64120
2268.56	63754
2269.51	63566
2270.45	63716
2271.39	63294
2272.34	63576
2273.28	63340
2274.22	63508
2275.17	63502
2276.11	63270
2277.05	63492
2277.99	63282
2278.94	62920
2279.88	62926
2280.82	62842
2281.76	62930
2282.71	63052
2283.65	62686
2284.59	63026
2285.53	63112
2286.47	62814
2287.41	62722
2288.35	62726
2289.3	62340
2290.24	62640
2291.18	62746
2292.12	62468
2293.06	62470
2294	62560
2294.94	62502
2295.88	62180
2296.82	62316
2297.76	62100
2298.7	61792
2299.64	62082
2300.58	61750
2301.52	61788
2302.46	61532
2303.39	61470
2304.33	61524
2305.27	61662
2306.21	61374
2307.15	61514
2308.09	61714
2309.02	61538
2309.96	61436
2310.9	61596
2311.84	61496
2312.77	61514
2313.71	61382
2314.65	61080
2315.59	61014
2316.52	61254
2317.46	61350
2318.4	60914
2319.33	60880
2320.27	60882
2321.21	61000
2322.14	60766
2323.08	60664
2324.01	61032
2324.95	60630
2325.89	60432
2326.82	60664
2327.76	60482
2328.69	60290
2329.63	60824
2330.56	60458
2331.5	60296
2332.43	60170
2333.36	60236
2334.3	60446
2335.23	60406
2336.17	60180
2337.1	60278
2338.03	60028
2338.97	60078
2339.9	59942
2340.83	60008
2341.77	59920
2342.7	59480
2343.63	59542
2344.57	59848
2345.5	59948
2346.43	59608
2347.36	59542
2348.3	59636
2349.23	59464
2350.16	59484
2351.09	59442
2352.02	59226
2352.95	59710
2353.89	59664
2354.82	59090
2355.75	59198
2356.68	59394
2357.61	59610
2358.54	59156
2359.47	59412
2360.4	59470
2361.33	59266
2362.26	58902
2363.19	59098
2364.12	58692
2365.05	59004
2365.98	58920
2366.91	58482
2367.84	58570
2368.77	58758
2369.7	58646
2370.63	58662
2371.56	58322
2372.48	58300
2373.41	58388
2374.34	58156
2375.27	58424
2376.2	58214
2377.12	58228
2378.05	58424
2378.98	57970
2379.91	58008
2380.84	57916
2381.76	57934
2382.69	57818
2383.62	57734
2384.54	57630
2385.47	57608
2386.4	57534
2387.32	57492
2388.25	57612
2389.18	57560
2390.1	57570
2391.03	57436
2391.95	57690
2392.88	57332
2393.8	57240
2394.73	57012
2395.65	56972
2396.58	57320
2397.5	57054
2398.43	57034
2399.35	57108
2400.28	56858
2401.2	57022
2402.13	56682
2403.05	56678
2403.97	56736
2404.9	56454
2405.82	56616
2406.75	56428
2407.67	56538
2408.59	56196
2409.51	56442
2410.44	56342
2411.36	56016
2412.28	55870
2413.21	55774
2414.13	55684
2415.05	56162
2415.97	55932
2416.9	55748
2417.82	55718
2418.74	55490
2419.66	55806
2420.58	55638
2421.5	55520
2422.42	55290
2423.35	55580
2424.27	55578
2425.19	55658
2426.11	55520
2427.03	55098
2427.95	55314
2428.87	55070
2429.79	55436
2430.71	55044
2431.63	55056
2432.55	54762
2433.47	54716
2434.39	54940
2435.31	55058
2436.23	54990
2437.14	55046
2438.06	54632
2438.98	54852
2439.9	54800
2440.82	54688
2441.74	54406
2442.66	54482
2443.57	54518
2444.49	54500
2445.41	54020
2446.33	54288
2447.24	54230
2448.16	54008
2449.08	54256
2450	54060
2450.91	54182
2451.83	53860
2452.75	53796
2453.66	53638
2454.58	53950
2455.5	53808
2456.41	53770
2457.33	53832
2458.24	53448
2459.16	53608
2460.08	53588
2460.99	53466
2461.91	53240
2462.82	53260
2463.74	53250
2464.65	53404
2465.57	53508
2466.48	53062
2467.4	53020
2468.31	53026
2469.22	53366
2470.14	53048
2471.05	53020
2471.97	53042
2472.88	52692
2473.79	52594
2474.71	52988
2475.62	52556
2476.53	52746
2477.45	52390
2478.36	52496
2479.27	52566
2480.19	52274
2481.1	51968
2482.01	52420
2482.92	52202
2483.83	52412
2484.75	52314
2485.66	52300
2486.57	52032
2487.48	51910
2488.39	52236
2489.3	52026
2490.22	51496
2491.13	51860
2492.04	51520
2492.95	51512
2493.86	51726
2494.77	51448
2495.68	51486
2496.59	51210
2497.5	51338
2498.41	51290
2499.32	51338
2500.23	50982
2501.14	51178
2502.05	50980
2502.96	51006
2503.87	50838
2504.78	50894
2505.68	50606
2506.59	50596
2507.5	51014
2508.41	50868
2509.32	50750
2510.23	50594
2511.14	50618
2512.04	50570
2512.95	50272
2513.86	50506
2514.77	50506
2515.67	50624
2516.58	50116
2517.49	50022
2518.39	50210
2519.3	50016
2520.21	50052
2521.11	49968
2522.02	49918
2522.93	49770
2523.83	49482
2524.74	49522
2525.65	49672
2526.55	49222
2527.46	49346
2528.36	49524
2529.27	49204
2530.17	49164
2531.08	49248
2531.98	48962
2532.89	49016
2533.79	48994
2534.7	49242
2535.6	49206
2536.51	49140
2537.41	49064
2538.32	48476
2539.22	48640
2540.12	48714
2541.03	48786
2541.93	48584
2542.83	48606
2543.74	48468
2544.64	48332
2545.54	48554
2546.45	48432
2547.35	47850
2548.25	48106
2549.15	48040
2550.06	48126
2550.96	48090
2551.86	47790
2552.76	47982
2553.66	47972
2554.56	47742
2555.47	47930
2556.37	47720
2557.27	47634
2558.17	47500
2559.07	47540
2559.97	47552
2560.87	47426
2561.77	47304
2562.67	47310
2563.58	47162
2564.47	47558
2565.38	47292
2566.27	47250
2567.18	46868
2568.07	46834
2568.97	47014
2569.87	46894
2570.77	46588
2571.67	46650
2572.57	46746
2573.47	46678
2574.37	46686
2575.27	46562
2576.17	46670
2577.06	46478
2577.96	46134
2578.86	46352
2579.76	46466
2580.66	46204
2581.55	45914
2582.45	46202
2583.35	45900
2584.25	46190
2585.14	45830
2586.04	45938
2586.94	45882
2587.83	45762
2588.73	45718
2589.63	45694
2590.52	45388
2591.42	45522
2592.32	45594
2593.21	45384
2594.11	45460
2595	45070
2595.9	45284
2596.8	45254
2597.69	45184
2598.59	45044
2599.48	44996
2600.38	44904
2601.27	44806
2602.17	44926
2603.06	44832
2603.95	44486
2604.85	44770
2605.74	44752
2606.64	44662
2607.53	44524
2608.42	44426
2609.32	44392
2610.21	44480
2611.1	44466
2612	44242
2612.89	44370
2613.78	44114
2614.68	44106
2615.57	44046
2616.46	43990
2617.36	43860
2618.25	43952
2619.14	43866
2620.03	43912
2620.92	43874
2621.82	43844
2622.71	43504
2623.6	43480
2624.49	43380
2625.38	43442
2626.27	43454
2627.16	43018
2628.05	43494
2628.95	43306
2629.84	43232
2630.73	42898
2631.62	43184
2632.51	42972
2633.4	43022
2634.29	43016
2635.18	42808
2636.07	42684
2636.96	42566
2637.85	42536
2638.74	42716
2639.62	42594
2640.51	42556
2641.4	42502
2642.29	42322
2643.18	42132
2644.07	42284
2644.96	42094
2645.85	41984
2646.73	41926
2647.62	41834
2648.51	41812
2649.4	41740
2650.28	41842
2651.17	41758
2652.06	41732
2652.95	41764
2653.83	41520
2654.72	41812
2655.61	41712
2656.5	41520
2657.38	41244
2658.27	41518
2659.15	41526
2660.04	41442
2660.93	41374
2661.81	41270
2662.7	41116
2663.58	41266
2664.47	41216
2665.35	40974
2666.24	40864
2667.13	40740
2668.01	40916
2668.9	40788
2669.78	40960
2670.66	40978
2671.55	40918
2672.43	40952
2673.32	40910
2674.2	40570
2675.09	40572
2675.97	40806
2676.85	40582
2677.74	40456
2678.62	40396
2679.5	40628
2680.39	40464
2681.27	40088
2682.15	40360
2683.04	40126
2683.92	40388
2684.8	40032
2685.68	40186
2686.57	40138
2687.45	40118
2688.33	40120
2689.21	40072
2690.09	40018
2690.98	39628
2691.86	39572
2692.74	39552
2693.62	39684
2694.5	39618
2695.38	39894
2696.26	39596
2697.15	39468
2698.03	39558
2698.91	39262
2699.79	39068
2700.67	39048
2701.55	39046
2702.43	39150
2703.31	38944
2704.19	39086
2705.07	38942
2705.95	38734
2706.83	38896
2707.7	38552
2708.58	38608
2709.46	39112
2710.34	38602
2711.22	38514
2712.1	38580
2712.98	38410
2713.86	38300
2714.73	38068
2715.61	38284
2716.49	38166
2717.37	38348
2718.25	38354
2719.12	38382
2720	37798
2720.88	37956
2721.76	37848
2722.63	37830
2723.51	37898
2724.39	37790
2725.26	37700
2726.14	37692
2727.02	37680
2727.89	37624
2728.77	37568
2729.64	37532
2730.52	37030
2731.4	37384
2732.27	37182
2733.15	37268
2734.02	37320
2734.9	37138
2735.77	37274
2736.65	36946
2737.52	36950
2738.4	36946
2739.27	36714
2740.15	36814
2741.02	36792
2741.9	36642
2742.77	36768
2743.64	36550
2744.52	36556
2745.39	36610
2746.27	36506
2747.14	36412
2748.01	36504
2748.89	36200
2749.76	36520
2750.63	36372
2751.51	36356
2752.38	36200
2753.25	36342
2754.12	36242
2755	36082
2755.87	35884
2756.74	35916
2757.61	35762
2758.48	35710
2759.35	35668
2760.23	35892
2761.1	35674
2761.97	35868
2762.84	35802
2763.71	35686
2764.58	35528
2765.45	35462
2766.32	35640
2767.19	35400
2768.07	35314
2768.94	35390
2769.81	35380
2770.68	35158
2771.55	35298
2772.42	35002
2773.29	35132
2774.16	35308
2775.02	35048
2775.89	35002
2776.76	35058
2777.63	34848
2778.5	34784
2779.37	34856
2780.24	34674
2781.11	34690
2781.98	34500
2782.84	34644
2783.71	34660
2784.58	34454
2785.45	34496
2786.32	34272
2787.18	34386
2788.05	34270
2788.92	34064
2789.79	34270
2790.65	34338
2791.52	33962
2792.39	34104
2793.25	34098
2794.12	34126
2794.99	33802
2795.85	33934
2796.72	34130
2797.59	34078
2798.45	33820
2799.32	33880
2800.18	33912
2801.05	33560
2801.92	33796
2802.78	33624
2803.65	33583
2804.51	33542
2805.38	33552
2806.24	33350
2807.11	33440
2807.97	33256
2808.84	33432
2809.7	33400
2810.57	33334
2811.43	33068
2812.29	33022
2813.16	33126
2814.02	33048
2814.88	33104
2815.75	32800
2816.61	33104
2817.47	32834
2818.34	32930
2819.2	32690
2820.06	32506
2820.93	32660
2821.79	32594
2822.65	32596
2823.51	32388
2824.38	32662
2825.24	32412
2826.1	32204
2826.96	32360
2827.82	32188
2828.69	32260
2829.55	32118
2830.41	32108
2831.27	32070
2832.13	31940
2832.99	32058
2833.85	31762
2834.71	31866
2835.57	31746
2836.44	31904
2837.3	31724
2838.16	31888
2839.02	31706
2839.88	31478
2840.74	31712
2841.6	31274
2842.46	31438
2843.32	31336
2844.18	31258
2845.03	31176
2845.89	31358
2846.75	31244
2847.61	31398
2848.47	31090
2849.33	31170
2850.19	31134
2851.05	30806
2851.9	30900
2852.76	30838
2853.62	30758
2854.48	30660
2855.34	30830
2856.19	30596
2857.05	30522
2857.91	30330
2858.77	30622
2859.62	30332
2860.48	30514
2861.34	30510
2862.19	30290
2863.05	30274
2863.91	30218
2864.76	30086
2865.62	30134
2866.48	30222
2867.33	30062
2868.19	29846
2869.04	30012
2869.9	29992
2870.76	29866
2871.61	29580
2872.47	29898
2873.32	29798
2874.18	29870
2875.03	29596
2875.89	29638
2876.74	29566
2877.6	29736
2878.45	29620
2879.31	29654
2880.16	29420
2881.01	29394
2881.87	29160
2882.72	29384
2883.58	29234
2884.43	29448
2885.28	29304
2886.14	29328
2886.99	28952
2887.84	29180
2888.7	29062
2889.55	29170
2890.4	29078
2891.25	28792
2892.11	29124
2892.96	29084
2893.81	29056
2894.66	28618
2895.52	28718
2896.37	28814
2897.22	28760
2898.07	28498
2898.92	28722
2899.77	28600
2900.62	28636
2901.48	28576
2902.33	28622
2903.18	28594
2904.03	28394
2904.88	28512
2905.73	28306
2906.58	28458
2907.43	28398
2908.28	28404
2909.13	28388
2909.98	28494
2910.83	28538
2911.68	28154
2912.53	28212
2913.38	28324
2914.23	28206
2915.08	28058
2915.93	28062
2916.78	28174
2917.63	28104
2918.47	27900
2919.32	27770
2920.17	27968
2921.02	27988
2921.87	27848
2922.72	27742
2923.56	27636
2924.41	27922
2925.26	27870
2926.11	27698
2926.95	27664
2927.8	27648
2928.65	27780
2929.5	27556
2930.34	27522
2931.19	27296
2932.04	27552
2932.88	27604
2933.73	27340
2934.58	27514
2935.42	27304
2936.27	27392
2937.11	27336
2937.96	27358
2938.81	27388
2939.65	27130
2940.5	27136
2941.34	27216
2942.19	27254
2943.03	27226
2943.88	27036
2944.72	27120
2945.57	26876
2946.41	27028
2947.26	26902
2948.1	27034
2948.95	26898
2949.79	26756
2950.64	26894
2951.48	26904
2952.32	26586
2953.17	26732
2954.01	26658
2954.85	26734
2955.7	26628
2956.54	26578
2957.38	26390
2958.23	26396
2959.07	26554
2959.91	26314
2960.75	26482
2961.6	26528
2962.44	26258
2963.28	26512
2964.12	26302
2964.97	26054
2965.81	26198
2966.65	26150
2967.49	26102
2968.33	25930
2969.17	26248
2970.02	26046
2970.86	26160
2971.7	25928
2972.54	25802
2973.38	25828
2974.22	25588
2975.06	25686
2975.9	25978
2976.74	25902
2977.58	25876
2978.42	25776
2979.26	25594
2980.1	25422
2980.94	25408
2981.78	25352
2982.62	25274
2983.46	25354
2984.3	25182
2985.14	25486
2985.98	25252
2986.82	25262
2987.66	25020
2988.49	25254
2989.33	25224
2990.17	25128
2991.01	25104
2991.85	24952
2992.69	25072
2993.52	24972
2994.36	25156
2995.2	24822
2996.04	24842
2996.87	24684
2997.71	24694
2998.55	24664
2999.39	24680
