#Acq. time (s)=	25
#Accumulations=	3
#Range (cm-¹)=	100...4000
#Windows=	3
#Autofocus=	Off
#AutoExposure=	Off
#Spike filter=	Multiple accum.
#Delay time (s)=	0
#Binning=	1
#Readout mode=	Signal
#DeNoise=	Off
#ICS correction=	Off
#Dark correction=	Off
#Inst. Process=	Off
#Instrument=	LabRAM HR Evol
#Detector=	Syncerity OE
#Objective=	x100_VIS
#Grating=	600 (500nm)
#ND Filter=	1%
#Laser=	532nm_Edge
#Hole=	150.001
#Range=	Visible
#Project=	Omar
#Sample=	
#Site=	02-05-23
#Title=	roy_mg_r2
#Remark=	
#Date=	02.05.2023 17:20
#Acquired=	02.05.2023 17:20:24
101.414	250
103.248	244.858
105.083	250.716
106.916	247.574
108.751	243.432
110.583	260.29
112.417	254.149
114.249	259.007
116.08	263.865
117.913	263.723
119.743	261.581
121.575	253.439
123.405	242.297
125.234	249.155
127.065	263.013
128.894	256.871
130.724	244.729
132.552	254.588
134.38	258.446
136.209	250.304
138.036	262.162
139.862	261.02
141.691	276.878
143.516	256.736
145.342	260.594
147.167	281.452
148.994	267.31
150.818	266.168
152.642	267.027
154.468	273.885
156.291	268.743
158.114	270.601
159.936	276.459
161.761	265.317
163.583	272.175
165.404	277.033
167.225	273.891
169.048	275.749
170.868	272.608
172.689	289.466
174.508	270.324
176.328	276.182
178.149	281.04
179.967	269.898
181.786	280.756
183.603	274.614
185.421	278.472
187.24	281.33
189.057	284.188
190.874	280.047
192.69	282.905
194.506	285.763
196.321	296.621
198.136	278.479
199.953	259.337
201.767	284.195
203.581	274.053
205.395	289.911
207.208	278.769
209.021	281.627
210.834	271.486
212.646	294.344
214.458	285.202
216.27	300.06
218.081	274.918
219.892	280.776
221.702	274.634
223.514	278.492
225.324	280.35
227.133	303.208
228.943	290.066
230.751	277.925
232.56	286.783
234.368	284.641
236.175	281.499
237.983	288.357
239.79	279.215
241.594	298.073
243.4	271.931
245.206	284.789
247.012	280.647
248.817	294.505
250.622	288.364
252.426	289.222
254.23	294.08
256.034	288.938
257.838	286.796
259.641	293.654
261.444	280.512
263.246	280.37
265.048	283.228
266.848	300.086
268.649	278.944
270.45	292.803
272.251	315.661
274.051	298.519
275.851	300.377
277.65	276.235
279.447	302.093
281.246	286.951
283.045	287.809
284.843	314.667
286.641	299.525
288.436	289.383
290.233	282.242
292.03	316.1
293.827	294.958
295.623	283.816
297.416	291.674
299.212	297.532
301.007	299.39
302.802	290.248
304.594	292.106
306.388	288.964
308.182	296.823
309.973	294.681
311.766	317.539
313.558	289.397
315.351	296.255
317.14	309.113
318.932	301.971
320.723	306.829
322.512	304.687
324.303	299.545
326.093	307.403
327.88	302.262
329.67	296.12
331.459	294.978
333.246	307.836
335.034	321.694
336.822	305.552
338.608	303.41
340.395	316.268
342.18	294.126
343.967	301.984
345.754	297.842
347.538	315.701
349.323	297.559
351.106	314.417
352.891	298.275
354.674	311.133
356.458	312.991
358.24	304.849
360.024	307.707
361.805	307.565
363.588	313.423
365.37	308.281
367.151	308.14
368.933	308.998
370.712	307.856
372.493	308.714
374.272	319.572
376.05	296.43
377.831	300.288
379.608	303.146
381.388	307.004
383.165	321.862
384.944	315.72
386.72	314.579
388.498	309.437
390.274	322.295
392.049	319.153
393.826	321.011
395.601	318.869
397.377	307.727
399.151	306.585
400.925	315.443
402.7	331.301
404.473	317.159
406.246	317.018
408.02	307.876
409.792	300.734
411.566	311.592
413.337	318.45
415.108	306.308
416.881	313.166
418.651	312.024
420.421	315.882
422.19	309.74
423.961	310.599
425.73	301.457
427.499	304.315
429.269	312.173
431.037	311.031
432.804	319.889
434.572	319.747
436.34	312.605
438.107	304.463
439.873	326.321
441.639	314.179
443.404	312.038
445.171	305.896
446.936	320.754
448.701	320.612
450.465	312.47
452.228	328.328
453.994	321.186
455.757	319.044
457.52	321.902
459.282	315.76
461.044	327.618
462.806	320.477
464.569	339.335
466.33	318.193
468.091	334.051
469.852	332.909
471.612	336.767
473.371	325.625
475.131	330.483
476.89	320.341
478.648	320.199
480.407	318.057
482.165	313.916
483.924	322.774
485.682	323.632
487.439	334.49
489.195	334.348
490.952	329.206
492.708	323.064
494.463	339.922
496.219	331.78
497.974	339.638
499.728	323.496
501.482	322.355
503.236	361.213
504.99	327.071
506.743	328.929
508.496	340.787
510.249	318.645
512.001	329.503
513.751	325.361
515.503	327.219
517.254	318.077
519.005	343.935
520.755	327.794
522.506	334.652
524.256	334.51
526.005	325.368
527.755	331.226
529.503	336.084
531.252	338.942
532.998	320.8
534.746	328.658
536.494	325.516
538.241	326.375
539.988	327.233
541.734	320.091
543.479	330.949
545.225	327.807
546.97	312.665
548.715	345.523
550.46	334.381
552.203	340.239
553.947	330.097
555.691	344.955
557.435	343.814
559.178	357.672
560.919	338.53
562.661	322.388
564.404	327.246
566.143	337.104
567.885	339.962
569.626	341.82
571.367	346.678
573.106	324.536
574.846	342.394
576.586	333.253
578.323	324.111
580.063	314.969
581.802	333.827
583.538	333.685
585.276	335.543
587.014	329.401
588.75	354.259
590.487	351.117
592.224	336.975
593.959	344.833
595.695	362.692
597.429	348.55
599.165	316.408
600.9	326.266
602.633	325.124
604.367	328.982
606.1	347.84
607.834	335.698
609.565	327.556
611.299	333.414
613.031	328.272
614.762	362.131
616.494	331.989
618.224	348.847
619.956	356.705
621.685	326.563
623.416	362.421
625.145	348.279
626.875	351.137
628.603	338.995
630.333	349.853
632.06	367.711
633.789	330.57
635.516	339.428
637.242	339.286
638.97	352.144
640.696	351.002
642.423	365.86
644.148	364.718
645.875	354.576
647.599	346.434
649.323	363.292
651.049	345.15
652.773	358.009
654.496	347.867
656.22	367.725
657.943	373.583
659.667	345.441
661.389	350.299
663.11	362.157
664.833	348.015
666.554	365.873
668.274	350.731
669.994	345.59
671.716	345.448
673.436	358.306
675.155	359.164
676.876	369.022
678.594	362.88
680.312	365.738
682.03	360.596
683.75	361.454
685.467	357.312
687.184	360.17
688.9	376.029
690.618	344.887
692.334	355.745
694.05	354.603
695.765	357.461
697.48	370.319
699.196	350.177
700.911	356.035
702.625	352.893
704.338	375.751
706.052	352.609
707.764	357.468
709.477	358.326
711.191	369.184
712.903	341.042
714.615	336.9
716.326	361.758
718.037	356.616
719.748	350.474
721.458	354.332
723.168	362.19
724.878	353.048
726.588	356.907
728.299	355.765
730.007	351.623
731.716	367.481
733.424	356.339
735.132	351.197
736.839	358.055
738.546	351.913
740.253	357.771
741.959	345.629
743.666	344.487
745.371	354.346
747.077	348.204
748.782	371.062
750.487	356.92
752.192	368.778
753.896	346.636
755.6	354.494
757.301	362.352
759.005	366.21
760.707	362.068
762.41	350.926
764.112	351.785
765.814	340.643
767.516	360.501
769.217	346.359
770.918	357.217
772.619	342.075
774.317	351.933
776.017	359.791
777.717	353.649
779.417	355.507
781.116	342.365
782.814	344.224
784.511	337.082
786.209	329.94
787.907	337.798
789.604	341.656
791.301	333.514
792.996	332.372
794.693	354.23
796.389	343.088
798.085	345.946
799.779	347.805
801.474	343.663
803.169	339.521
804.863	346.379
806.556	350.237
808.25	353.095
809.943	349.953
811.637	347.811
813.328	356.669
815.02	332.527
816.713	370.385
818.403	350.244
820.094	353.102
821.786	363.96
823.475	351.818
825.166	371.676
826.856	347.534
828.544	361.392
830.234	341.25
831.922	362.108
833.611	353.966
835.3	356.824
836.986	367.683
838.675	352.541
840.361	346.399
842.048	354.257
843.734	349.115
845.421	350.973
847.107	357.831
848.792	358.689
850.478	342.547
852.161	341.405
853.847	365.263
855.53	352.122
857.215	358.98
858.897	347.838
860.581	363.696
862.263	358.554
863.947	355.412
865.628	357.27
867.309	366.128
868.991	352.986
870.671	347.844
872.353	361.702
874.033	351.561
875.714	350.419
877.393	364.277
879.072	365.135
880.752	366.993
882.43	358.851
884.11	359.709
885.788	352.567
887.465	353.425
889.143	360.283
890.82	354.142
892.496	352
894.174	353.858
895.849	368.716
897.525	367.574
899.202	397.432
900.876	415.29
902.55	376.148
904.226	361.006
905.9	362.864
907.573	360.722
909.246	355.581
910.921	362.439
912.594	350.297
914.266	352.155
915.938	358.013
917.611	355.871
919.282	341.729
920.953	352.587
922.623	369.445
924.294	373.303
925.966	367.161
927.635	370.02
929.304	351.878
930.973	371.736
932.642	360.594
934.31	362.452
935.98	356.31
937.648	343.168
939.316	353.026
940.983	351.884
942.649	359.742
944.316	369.6
945.982	345.459
947.648	360.317
949.314	343.175
950.981	358.033
952.646	367.891
954.31	369.749
955.975	351.607
957.639	367.465
959.302	371.323
960.966	382.181
962.629	369.039
964.292	357.898
965.954	364.756
967.616	356.614
969.278	350.472
970.939	357.33
972.601	363.188
974.262	366.046
975.922	346.904
977.582	369.762
979.242	359.62
980.902	361.478
982.561	385.337
984.219	372.195
985.877	357.053
987.536	374.911
989.194	355.769
990.852	360.627
992.509	356.485
994.166	354.343
995.823	362.201
997.48	350.059
999.134	365.917
1000.79	346.776
1002.45	349.634
1004.1	355.492
1005.76	348.35
1007.41	348.208
1009.06	354.066
1010.72	357.924
1012.37	345.782
1014.02	354.64
1015.68	361.498
1017.33	370.357
1018.98	357.215
1020.63	368.073
1022.29	351.931
1023.94	364.789
1025.59	355.647
1027.24	372.505
1028.89	353.363
1030.54	354.221
1032.19	362.079
1033.84	337.937
1035.48	366.796
1037.13	353.654
1038.78	352.512
1040.43	348.37
1042.08	363.228
1043.73	341.086
1045.37	364.944
1047.02	356.802
1048.66	372.66
1050.31	370.518
1051.96	371.376
1053.6	386.235
1055.25	352.093
1056.89	380.951
1058.54	354.809
1060.18	362.667
1061.82	382.525
1063.47	370.383
1065.11	381.241
1066.75	369.099
1068.4	374.957
1070.04	366.815
1071.68	374.674
1073.32	376.532
1074.96	374.39
1076.6	368.248
1078.24	360.106
1079.88	372.964
1081.52	371.822
1083.16	358.68
1084.8	371.538
1086.44	374.396
1088.08	373.254
1089.72	370.113
1091.36	363.971
1092.99	375.829
1094.63	375.687
1096.27	356.545
1097.91	359.403
1099.54	365.261
1101.18	369.119
1102.82	354.977
1104.45	362.835
1106.08	366.693
1107.72	364.552
1109.35	363.41
1110.99	370.268
1112.62	364.126
1114.26	356.984
1115.89	359.842
1117.52	365.7
1119.16	362.558
1120.79	360.416
1122.42	369.274
1124.05	360.132
1125.68	358.991
1127.31	351.849
1128.94	347.707
1130.57	354.565
1132.2	353.423
1133.83	353.281
1135.46	366.139
1137.09	352.997
1138.72	376.855
1140.35	344.713
1141.98	364.572
1143.61	368.43
1145.23	364.288
1146.86	354.146
1148.49	348.004
1150.12	351.862
1151.74	357.72
1153.37	361.578
1154.99	351.436
1156.62	363.294
1158.24	360.152
1159.87	355.011
1161.49	370.869
1163.12	343.727
1164.74	362.585
1166.36	360.443
1167.99	348.301
1169.61	353.159
1171.23	369.017
1172.86	358.875
1174.48	376.733
1176.1	353.591
1177.72	356.45
1179.34	379.308
1180.96	361.166
1182.58	365.024
1184.2	350.882
1185.82	371.74
1187.44	365.598
1189.06	367.456
1190.68	362.314
1192.3	385.172
1193.91	373.03
1195.53	365.889
1197.15	360.747
1198.77	395.605
1200.38	372.463
1202	367.321
1203.62	355.179
1205.23	379.037
1206.85	361.895
1208.46	356.753
1210.08	372.611
1211.69	359.469
1213.31	365.328
1214.92	371.186
1216.54	376.044
1218.15	363.902
1219.76	389.76
1221.38	376.618
1222.99	354.476
1224.6	375.334
1226.21	373.192
1227.82	386.05
1229.43	370.909
1231.05	351.767
1232.66	354.625
1234.27	361.483
1235.88	370.341
1237.49	364.199
1239.1	376.057
1240.71	371.915
1242.31	351.773
1243.92	366.631
1245.53	366.489
1247.14	373.348
1248.75	363.206
1250.35	356.064
1251.96	351.922
1253.57	375.78
1255.17	373.638
1256.78	357.496
1258.39	363.354
1259.99	367.212
1261.6	367.07
1263.2	357.928
1264.8	365.787
1266.41	380.645
1268.01	360.503
1269.62	370.361
1271.22	377.219
1272.82	368.077
1274.43	378.935
1276.03	370.793
1277.63	366.651
1279.23	375.509
1280.83	366.367
1282.43	381.226
1284.04	372.084
1285.64	357.942
1287.23	364.8
1288.84	365.658
1290.43	378.516
1292.03	366.374
1293.63	369.232
1295.23	385.09
1296.83	380.948
1298.43	366.806
1300.03	361.665
1301.62	353.523
1303.22	365.381
1304.82	388.239
1306.41	363.097
1308.01	363.955
1309.61	369.813
1311.2	389.671
1312.8	379.529
1314.39	378.387
1315.99	367.245
1317.58	368.104
1319.17	384.962
1320.77	369.82
1322.36	376.678
1323.95	376.536
1325.55	365.394
1327.14	366.252
1328.73	366.11
1330.32	363.968
1331.92	373.326
1333.51	382.684
1335.1	368.543
1336.69	375.401
1338.28	375.259
1339.87	361.117
1341.46	365.975
1343.05	375.833
1344.64	389.691
1346.23	378.549
1347.81	367.407
1349.4	374.265
1350.99	374.124
1352.58	371.982
1354.17	513.84
1355.75	501.698
1357.34	373.556
1358.92	379.414
1360.51	365.272
1362.1	364.13
1363.68	374.988
1365.27	400.846
1366.85	370.704
1368.44	370.563
1370.02	357.421
1371.6	376.279
1373.19	363.137
1374.77	396.995
1376.35	380.853
1377.94	375.711
1379.52	370.569
1381.1	370.427
1382.68	369.285
1384.27	384.143
1385.85	362.002
1387.43	344.86
1389.01	381.718
1390.59	379.576
1392.17	369.434
1393.75	372.292
1395.33	363.15
1396.91	362.008
1398.49	376.866
1400.06	358.724
1401.64	377.582
1403.22	360.441
1404.8	378.299
1406.37	370.157
1407.95	393.015
1409.53	358.873
1411.11	381.731
1412.68	384.589
1414.26	372.447
1415.83	388.305
1417.41	371.163
1418.98	361.021
1420.56	361.88
1422.13	403.738
1423.71	379.596
1425.28	372.454
1426.85	366.312
1428.43	368.17
1430	379.028
1431.57	384.886
1433.14	371.744
1434.72	388.602
1436.29	381.46
1437.86	367.319
1439.43	367.177
1441	364.035
1442.57	377.893
1444.14	354.751
1445.71	372.609
1447.28	366.467
1448.85	377.325
1450.42	361.183
1451.99	374.041
1453.55	377.899
1455.12	396.758
1456.69	372.616
1458.26	363.474
1459.82	377.332
1461.39	354.19
1462.96	369.048
1464.52	367.906
1466.09	377.764
1467.66	351.622
1469.22	377.48
1470.79	397.339
1472.35	358.197
1473.92	376.055
1475.48	381.913
1477.04	358.771
1478.61	357.629
1480.17	376.487
1481.73	357.345
1483.29	367.203
1484.86	400.061
1486.42	368.919
1487.98	360.778
1489.54	355.636
1491.1	376.494
1492.67	363.352
1494.23	377.21
1495.78	377.068
1497.35	350.926
1498.91	350.784
1500.46	375.642
1502.02	364.5
1503.58	373.358
1505.14	339.217
1506.7	361.075
1508.26	380.933
1509.81	357.791
1511.37	380.649
1512.93	367.507
1514.49	360.365
1516.04	376.223
1517.6	375.081
1519.15	355.939
1520.71	351.797
1522.26	352.656
1523.82	382.514
1525.37	356.372
1526.93	378.23
1528.48	372.088
1530.04	366.946
1531.59	370.804
1533.14	366.662
1534.69	376.52
1536.25	367.378
1537.8	367.236
1539.35	368.095
1540.9	363.953
1542.46	383.811
1544.01	376.669
1545.56	376.527
1547.11	369.385
1548.66	386.243
1550.21	376.101
1551.76	360.959
1553.31	358.817
1554.86	380.676
1556.4	377.534
1557.95	373.392
1559.5	388.25
1561.05	372.108
1562.6	391.966
1564.14	352.824
1565.69	374.682
1567.24	366.54
1568.78	390.398
1570.33	369.256
1571.87	366.115
1573.42	375.973
1574.96	401.831
1576.51	357.689
1578.05	361.547
1579.6	372.405
1581.14	358.263
1582.69	371.121
1584.23	346.979
1585.77	365.837
1587.32	378.695
1588.86	350.554
1590.4	374.412
1591.94	361.27
1593.48	351.128
1595.03	366.986
1596.57	358.844
1598.11	365.702
1599.65	365.56
1601.19	357.418
1602.73	368.276
1604.27	372.134
1605.81	362.993
1607.35	378.851
1608.89	379.709
1610.42	355.567
1611.96	353.425
1613.5	376.283
1615.04	352.141
1616.57	358.999
1618.11	377.857
1619.65	349.715
1621.18	351.573
1622.72	371.432
1624.26	367.29
1625.79	342.148
1627.33	350.006
1628.86	363.864
1630.4	355.722
1631.93	366.58
1633.47	382.438
1635	380.296
1636.53	361.154
1638.07	376.012
1639.6	365.871
1641.13	379.729
1642.66	368.587
1644.2	378.445
1645.73	365.303
1647.26	363.211
1648.79	355.005
1650.32	362.492
1651.85	372.369
1653.38	374.91
1654.91	378.7
1656.44	369.502
1657.97	351.572
1659.5	388.706
1661.03	374.327
1662.56	348.04
1664.09	360.735
1665.62	372.458
1667.14	376.918
1668.67	363.179
1670.2	360.933
1671.72	363.843
1673.25	364.697
1674.78	377.63
1676.3	370.869
1677.83	380.145
1679.35	366.047
1680.88	370.316
1682.41	373.104
1683.93	378.812
1685.45	357.242
1686.98	373.722
1688.5	366.758
1690.03	380.143
1691.55	362.26
1693.07	371.415
1694.59	361.536
1696.12	368.537
1697.64	368.598
1699.16	367.668
1700.68	371.861
1702.2	361.502
1703.72	366.059
1705.24	370.621
1706.76	373.892
1708.28	363.001
1709.8	360.633
1711.32	357.873
1712.84	347.908
1714.36	361.96
1715.88	366.657
1717.4	359.291
1718.92	354.05
1720.43	355.6
1721.95	359.915
1723.47	358.946
1724.98	360.366
1726.5	358.433
1728.02	352.918
1729.53	355.897
1731.05	345.376
1732.56	350.734
1734.08	361.971
1735.59	357.303
1737.11	372.496
1738.62	358.537
1740.14	355.212
1741.65	353.61
1743.16	349.498
1744.68	352.619
1746.19	358.288
1747.7	361.547
1749.21	347.732
1750.73	355.228
1752.24	347.501
1753.75	354.054
1755.26	355.365
1756.77	354.515
1758.28	356.459
1759.79	356.984
1761.3	352.444
1762.81	349.949
1764.32	357.304
1765.83	339.37
1767.34	355.994
1768.85	351.107
1770.36	351.149
1771.87	348.525
1773.37	356.803
1774.88	351.368
1776.39	345.918
1777.9	355.08
1779.4	350.897
1780.91	356.81
1782.41	362.497
1783.92	353.428
1785.42	346.564
1786.93	355.315
1788.43	349.67
1789.94	347.616
1791.44	344.68
1792.95	347.144
1794.45	349.05
1795.95	349.589
1797.46	346.119
1798.96	342.412
1799.54	341.418
1801.05	357.332
1802.56	346.245
1804.06	349.159
1805.57	353.073
1807.08	344.986
1808.59	355.9
1810.1	368.813
1811.6	349.727
1813.11	357.641
1814.62	345.554
1816.12	348.468
1817.63	354.381
1819.14	342.295
1820.64	331.209
1822.15	365.122
1823.65	348.036
1825.16	347.949
1826.66	356.863
1828.17	345.777
1829.67	361.69
1831.17	350.604
1832.68	348.517
1834.18	339.431
1835.68	351.345
1837.19	350.258
1838.69	349.172
1840.19	354.085
1841.69	346.999
1843.19	358.913
1844.7	353.826
1846.2	349.74
1847.7	350.654
1849.2	358.567
1850.7	340.481
1852.2	342.394
1853.7	350.308
1855.2	357.221
1856.69	335.135
1858.19	342.049
1859.69	347.962
1861.19	356.876
1862.69	340.79
1864.19	336.703
1865.68	340.617
1867.18	339.53
1868.68	360.444
1870.17	347.358
1871.67	337.271
1873.16	361.185
1874.66	325.098
1876.15	335.012
1877.65	352.926
1879.14	346.839
1880.64	347.753
1882.13	333.666
1883.63	340.58
1885.12	355.494
1886.61	354.407
1888.11	347.321
1889.6	344.234
1891.09	338.148
1892.59	359.057
1894.08	345.966
1895.57	340.874
1897.06	343.783
1898.55	340.692
1900.04	333.601
1901.53	339.51
1903.02	355.419
1904.51	323.327
1906	349.236
1907.49	344.145
1908.98	347.054
1910.47	340.963
1911.96	337.871
1913.45	344.78
1914.94	343.689
1916.43	350.598
1917.91	363.507
1919.4	348.416
1920.89	340.324
1922.37	336.233
1923.86	330.142
1925.35	352.051
1926.83	328.96
1928.32	345.868
1929.8	352.777
1931.29	343.686
1932.77	353.595
1934.26	358.504
1935.74	349.413
1937.23	349.321
1938.71	333.23
1940.2	346.139
1941.68	332.048
1943.16	339.957
1944.64	350.865
1946.13	330.774
1947.61	340.683
1949.09	361.592
1950.57	334.501
1952.05	342.41
1953.53	354.318
1955.02	338.227
1956.49	344.136
1957.98	350.045
1959.46	346.954
1960.93	349.862
1962.41	345.771
1963.89	327.68
1965.37	332.589
1966.85	342.498
1968.33	341.406
1969.81	354.315
1971.29	337.224
1972.76	329.133
1974.24	334.042
1975.72	336.951
1977.19	330.859
1978.67	340.768
1980.15	333.677
1981.62	325.586
1983.1	326.495
1984.57	331.404
1986.05	339.312
1987.52	327.221
1989	341.13
1990.47	351.039
1991.95	336.948
1993.42	332.856
1994.89	338.765
1996.37	333.674
1997.84	338.583
1999.31	346.492
2000.78	336.4
2002.26	334.309
2003.73	336.218
2005.2	335.127
2006.67	332.036
2008.14	333.945
2009.61	342.853
2011.08	337.762
2012.55	340.671
2014.02	336.58
2015.49	342.489
2016.96	341.397
2018.43	322.306
2019.9	322.215
2021.37	331.124
2022.84	333.033
2024.3	343.942
2025.77	336.85
2027.24	340.759
2028.71	332.668
2030.17	318.577
2031.64	319.486
2033.11	332.394
2034.57	326.303
2036.04	338.212
2037.51	332.121
2038.97	326.03
2040.44	338.939
2041.9	342.847
2043.37	325.756
2044.83	324.665
2046.29	321.574
2047.76	328.483
2049.22	334.391
2050.68	321.3
2052.15	332.209
2053.61	328.118
2055.07	335.027
2056.53	332.935
2058	342.844
2059.46	329.753
2060.92	343.662
2062.38	326.571
2063.84	329.48
2065.3	332.388
2066.76	334.297
2068.22	325.206
2069.68	331.115
2071.14	330.024
2072.6	321.932
2074.06	331.841
2075.52	313.75
2076.98	334.659
2078.43	313.568
2079.89	326.477
2081.35	338.385
2082.81	325.294
2084.26	320.203
2085.72	334.112
2087.18	325.021
2088.63	313.929
2090.09	327.838
2091.54	321.747
2093	319.656
2094.45	339.565
2095.91	306.474
2097.36	320.382
2098.82	313.291
2100.27	334.2
2101.73	327.109
2103.18	322.018
2104.63	316.926
2106.09	323.835
2107.54	316.744
2108.99	306.653
2110.44	314.562
2111.9	316.47
2113.35	330.379
2114.8	324.288
2116.25	317.197
2117.7	319.106
2119.15	317.015
2120.6	318.923
2122.05	308.832
2123.5	321.741
2124.95	305.65
2126.4	311.559
2127.85	319.467
2129.3	309.376
2130.75	319.285
2132.19	333.194
2133.64	318.103
2135.09	320.012
2136.54	323.92
2137.99	322.829
2139.43	319.738
2140.88	308.647
2142.33	317.556
2143.77	336.464
2145.22	306.373
2146.66	313.282
2148.11	324.191
2149.55	312.1
2151	314.009
2152.44	308.917
2153.89	316.826
2155.33	333.735
2156.77	314.644
2158.22	313.553
2159.66	311.461
2161.1	318.37
2162.55	313.279
2163.99	322.188
2165.43	314.097
2166.88	327.006
2168.32	327.914
2169.76	316.823
2171.2	325.732
2172.64	330.641
2174.08	313.55
2175.52	323.458
2176.96	322.367
2178.4	312.276
2179.84	323.185
2181.28	333.094
2182.72	312.003
2184.16	324.911
2185.6	313.82
2187.03	328.729
2188.47	320.638
2189.91	324.547
2191.35	318.455
2192.78	319.364
2194.22	310.273
2195.66	334.182
2197.09	299.091
2198.53	319
2199.97	316.908
2201.4	326.817
2202.84	322.726
2204.27	333.635
2205.71	314.544
2207.14	303.452
2208.58	306.361
2210.01	309.27
2211.44	307.179
2212.88	301.088
2214.31	313.996
2215.74	309.905
2217.18	295.814
2218.61	319.723
2220.04	310.632
2221.47	298.541
2222.91	302.449
2224.34	303.358
2225.77	302.267
2227.2	311.176
2228.63	307.085
2230.06	294.993
2231.49	300.902
2232.92	294.811
2234.35	295.72
2235.78	300.629
2237.21	297.538
2238.64	305.446
2240.07	307.355
2241.49	305.264
2242.92	294.173
2244.35	280.082
2245.78	302.99
2247.2	302.899
2248.63	310.808
2250.06	303.717
2251.49	293.626
2252.91	303.535
2254.34	297.443
2255.76	285.352
2257.19	305.261
2258.61	297.17
2260.04	301.079
2261.46	322.987
2262.89	295.896
2264.31	290.805
2265.74	311.714
2267.16	287.623
2268.58	290.532
2270.01	297.44
2271.43	310.349
2272.85	294.258
2274.27	299.167
2275.7	303.076
2277.12	292.984
2278.54	281.893
2279.96	286.802
2281.38	296.711
2282.8	285.62
2284.22	303.529
2285.64	295.437
2287.06	294.346
2288.48	294.255
2289.9	296.164
2291.32	291.073
2292.74	296.981
2294.16	288.89
2295.58	297.799
2297	292.708
2298.41	292.617
2299.83	290.526
2301.25	286.434
2302.67	284.343
2304.09	313.252
2305.5	294.161
2306.92	295.07
2308.33	280.978
2309.75	286.887
2311.17	295.796
2312.58	291.705
2314	280.614
2315.41	296.522
2316.83	288.431
2318.24	301.34
2319.66	295.249
2321.07	286.158
2322.48	291.067
2323.9	288.975
2325.31	296.884
2326.72	295.793
2328.13	301.702
2329.55	300.611
2330.96	306.519
2332.37	306.428
2333.78	287.337
2335.19	294.246
2336.6	286.155
2338.02	309.064
2339.43	281.972
2340.84	272.881
2342.25	291.79
2343.66	285.699
2345.07	291.608
2346.47	287.516
2347.88	291.425
2349.29	283.334
2350.7	290.243
2352.11	290.152
2353.52	291.061
2354.93	294.969
2356.33	288.878
2357.74	285.787
2359.15	280.696
2360.55	298.605
2361.96	279.513
2363.37	283.422
2364.77	294.331
2366.18	282.24
2367.58	262.149
2368.99	288.057
2370.39	298.966
2371.8	282.875
2373.2	275.784
2374.61	274.693
2376.01	281.602
2377.42	280.51
2378.82	282.419
2380.22	284.328
2381.63	276.237
2383.03	284.146
2384.43	278.054
2385.83	277.963
2387.23	289.872
2388.64	291.781
2390.04	274.69
2391.44	290.599
2392.84	286.507
2394.24	280.416
2395.64	281.325
2397.04	291.234
2398.44	276.143
2399.84	272.051
2401.24	274.96
2402.64	279.869
2404.04	279.778
2405.44	285.687
2406.83	287.596
2408.23	286.504
2409.63	279.413
2411.03	260.322
2412.43	279.231
2413.82	275.14
2415.22	268.048
2416.62	273.957
2418.01	278.866
2419.41	275.775
2420.81	266.684
2422.2	286.593
2423.6	263.501
2424.99	271.41
2426.39	269.319
2427.78	287.228
2429.18	274.137
2430.57	280.045
2431.96	271.954
2433.36	271.863
2434.75	277.772
2436.14	260.681
2437.54	281.59
2438.93	284.498
2440.32	279.407
2441.71	278.316
2443.11	276.225
2444.5	271.134
2445.89	267.042
2447.28	270.951
2448.67	268.86
2450.06	280.769
2451.45	283.678
2452.84	273.587
2454.23	275.495
2455.62	265.404
2457.01	278.313
2458.4	295.222
2459.79	278.131
2461.18	269.039
2462.57	286.948
2463.95	275.857
2465.34	277.766
2466.73	278.675
2468.12	273.584
2469.5	290.492
2470.89	277.401
2472.28	275.31
2473.66	267.219
2475.05	289.128
2476.44	266.036
2477.82	277.945
2479.21	288.854
2480.59	283.763
2481.98	272.672
2483.36	269.581
2484.75	281.489
2486.13	279.398
2487.51	284.307
2488.9	271.216
2490.28	272.125
2491.66	288.033
2493.05	272.942
2494.43	272.851
2495.81	274.76
2497.19	274.669
2498.58	271.578
2499.96	273.486
2501.34	265.395
2502.72	267.304
2504.1	281.213
2505.48	273.122
2506.86	266.03
2508.24	269.939
2509.62	261.848
2511	263.757
2512.38	271.666
2513.76	266.574
2515.14	266.483
2516.52	265.392
2517.9	264.301
2519.28	264.21
2520.65	278.119
2522.03	265.027
2523.41	271.936
2524.79	280.845
2526.16	256.754
2527.54	260.663
2528.92	268.571
2530.29	256.48
2531.67	275.389
2533.04	269.298
2534.42	264.207
2535.8	268.116
2537.17	260.024
2538.54	270.933
2539.92	266.842
2541.29	268.751
2542.67	269.66
2544.04	262.568
2545.41	249.477
2546.79	257.386
2548.16	262.295
2549.53	256.204
2550.91	265.113
2552.28	253.021
2553.65	255.93
2555.02	250.839
2556.39	276.748
2557.77	259.657
2559.14	259.565
2560.51	253.474
2561.88	247.383
2563.25	243.292
2564.62	266.201
2565.99	259.109
2567.36	256.018
2568.73	263.927
2570.1	255.836
2571.47	266.745
2572.83	270.654
2574.2	274.562
2575.57	275.471
2576.94	246.38
2578.31	254.289
2579.67	263.198
2581.04	276.106
2582.41	268.015
2583.77	252.924
2585.14	261.833
2586.51	260.742
2587.87	267.651
2589.24	261.559
2590.6	271.468
2591.97	269.377
2593.33	267.286
2594.7	273.195
2596.06	248.103
2597.43	269.012
2598.79	259.921
2600.15	263.83
2601.52	266.739
2602.88	246.648
2604.24	266.556
2605.61	265.465
2606.97	256.374
2608.33	258.283
2609.7	263.192
2611.06	265.1
2612.42	257.009
2613.78	246.918
2615.14	239.827
2616.5	254.736
2617.86	255.645
2619.22	245.553
2620.58	261.462
2621.94	266.371
2623.3	266.28
2624.66	261.189
2626.02	255.097
2627.38	263.006
2628.74	264.915
2630.1	260.824
2631.45	257.733
2632.81	256.641
2634.17	261.55
2635.53	253.459
2636.88	254.368
2638.24	262.277
2639.6	260.186
2640.96	261.094
2642.31	256.003
2643.67	263.912
2645.02	252.821
2646.38	254.73
2647.73	251.638
2649.09	243.547
2650.44	251.456
2651.8	252.365
2653.15	261.274
2654.51	265.183
2655.86	259.091
2657.21	259
2658.57	252.909
2659.92	257.818
2661.27	251.727
2662.63	257.635
2663.98	248.544
2665.33	246.453
2666.68	256.362
2668.03	258.271
2669.38	254.18
2670.74	252.088
2672.09	249.997
2673.44	243.906
2674.79	242.815
2676.14	263.724
2677.49	246.632
2678.84	244.541
2680.19	257.45
2681.54	247.359
2682.89	260.268
2684.23	264.177
2685.58	256.085
2686.93	247.994
2688.28	241.903
2689.63	254.812
2690.98	244.721
2692.32	247.629
2693.67	264.538
2695.02	245.447
2696.36	257.356
2697.71	234.265
2699.05	260.174
2700.4	251.082
2701.75	242.991
2703.09	240.9
2704.44	246.809
2705.78	235.718
2707.13	247.626
2708.47	253.535
2709.82	250.444
2711.16	238.353
2712.5	251.262
2713.85	249.171
2715.19	254.079
2716.53	260.988
2717.88	244.897
2719.22	255.806
2720.56	234.715
2721.9	241.623
2723.25	243.532
2724.59	252.441
2725.93	247.35
2727.27	259.259
2728.61	232.167
2729.95	250.076
2731.29	241.985
2732.63	248.894
2733.97	247.803
2735.31	257.712
2736.65	250.62
2737.99	244.529
2739.33	253.438
2740.67	230.347
2742.01	241.256
2743.35	243.164
2744.68	239.073
2746.02	234.982
2747.36	241.891
2748.7	244.8
2750.03	257.709
2751.37	255.617
2752.71	252.526
2754.04	240.435
2755.38	260.344
2756.71	237.253
2758.05	236.161
2759.39	254.07
2760.72	246.979
2762.06	255.888
2763.39	252.797
2764.72	241.706
2766.06	236.614
2767.39	251.523
2768.73	247.432
2770.06	245.341
2771.39	232.25
2772.73	260.158
2774.06	253.067
2775.39	236.976
2776.72	264.885
2778.06	241.794
2779.39	249.703
2780.72	251.611
2782.05	259.52
2783.38	248.429
2784.72	246.338
2786.04	251.247
2787.38	249.155
2788.71	244.064
2790.04	254.973
2791.37	240.882
2792.7	241.791
2794.03	247.7
2795.35	250.608
2796.68	249.517
2798.01	242.426
2799.34	244.335
2800.67	232.244
2802	241.152
2803.32	237.061
2804.65	245.97
2805.98	252.879
2807.3	238.788
2808.63	228.697
2809.96	255.605
2811.29	251.514
2812.61	230.423
2813.94	254.332
2815.26	227.241
2816.59	226.149
2817.91	240.058
2819.24	257.967
2820.56	237.876
2821.89	244.785
2823.21	237.693
2824.53	242.602
2825.86	238.511
2827.18	230.42
2828.5	244.329
2829.83	240.238
2831.15	244.146
2832.47	236.055
2833.79	239.964
2835.12	235.873
2836.44	228.782
2837.76	257.69
2839.08	238.599
2840.4	245.508
2841.73	248.417
2843.04	239.326
2844.37	236.235
2845.69	252.143
2847.01	243.052
2848.33	243.961
2849.65	243.87
2850.96	237.779
2852.28	239.687
2853.6	241.596
2854.92	247.505
2856.24	252.414
2857.56	245.323
2858.87	247.232
2860.19	248.14
2861.51	245.049
2862.83	237.958
2864.14	246.867
2865.46	240.776
2866.78	241.684
2868.09	243.593
2869.41	238.502
2870.73	250.411
2872.04	249.32
2873.36	239.229
2874.67	242.137
2875.99	245.046
2877.3	243.955
2878.62	239.864
2879.93	233.773
2881.24	242.681
2882.56	244.59
2883.87	242.499
2885.18	247.408
2886.5	247.317
2887.81	242.226
2889.12	242.134
2890.43	234.043
2891.75	230.952
2893.06	256.861
2894.37	239.77
2895.68	244.678
2896.99	244.587
2898.3	251.496
2899.61	228.405
2900.93	252.314
2902.24	238.222
2903.55	240.131
2904.86	236.04
2906.17	240.949
2907.48	235.858
2908.78	243.767
2910.09	239.675
2911.4	241.584
2912.71	237.493
2914.02	248.402
2915.33	242.311
2916.63	240.219
2917.94	235.128
2919.25	240.037
2920.56	240.946
2921.86	248.855
2923.17	251.764
2924.48	241.672
2925.78	244.581
2927.09	230.49
2928.39	256.399
2929.7	237.308
2931	229.216
2932.31	249.125
2933.61	244.034
2934.92	239.943
2936.22	244.852
2937.53	243.761
2938.83	239.669
2940.13	234.578
2941.44	231.487
2942.74	228.396
2944.04	225.305
2945.35	236.213
2946.65	235.122
2947.95	235.031
2949.25	238.94
2950.55	226.849
2951.86	221.757
2953.16	223.644
2954.46	231.379
2955.76	220.562
2957.06	230.179
2958.36	226.496
2959.66	220.99
2960.96	221.815
2962.26	221.368
2963.56	213.542
2964.86	221.583
2966.16	232.993
2967.46	230.727
2968.76	215.773
2970.05	223.319
2971.35	218.873
2972.65	235.348
2973.95	225.252
2975.24	213.186
2976.54	221.984
2977.84	225.113
2979.14	230.079
2980.43	222.304
2981.73	215.752
2983.02	222.718
2984.32	234.144
2985.62	232.707
2986.91	223.649
2988.21	222.405
2989.5	227.888
2990.8	221.066
2992.09	212.654
2993.39	219.964
2994.68	207.232
2995.97	217.36
2997.27	219.733
2998.56	213.768
2999.85	229.173
3001.15	211.117
3002.44	212.609
3003.73	216.459
3005.02	210
3006.32	215.153
3007.61	216.728
3008.9	225.794
3010.19	216.623
3011.48	217.591
3012.77	209.127
3014.06	207.395
3015.35	218.896
3016.64	223.279
3017.93	216.184
3019.22	216.227
3020.51	213.817
3021.8	218.248
3023.09	218.386
3024.38	216.464
3025.67	218.817
3026.96	209.392
3028.25	205.879
3029.53	214.881
3030.82	210.517
3032.11	214.493
3033.4	210.34
3034.68	213.529
3035.97	215.805
3037.26	217.493
3038.54	209.232
3039.83	214.715
3041.12	212.859
3042.4	202.601
3043.69	217.663
3044.97	212.968
3046.26	209.925
3047.54	210.117
3048.83	213.629
3050.11	215.872
3051.4	214.022
3052.68	208.458
3053.96	203.779
3055.25	213.938
3056.53	211.076
3057.81	210.832
3059.1	212.694
3060.38	216.12
3061.66	217.355
3062.94	201.207
3064.23	211.81
3065.51	218.129
3066.79	210.584
3068.07	204.015
3069.35	218.56
3070.63	208.79
3071.91	207.571
3073.19	203.817
3074.47	208.379
3075.75	205.273
3077.03	192.199
3078.31	207.833
3079.59	206.904
3080.87	208.457
3082.15	203.19
3082.23	202.757
3083.52	199.741
3084.8	214.724
3086.08	214.708
3087.37	206.692
3088.65	204.675
3089.94	209.659
3091.22	201.643
3092.5	202.626
3093.79	203.61
3095.07	221.594
3096.35	206.578
3097.63	201.561
3098.92	202.545
3100.2	210.529
3101.48	209.512
3102.76	213.496
3104.04	217.48
3105.32	204.463
3106.6	215.447
3107.88	208.431
3109.16	209.414
3110.44	217.398
3111.72	203.382
3113	202.366
3114.28	210.349
3115.56	194.333
3116.84	210.317
3118.12	195.3
3119.4	202.284
3120.67	202.268
3121.95	207.251
3123.23	214.235
3124.51	190.219
3125.79	192.202
3127.06	205.186
3128.34	206.17
3129.62	208.154
3130.89	204.137
3132.17	205.121
3133.44	192.105
3134.72	196.088
3136	207.072
3137.27	190.056
3138.55	213.039
3139.82	209.023
3141.1	215.007
3142.37	204.99
3143.65	201.974
3144.92	215.958
3146.19	214.942
3147.47	200.925
3148.74	203.909
3150.01	196.893
3151.29	198.876
3152.56	206.86
3153.83	215.844
3155.1	207.827
3156.38	206.811
3157.65	210.795
3158.92	201.778
3160.19	213.762
3161.46	209.746
3162.73	197.73
3164	197.713
3165.28	208.697
3166.54	208.681
3167.81	204.664
3169.09	199.648
3170.35	203.632
3171.62	201.615
3172.89	203.599
3174.16	209.583
3175.43	210.566
3176.7	210.55
3177.97	204.534
3179.24	208.518
3180.5	199.501
3181.77	203.485
3183.04	206.469
3184.31	200.452
3185.57	209.436
3186.84	205.42
3188.11	206.403
3189.38	187.387
3190.64	204.371
3191.91	198.354
3193.17	196.338
3194.44	205.322
3195.7	207.306
3196.97	215.289
3198.23	193.273
3199.5	208.257
3200.76	209.24
3202.03	196.224
3203.29	202.208
3204.55	193.191
3205.82	193.175
3207.08	209.159
3208.35	195.142
3209.61	217.126
3210.87	207.11
3212.13	199.094
3213.4	204.077
3214.66	192.061
3215.92	201.045
3217.18	201.028
3218.44	208.012
3219.7	199.996
3220.97	203.979
3222.23	199.963
3223.49	201.947
3224.75	198.93
3226.01	193.914
3227.27	188.898
3228.53	198.882
3229.79	193.865
3231.05	196.849
3232.31	186.833
3233.56	200.816
3234.82	202.8
3236.08	203.784
3237.34	180.767
3238.6	189.751
3239.86	202.735
3241.11	199.718
3242.37	186.702
3243.63	192.686
3244.88	201.67
3246.14	197.653
3247.4	196.637
3248.65	194.621
3249.91	193.604
3251.17	198.588
3252.42	188.572
3253.68	203.555
3254.93	200.539
3256.19	194.523
3257.44	199.506
3258.7	194.49
3259.95	201.474
3261.21	197.458
3262.46	193.441
3263.71	192.425
3264.97	202.409
3266.22	199.392
3267.47	188.376
3268.73	194.36
3269.98	201.343
3271.23	198.327
3272.48	190.311
3273.74	183.294
3274.99	208.278
3276.24	194.262
3277.49	189.246
3278.74	191.229
3279.99	185.213
3281.24	192.197
3282.49	196.18
3283.74	198.164
3284.99	198.148
3286.24	200.131
3287.49	192.115
3288.74	196.099
3289.99	202.082
3291.24	198.066
3292.49	190.05
3293.74	185.034
3294.99	200.017
3296.23	200.001
3297.48	177.985
3298.73	201.968
3299.98	204.952
3301.23	193.936
3302.47	192.919
3303.72	202.903
3304.97	199.887
3306.21	203.87
3307.46	199.854
3308.71	198.838
3309.95	197.822
3311.2	192.805
3312.44	194.789
3313.69	192.773
3314.93	189.756
3316.18	191.74
3317.42	199.724
3318.67	199.707
3319.91	200.691
3321.15	200.675
3322.4	193.658
3323.64	196.642
3324.88	187.626
3326.13	207.61
3327.37	188.593
3328.61	192.577
3329.86	195.561
3331.1	191.544
3332.34	189.528
3333.58	194.512
3334.82	194.495
3336.07	190.479
3337.31	190.463
3338.55	186.446
3339.79	187.43
3341.03	185.414
3342.27	192.398
3343.51	192.381
3344.75	192.365
3345.99	191.349
3347.23	185.332
3348.47	197.316
3349.71	193.3
3350.95	190.283
3352.18	196.267
3353.42	186.251
3354.66	195.234
3355.9	192.218
3357.14	190.202
3358.38	179.186
3359.61	185.169
3360.85	195.153
3362.09	187.137
3363.32	192.12
3364.56	187.104
3365.8	191.088
3367.03	194.071
3368.27	179.055
3369.5	179.039
3370.74	190.022
3371.98	189.006
3373.21	188.99
3374.45	183.974
3375.68	192.957
3376.91	182.941
3378.15	180.925
3379.38	185.908
3380.62	188.892
3381.85	188.876
3383.08	187.859
3384.32	168.843
3385.55	186.827
3386.78	188.81
3388.02	194.794
3389.25	183.778
3390.48	179.762
3391.71	186.745
3392.94	193.729
3394.17	199.713
3395.41	178.696
3396.64	192.68
3397.87	184.664
3399.1	192.647
3400.33	185.631
3401.56	193.615
3402.79	179.598
3404.02	196.582
3405.25	181.566
3406.48	176.55
3407.71	173.533
3408.94	186.517
3410.17	186.501
3411.4	183.484
3412.62	181.468
3413.85	178.452
3415.08	183.435
3416.31	172.419
3417.54	196.403
3418.76	192.386
3419.99	176.37
3421.22	186.354
3422.44	182.338
3423.67	181.321
3424.9	194.305
3426.12	172.289
3427.35	192.272
3428.57	192.256
3429.8	188.24
3431.02	182.223
3432.25	187.207
3433.48	178.191
3434.7	179.174
3435.92	179.158
3437.15	167.142
3438.37	187.126
3439.6	182.109
3440.82	189.093
3442.04	186.077
3443.27	192.06
3444.49	192.044
3445.71	176.028
3446.94	179.011
3448.16	181.995
3449.38	178.979
3450.6	177.962
3451.82	181.946
3453.05	184.93
3454.27	181.914
3455.49	190.897
3456.71	195.881
3457.93	190.865
3459.15	184.848
3460.37	194.832
3461.59	177.816
3462.81	171.799
3464.03	181.783
3465.25	185.767
3466.47	181.75
3467.69	175.734
3468.91	181.718
3470.13	185.702
3471.34	184.685
3472.56	179.669
3473.78	185.653
3475	175.636
3476.22	173.62
3477.43	173.604
3478.65	177.587
3479.87	186.571
3481.08	185.555
3482.3	185.538
3483.52	178.522
3484.73	170.506
3485.95	183.49
3487.17	183.473
3488.38	169.457
3489.6	179.441
3490.81	188.424
3492.03	177.408
3493.24	185.392
3494.46	181.375
3495.67	179.359
3496.89	179.343
3498.1	184.326
3499.31	164.31
3500.53	178.294
3501.74	178.278
3502.95	177.261
3504.17	178.245
3505.38	189.229
3506.59	175.212
3507.8	176.196
3509.02	169.18
3510.23	173.163
3511.44	166.147
3512.65	170.131
3513.86	172.114
3515.07	169.098
3516.29	157.082
3517.5	181.066
3518.71	164.049
3519.92	164.033
3521.13	177.017
3522.34	181
3523.55	172.984
3524.76	180.968
3525.96	176.951
3527.17	178.935
3528.38	176.919
3529.59	164.902
3530.8	167.886
3532.01	170.87
3533.22	173.854
3534.42	174.837
3535.63	172.821
3536.84	162.805
3538.05	166.788
3539.25	170.772
3540.46	170.756
3541.67	172.739
3542.87	172.723
3544.08	173.707
3545.29	166.69
3546.49	168.674
3547.7	162.658
3548.9	173.642
3550.11	167.625
3551.31	166.609
3552.52	166.593
3553.72	171.576
3554.93	166.56
3556.13	169.544
3557.34	172.527
3558.54	164.511
3559.74	161.495
3560.95	174.478
3562.15	165.462
3563.35	165.446
3564.56	175.43
3565.76	168.413
3566.96	169.397
3568.16	177.381
3569.36	157.364
3570.57	168.348
3571.77	178.332
3572.97	179.315
3574.17	159.299
3575.37	170.283
3576.57	160.266
3577.77	168.25
3578.97	167.234
3580.17	170.218
3581.37	168.201
3582.57	170.185
3583.77	173.169
3584.97	171.152
3586.17	175.136
3587.37	168.12
3588.57	168.103
3589.77	162.087
3590.97	171.071
3592.17	174.054
3593.36	166.038
3594.56	172.022
3595.76	161.006
3596.96	167.989
3598.15	169.973
3599.35	171.957
3600.55	173.94
3601.74	161.924
3602.94	176.908
3604.14	168.891
3605.33	171.875
3606.53	167.859
3607.72	174.842
3608.92	166.826
3610.11	167.81
3611.31	169.794
3612.5	175.777
3613.7	171.761
3614.89	157.745
3616.09	168.728
3617.28	170.712
3618.47	163.696
3619.67	157.679
3620.86	159.663
3622.05	163.647
3623.25	171.63
3624.44	171.614
3625.63	163.598
3626.82	165.582
3628.02	170.565
3629.21	157.549
3630.4	159.533
3631.59	171.516
3632.78	166.5
3633.98	154.484
3635.17	162.467
3636.36	169.451
3637.55	166.435
3638.74	158.418
3639.93	163.402
3641.12	164.386
3642.31	161.37
3643.5	168.353
3644.69	178.337
3645.88	159.321
3647.06	171.304
3648.25	165.288
3649.44	166.272
3650.63	162.255
3651.82	161.239
3653.01	167.223
3654.2	163.206
3655.38	157.19
3656.57	143.174
3657.76	155.158
3658.94	162.141
3660.13	165.125
3661.32	154.109
3662.5	161.092
3663.69	159.076
3664.88	172.06
3666.06	160.043
3667.25	157.027
3668.43	170.011
3669.62	150.994
3670.8	158.978
3671.99	157.962
3673.17	150.946
3674.36	163.929
3675.54	151.913
3676.73	158.897
3677.91	169.88
3679.09	140.864
3680.28	164.848
3681.46	157.831
3682.64	163.815
3683.82	164.799
3685.01	156.782
3686.19	158.766
3687.37	158.75
3688.55	151.734
3689.74	155.717
3690.92	159.701
3692.1	157.685
3693.28	147.668
3694.46	160.652
3695.64	164.636
3696.82	167.619
3698	153.603
3699.18	162.587
3700.36	156.57
3701.54	152.554
3702.72	164.538
3703.9	150.522
3705.08	156.505
3706.26	164.489
3707.44	151.473
3708.62	159.456
3709.8	156.44
3710.98	156.424
3712.15	152.407
3713.33	160.391
3714.51	148.375
3715.69	154.358
3716.86	160.342
3718.04	152.326
3719.22	152.31
3720.4	156.293
3721.57	158.277
3722.75	146.261
3723.92	154.244
3725.1	165.228
3726.28	145.212
3727.45	157.195
3728.63	144.179
3729.8	142.163
3730.98	155.146
3732.15	154.13
3733.33	154.114
3734.5	162.098
3735.68	163.081
3736.85	154.065
3738.02	150.049
3739.2	149.032
3740.37	156.016
3741.54	160
3742.72	163.983
3743.89	153.967
3745.06	149.951
3746.23	150.934
3747.41	150.918
3748.58	147.902
3749.75	154.886
3750.92	155.869
3752.09	149.853
3753.27	142.837
3754.44	147.82
3755.61	158.804
3756.78	149.788
3757.95	151.771
3759.12	147.755
3760.29	149.739
3761.46	150.722
3762.63	137.706
3763.8	149.69
3764.97	147.674
3766.14	155.657
3767.3	159.641
3768.47	157.625
3769.64	157.608
3770.81	158.592
3771.98	160.576
3773.15	156.559
3774.32	147.543
3775.48	155.527
3776.65	150.51
3777.82	152.494
3778.99	155.478
3780.15	151.462
3781.32	148.445
3782.48	161.429
3783.65	151.413
3784.82	163.396
3785.98	156.38
3787.15	151.364
3788.31	152.347
3789.48	151.331
3790.64	153.315
3791.81	157.298
3792.97	145.282
3794.14	139.266
3795.3	147.25
3796.47	148.233
3797.63	142.217
3798.79	150.201
3799.96	144.184
3801.12	148.168
3802.28	147.152
3803.45	143.135
3804.61	143.119
3805.77	160.103
3806.93	148.086
3808.1	152.07
3809.26	149.054
3810.42	147.038
3811.58	135.021
3812.74	152.005
3813.9	150.989
3815.07	137.972
3816.23	151.956
3817.39	152.94
3818.55	134.923
3819.71	150.907
3820.87	151.891
3822.03	142.874
3823.19	147.858
3824.35	152.842
3825.51	139.826
3826.67	144.809
3827.82	130.793
3828.98	145.777
3830.14	142.76
3831.3	145.744
3832.46	148.728
3833.62	148.711
3834.77	148.695
3835.93	138.679
3837.09	146.663
3838.25	129.646
3839.4	133.63
3840.56	137.614
3841.72	150.597
3842.87	137.581
3844.03	144.565
3845.19	150.548
3846.34	140.532
3847.5	138.516
3848.65	143.499
3849.81	142.483
3850.96	147.467
3852.12	137.451
3853.27	141.434
3854.43	147.418
3855.58	138.402
3856.73	138.385
3857.89	146.369
3859.04	140.353
3860.2	138.336
3861.35	146.32
3862.5	153.304
3863.66	146.287
3864.81	142.271
3865.96	135.255
3867.11	140.238
3868.27	130.222
3869.42	147.206
3870.57	134.19
3871.72	133.173
3872.87	136.157
3874.02	137.141
3875.18	145.124
3876.33	145.108
3877.48	138.092
3878.63	136.075
3879.78	140.059
3880.93	152.043
3882.08	143.026
3883.23	142.01
3884.38	131.994
3885.53	139.978
3886.68	142.961
3887.82	125.945
3888.97	138.929
3890.12	140.912
3891.27	140.896
3892.42	149.88
3893.57	140.863
3894.72	137.847
3895.86	145.831
3897.01	133.814
3898.16	141.798
3899.3	137.782
3900.45	134.766
3901.6	143.749
3902.74	142.733
3903.89	135.717
3905.04	137.7
3906.18	145.684
3907.33	139.668
3908.47	137.651
3909.62	141.635
3910.76	135.619
3911.91	129.602
3913.05	144.586
3914.2	145.57
3915.34	144.554
3916.49	140.537
3917.63	136.521
3918.78	143.505
3919.92	140.488
3921.06	145.472
3922.21	146.456
3923.35	137.439
3924.49	136.423
3925.64	139.407
3926.78	135.391
3927.92	137.374
3929.06	132.358
3930.2	131.342
3931.35	135.325
3932.49	142.309
3933.63	137.293
3934.77	141.276
3935.91	137.26
3937.05	145.244
3938.19	144.227
3939.33	137.211
3940.47	128.195
3941.61	136.178
3942.75	141.162
3943.89	133.146
3945.03	137.13
3946.17	126.113
3947.31	129.097
3948.45	150.081
3949.59	133.064
3950.73	127.048
3951.87	138.032
3953.01	134.015
3954.14	130.999
3955.28	129.983
3956.42	136.966
3957.56	132.95
3958.69	129.934
3959.83	130.918
3960.97	136.901
3962.1	134.885
3963.24	133.869
3964.38	128.852
3965.51	137.836
3966.65	137.82
3967.79	125.803
3968.92	132.787
3970.06	127.771
3971.19	137.754
3972.33	132.738
3973.46	122.722
3974.6	139.706
3975.73	128.689
3976.87	126.673
3978	125.657
3979.13	134.64
3980.27	125.624
3981.4	132.608
3982.53	132.591
3983.67	130.575
3984.8	141.559
3985.93	131.542
3987.07	119.526
3988.2	122.51
3989.33	132.494
3990.46	129.477
3991.6	122.461
3992.73	134.445
3993.86	127.428
3994.99	138.412
3996.12	127.396
3997.25	128.379
3998.38	140.363
3999.51	126.347
