#Acq. time (s)=	25
#Accumulations=	3
#Range (cm-¹)=	100...4000
#Windows=	3
#Autofocus=	Off
#AutoExposure=	Off
#Spike filter=	Multiple accum.
#Delay time (s)=	0
#Binning=	1
#Readout mode=	Signal
#DeNoise=	Off
#ICS correction=	Off
#Dark correction=	Off
#Inst. Process=	Off
#Instrument=	LabRAM HR Evol
#Detector=	Syncerity OE
#Objective=	x100_VIS
#Grating=	600 (500nm)
#ND Filter=	25%
#Laser=	532nm_Edge
#Hole=	150.001
#Range=	Visible
#Project=	Omar
#Sample=	
#Site=	02-05-23
#Title=	roy_mg_r2
#Remark=	
#Date=	02.05.2023 17:10
#Acquired=	02.05.2023 17:10:49
101.414	848
103.248	868.797
105.083	885.594
106.916	907.391
108.751	942.188
110.583	941.984
112.417	903.781
114.249	903.578
116.08	926.375
117.913	919.172
119.743	950.969
121.575	901.766
123.405	912.563
125.234	893.36
127.065	922.157
128.894	884.954
130.724	872.75
132.552	900.547
134.38	891.344
136.209	906.141
138.036	876.938
139.862	918.735
141.691	931.532
143.516	880.329
145.342	905.126
147.167	913.923
148.994	929.719
150.818	937.516
152.642	900.313
154.468	949.11
156.291	925.907
158.114	921.704
159.936	925.501
161.761	914.298
163.583	935.095
165.404	944.892
167.225	908.688
169.048	919.485
170.868	910.282
172.689	936.079
174.508	918.876
176.328	911.673
178.149	943.47
179.967	913.267
181.786	919.064
183.603	936.861
185.421	937.657
187.24	915.454
189.057	934.251
190.874	949.048
192.69	935.845
194.506	952.642
196.321	914.439
198.136	926.236
199.953	934.033
201.767	949.83
203.581	950.627
205.395	922.423
207.208	930.22
209.021	936.017
210.834	944.814
212.646	942.611
214.458	945.408
216.27	947.205
218.081	955.002
219.892	947.799
221.702	937.596
223.514	957.392
225.324	941.189
227.133	974.986
228.943	958.783
230.751	949.58
232.56	921.377
234.368	951.174
236.175	970.971
237.983	964.768
239.79	952.565
241.594	952.361
243.4	954.158
245.206	956.955
247.012	967.752
248.817	985.549
250.622	967.346
252.426	943.143
254.23	970.94
256.034	977.737
257.838	964.534
259.641	982.331
261.444	978.127
263.246	992.924
265.048	1019.72
266.848	993.518
268.649	969.315
270.45	989.112
272.251	964.909
274.051	988.706
275.851	966.503
277.65	987.3
279.447	992.096
281.246	958.893
283.045	1022.69
284.843	1006.49
286.641	991.284
288.436	957.081
290.233	956.878
292.03	971.675
293.827	959.472
295.623	987.269
297.416	972.065
299.212	983.862
301.007	997.659
302.802	978.456
304.594	989.253
306.388	998.05
308.182	992.847
309.973	987.644
311.766	980.441
313.558	1004.24
315.351	982.034
317.14	1003.83
318.932	981.628
320.723	990.425
322.512	993.222
324.303	1037.02
326.093	992.816
327.88	999.613
329.67	994.41
331.459	1004.21
333.246	1036
335.034	991.8
336.822	997.597
338.608	983.394
340.395	972.191
342.18	988.988
343.967	967.785
345.754	992.582
347.538	964.379
349.323	985.176
351.106	975.972
352.891	979.769
354.674	977.566
356.458	984.363
358.24	1008.16
360.024	1009.96
361.805	983.754
363.588	994.551
365.37	993.348
367.151	1006.14
368.933	983.942
370.712	1024.74
372.493	995.535
374.272	993.332
376.05	1001.13
377.831	1017.93
379.608	992.723
381.388	1035.52
383.165	1013.32
384.944	994.114
386.72	994.911
388.498	1027.71
390.274	1028.5
392.049	1045.3
393.826	1019.1
395.601	1019.9
397.377	1027.69
399.151	1001.49
400.925	1026.29
402.7	1036.08
404.473	1026.88
406.246	1040.68
408.02	1006.47
409.792	1043.27
411.566	1006.07
413.337	1027.86
415.108	1018.66
416.881	1023.46
418.651	1048.25
420.421	1023.05
422.19	1039.85
423.961	1042.65
425.73	993.442
427.499	1038.24
429.269	1029.04
431.037	1021.83
432.804	1015.63
434.572	1048.43
436.34	1041.22
438.107	1041.02
439.873	1036.82
441.639	1045.61
443.404	1040.41
445.171	1008.21
446.936	1042.01
448.701	1041.8
450.465	1030.6
452.228	1025.4
453.994	1047.19
455.757	1066.99
457.52	1051.79
459.282	1085.58
461.044	1067.38
462.806	1053.18
464.569	1081.97
466.33	1074.77
468.091	1066.57
469.852	1076.36
471.612	1076.16
473.371	1090.96
475.131	1075.76
476.89	1091.55
478.648	1077.35
480.407	1082.15
482.165	1089.94
483.924	1084.74
485.682	1080.54
487.439	1080.33
489.195	1075.13
490.952	1065.93
492.708	1098.72
494.463	1108.52
496.219	1086.32
497.974	1069.12
499.728	1071.91
501.482	1074.71
503.236	1082.51
504.99	1088.3
506.743	1103.1
508.496	1070.9
510.249	1078.69
512.001	1099.49
513.751	1089.29
515.503	1065.08
517.254	1095.88
519.005	1086.68
520.755	1099.48
522.506	1103.27
524.256	1086.07
526.005	1106.87
527.755	1079.66
529.503	1109.46
531.252	1093.26
532.998	1115.05
534.746	1111.85
536.494	1125.65
538.241	1137.44
539.988	1126.24
541.734	1139.04
543.479	1118.83
545.225	1118.63
546.97	1128.43
548.715	1098.23
550.46	1134.02
552.203	1149.82
553.947	1158.62
555.691	1143.41
557.435	1145.21
559.178	1129.01
560.919	1145.8
562.661	1148.6
564.404	1182.4
566.143	1173.19
567.885	1157.99
569.626	1143.79
571.367	1147.59
573.106	1151.38
574.846	1141.18
576.586	1155.98
578.323	1141.77
580.063	1160.57
581.802	1161.37
583.538	1164.16
585.276	1174.96
587.014	1158.76
588.75	1161.55
590.487	1171.35
592.224	1147.15
593.959	1162.94
595.695	1156.74
597.429	1183.54
599.165	1190.34
600.9	1191.13
602.633	1179.93
604.367	1188.73
606.1	1192.52
607.834	1188.32
609.565	1168.12
611.299	1187.91
613.031	1185.71
614.762	1173.51
616.494	1213.3
618.224	1196.1
619.956	1218.9
621.685	1200.7
623.416	1197.49
625.145	1221.29
626.875	1197.09
628.603	1234.88
630.333	1256.68
632.06	1242.48
633.789	1242.27
635.516	1264.07
637.242	1237.87
638.97	1258.66
640.696	1269.46
642.423	1233.26
644.148	1221.06
645.875	1255.85
647.599	1246.65
649.323	1275.45
651.049	1293.24
652.773	1264.04
654.496	1253.84
656.22	1244.63
657.943	1253.43
659.667	1255.23
661.389	1252.02
663.11	1264.82
664.833	1248.62
666.554	1278.42
668.274	1249.21
669.994	1260.01
671.716	1260.81
673.436	1264.6
675.155	1256.4
676.876	1256.2
678.594	1250.99
680.312	1258.79
682.03	1233.59
683.75	1285.38
685.467	1252.18
687.184	1248.98
688.9	1266.77
690.618	1281.57
692.334	1294.37
694.05	1270.17
695.765	1284.96
697.48	1258.76
699.196	1263.56
700.911	1254.35
702.625	1283.15
704.338	1267.95
706.052	1248.74
707.764	1312.54
709.477	1307.34
711.191	1276.13
712.903	1297.93
714.615	1256.73
716.326	1267.53
718.037	1296.32
719.748	1300.12
721.458	1298.92
723.168	1302.71
724.878	1310.51
726.588	1284.31
728.299	1297.1
730.007	1285.9
731.716	1296.7
733.424	1299.49
735.132	1311.29
736.839	1311.09
738.546	1302.88
740.253	1283.68
741.959	1302.48
743.666	1320.28
745.371	1307.07
747.077	1319.87
748.782	1276.67
750.487	1317.46
752.192	1318.26
753.896	1283.06
755.6	1323.85
757.301	1306.65
759.005	1303.45
760.707	1260.24
762.41	1273.04
764.112	1308.84
765.814	1328.64
767.516	1320.43
769.217	1316.23
770.918	1307.03
772.619	1289.82
774.317	1313.62
776.017	1317.42
777.717	1322.21
779.417	1322.01
781.116	1302.81
782.814	1292.6
784.511	1323.4
786.209	1339.2
787.907	1302.99
789.604	1363.79
791.301	1302.59
792.996	1332.39
794.693	1331.18
796.389	1330.98
798.085	1302.78
799.779	1299.57
801.474	1294.37
803.169	1325.17
804.863	1312.96
806.556	1343.76
808.25	1323.56
809.943	1301.35
811.637	1314.15
813.328	1337.95
815.02	1336.75
816.713	1324.54
818.403	1341.34
820.094	1323.14
821.786	1330.93
823.475	1380.73
825.166	1333.53
826.856	1344.32
828.544	1323.12
830.234	1324.92
831.922	1377.71
833.611	1340.51
835.3	1371.31
836.986	1358.11
838.675	1323.9
840.361	1358.7
842.048	1360.5
843.734	1354.29
845.421	1347.09
847.107	1348.89
848.792	1359.68
850.478	1336.48
852.161	1315.28
853.847	1359.07
855.53	1347.87
857.215	1366.67
858.897	1335.46
860.581	1350.26
862.263	1362.06
863.947	1330.86
865.628	1358.65
867.309	1360.45
868.991	1332.25
870.671	1360.04
872.353	1362.84
874.033	1377.64
875.714	1348.43
877.393	1362.23
879.072	1373.03
880.752	1369.82
882.43	1373.62
884.11	1386.42
885.788	1381.22
887.465	1329.01
889.143	1354.81
890.82	1356.61
892.496	1375.4
894.174	1368.2
895.849	1414
897.525	1378.79
899.202	1374.59
900.876	1367.39
902.55	1335.18
904.226	1373.98
905.9	1342.78
907.573	1367.58
909.246	1358.37
910.921	1391.17
912.594	1382.97
914.266	1379.76
915.938	1361.56
917.611	1375.36
919.282	1361.15
920.953	1400.95
922.623	1383.75
924.294	1361.54
925.966	1393.34
927.635	1393.14
929.304	1408.93
930.973	1381.73
932.642	1363.53
934.31	1394.33
935.98	1392.12
937.648	1418.92
939.316	1382.72
940.983	1403.51
942.649	1414.31
944.316	1402.11
945.982	1433.9
947.648	1399.7
949.314	1397.5
950.981	1435.29
952.646	1438.09
954.31	1406.89
955.975	1404.69
957.639	1457.48
959.302	1411.28
960.966	1414.08
962.629	1425.87
964.292	1411.67
965.954	1405.47
967.616	1422.26
969.278	1407.06
970.939	1431.86
972.601	1426.65
974.262	1425.45
975.922	1418.25
977.582	1408.04
979.242	1414.84
980.902	1407.64
982.561	1418.44
984.219	1430.23
985.877	1398.03
987.536	1430.83
989.194	1411.62
990.852	1448.42
992.509	1458.22
994.166	1433.01
995.823	1477.81
997.48	1410.61
999.134	1441.4
1000.79	1446.2
1002.45	1430
1004.1	1431.8
1005.76	1448.59
1007.41	1431.39
1009.06	1460.19
1010.72	1466.98
1012.37	1436.78
1014.02	1437.58
1015.68	1469.37
1017.33	1464.17
1018.98	1431.97
1020.63	1460.76
1022.29	1467.56
1023.94	1448.36
1025.59	1441.16
1027.24	1441.95
1028.89	1489.75
1030.54	1494.55
1032.19	1431.34
1033.84	1464.14
1035.48	1497.94
1037.13	1484.73
1038.78	1469.53
1040.43	1491.33
1042.08	1474.12
1043.73	1498.92
1045.37	1439.72
1047.02	1479.51
1048.66	1498.31
1050.31	1510.11
1051.96	1496.91
1053.6	1480.7
1055.25	1501.5
1056.89	1489.3
1058.54	1512.09
1060.18	1530.89
1061.82	1520.69
1063.47	1515.48
1065.11	1503.28
1066.75	1541.08
1068.4	1516.87
1070.04	1547.67
1071.68	1517.47
1073.32	1512.27
1074.96	1501.06
1076.6	1521.86
1078.24	1571.66
1079.88	1500.45
1081.52	1557.25
1083.16	1563.05
1084.8	1585.84
1086.44	1563.64
1088.08	1573.44
1089.72	1563.23
1091.36	1565.03
1092.99	1547.83
1094.63	1575.63
1096.27	1573.42
1097.91	1562.22
1099.54	1563.02
1101.18	1541.81
1102.82	1599.61
1104.45	1563.41
1106.08	1599.2
1107.72	1552
1109.35	1577.8
1110.99	1549.59
1112.62	1547.39
1114.26	1561.19
1115.89	1593.98
1117.52	1552.78
1119.16	1563.58
1120.79	1573.38
1122.42	1595.17
1124.05	1578.97
1125.68	1567.77
1127.31	1555.56
1128.94	1562.36
1130.57	1612.16
1132.2	1594.95
1133.83	1575.75
1135.46	1589.55
1137.09	1612.34
1138.72	1588.14
1140.35	1609.94
1141.98	1616.74
1143.61	1607.53
1145.23	1611.33
1146.86	1618.13
1148.49	1620.92
1150.12	1624.72
1151.74	1614.52
1153.37	1629.31
1154.99	1632.11
1156.62	1628.91
1158.24	1624.7
1159.87	1610.5
1161.49	1615.3
1163.12	1642.09
1164.74	1649.89
1166.36	1604.69
1167.99	1652.49
1169.61	1684.28
1171.23	1688.08
1172.86	1658.88
1174.48	1697.67
1176.1	1711.47
1177.72	1697.27
1179.34	1665.06
1180.96	1662.86
1182.58	1720.66
1184.2	1706.45
1185.82	1699.25
1187.44	1727.05
1189.06	1736.85
1190.68	1713.64
1192.3	1658.44
1193.91	1752.24
1195.53	1750.03
1197.15	1710.83
1198.77	1746.63
1200.38	1772.42
1202	1721.22
1203.62	1751.02
1205.23	1787.81
1206.85	1756.61
1208.46	1776.41
1210.08	1764.21
1211.69	1806
1213.31	1738.8
1214.92	1791.6
1216.54	1760.39
1218.15	1770.19
1219.76	1712.99
1221.38	1761.78
1222.99	1756.58
1224.6	1816.38
1226.21	1741.17
1227.82	1784.97
1229.43	1765.77
1231.05	1819.56
1232.66	1809.36
1234.27	1795.16
1235.88	1783.96
1237.49	1838.75
1239.1	1819.55
1240.71	1767.35
1242.31	1759.14
1243.92	1831.94
1245.53	1829.74
1247.14	1810.53
1248.75	1854.33
1250.35	1776.13
1251.96	1790.92
1253.57	1839.72
1255.17	1884.52
1256.78	1842.32
1258.39	1820.11
1259.99	1851.91
1261.6	1853.71
1263.2	1863.5
1264.8	1857.3
1266.41	1864.1
1268.01	1861.89
1269.62	1915.69
1271.22	1910.49
1272.82	1889.28
1274.43	1875.08
1276.03	1914.88
1277.63	1884.67
1279.23	1901.47
1280.83	1917.27
1282.43	1926.07
1284.04	1902.86
1285.64	1913.66
1287.23	1924.46
1288.84	1879.25
1290.43	1914.05
1292.03	1952.85
1293.63	1953.64
1295.23	1941.44
1296.83	1961.24
1298.43	1944.03
1300.03	1953.83
1301.62	1988.63
1303.22	2003.43
1304.82	1983.22
1306.41	1991.02
1308.01	1998.82
1309.61	2010.61
1311.2	1999.41
1312.8	2017.21
1314.39	1976
1315.99	1986.8
1317.58	2006.6
1319.17	2014.39
1320.77	2036.19
1322.36	2005.99
1323.95	1976.79
1325.55	2034.58
1327.14	2029.38
1328.73	2032.18
1330.32	2017.97
1331.92	2050.27
1333.51	2055.57
1335.1	2024.36
1336.69	2042.16
1338.28	2082.96
1339.87	2034.75
1341.46	2074.55
1343.05	2043.35
1344.64	2072.15
1346.23	2022.94
1347.81	2050.74
1349.4	2045.54
1350.99	2013.33
1352.58	2039.13
1354.17	2049.93
1355.75	2039.72
1357.34	2068.52
1358.92	2056.32
1360.51	2019.11
1362.1	2027.91
1363.68	2050.71
1365.27	2068.5
1366.85	2040.3
1368.44	2078.1
1370.02	2101.9
1371.6	2038.69
1373.19	2006.49
1374.77	2065.29
1376.35	2057.08
1377.94	2033.88
1379.52	2044.68
1381.1	2050.47
1382.68	2072.27
1384.27	2051.07
1385.85	2095.86
1387.43	2089.66
1389.01	2083.46
1390.59	2065.26
1392.17	2044.05
1393.75	2046.85
1395.33	2099.65
1396.91	2097.44
1398.49	2041.24
1400.06	2099.04
1401.64	2104.83
1403.22	2097.63
1404.8	2054.43
1406.37	2065.22
1407.95	2117.02
1409.53	2113.82
1411.11	2094.61
1412.68	2091.41
1414.26	2108.21
1415.83	2086.01
1417.41	2114.8
1418.98	2084.6
1420.56	2081.4
1422.13	2136.19
1423.71	2115.99
1425.28	2138.79
1426.85	2131.58
1428.43	2121.38
1430	2116.18
1431.57	2102.97
1433.14	2122.77
1434.72	2162.57
1436.29	2140.37
1437.86	2142.16
1439.43	2123.96
1441	2134.76
1442.57	2135.55
1444.14	2137.35
1445.71	2127.15
1447.28	2107.94
1448.85	2137.74
1450.42	2137.54
1451.99	2145.33
1453.55	2140.13
1455.12	2152.93
1456.69	2141.73
1458.26	2111.52
1459.82	2124.32
1461.39	2110.12
1462.96	2157.91
1464.52	2168.71
1466.09	2171.51
1467.66	2160.3
1469.22	2151.1
1470.79	2159.9
1472.35	2164.69
1473.92	2186.49
1475.48	2153.29
1477.04	2180.08
1478.61	2143.88
1480.17	2157.68
1481.73	2215.48
1483.29	2189.27
1484.86	2174.07
1486.42	2178.87
1487.98	2190.66
1489.54	2210.46
1491.1	2184.26
1492.67	2187.05
1494.23	2240.85
1495.78	2163.65
1497.35	2226.44
1498.91	2219.24
1500.46	2208.04
1502.02	2231.84
1503.58	2221.63
1505.14	2253.43
1506.7	2247.23
1508.26	2246.02
1509.81	2260.82
1511.37	2276.62
1512.93	2271.41
1514.49	2306.21
1516.04	2268.01
1517.6	2296.8
1519.15	2313.6
1520.71	2311.4
1522.26	2306.19
1523.82	2309.99
1525.37	2339.79
1526.93	2358.59
1528.48	2346.38
1530.04	2328.18
1531.59	2390.98
1533.14	2349.77
1534.69	2382.57
1536.25	2364.37
1537.8	2373.16
1539.35	2367.96
1540.9	2354.76
1542.46	2366.55
1544.01	2403.35
1545.56	2397.15
1547.11	2364.95
1548.66	2437.74
1550.21	2404.54
1551.76	2435.34
1553.31	2421.13
1554.86	2441.93
1556.4	2371.73
1557.95	2418.52
1559.5	2399.32
1561.05	2413.12
1562.6	2396.91
1564.14	2447.71
1565.69	2431.51
1567.24	2429.3
1568.78	2434.1
1570.33	2430.9
1571.87	2428.7
1573.42	2382.49
1574.96	2382.29
1576.51	2413.09
1578.05	2429.88
1579.6	2388.68
1581.14	2414.48
1582.69	2420.27
1584.23	2412.07
1585.77	2366.87
1587.32	2385.66
1588.86	2393.46
1590.4	2385.26
1591.94	2387.06
1593.48	2400.85
1595.03	2371.65
1596.57	2407.45
1598.11	2371.24
1599.65	2357.04
1601.19	2368.84
1602.73	2384.63
1604.27	2328.43
1605.81	2319.23
1607.35	2348.02
1608.89	2342.82
1610.42	2274.62
1611.96	2338.42
1613.5	2297.21
1615.04	2282.01
1616.57	2248.81
1618.11	2262.6
1619.65	2240.4
1621.18	2220.2
1622.72	2283.99
1624.26	2231.79
1625.79	2218.59
1627.33	2223.38
1628.86	2175.18
1630.4	2218.98
1631.93	2235.77
1633.47	2211.57
1635	2217.37
1636.53	2193.17
1638.07	2154.96
1639.6	2189.76
1641.13	2151.56
1642.66	2180.35
1644.2	2123.15
1645.73	2135.95
1647.26	2121.44
1648.79	2149.22
1650.32	2153.95
1651.85	2146.58
1653.38	2092.94
1654.91	2105.95
1656.44	2109.83
1657.97	2089.82
1659.5	2095.42
1661.03	2102.71
1662.56	2101.44
1664.09	2079.84
1665.62	2067.04
1667.14	2062.2
1668.67	2052.4
1670.2	2078.16
1671.72	2052.05
1673.25	2063.21
1674.78	2060.53
1676.3	2064.4
1677.83	2066.69
1679.35	2098.48
1680.88	2037.93
1682.41	2057.5
1683.93	2052.77
1685.45	2044.83
1686.98	2062.19
1688.5	2038.91
1690.03	2029.83
1691.55	2044.47
1693.07	2031.63
1694.59	2025.92
1696.12	2005.46
1697.64	2028.12
1699.16	2012.49
1700.68	2032.53
1702.2	2001.28
1703.72	2038.83
1705.24	2018.85
1706.76	2024.16
1708.28	2005.02
1709.8	2050.72
1711.32	2033.2
1712.84	2002.75
1714.36	2024.86
1715.88	2001.64
1717.4	2022.63
1718.92	2023.86
1720.43	1996.98
1721.95	1981.79
1723.47	2017.92
1724.98	2027.06
1726.5	1980.03
1728.02	2002.57
1729.53	1993.27
1731.05	2004.57
1732.56	2008.33
1734.08	1979.25
1735.59	2003.1
1737.11	1987.52
1738.62	1984.92
1740.14	2001.87
1741.65	1988.7
1743.16	1999.47
1744.68	1984.28
1746.19	1986.24
1747.7	2001.04
1749.21	1959.18
1750.73	1965.86
1752.24	1981.03
1753.75	1992.88
1755.26	1999.92
1756.77	1977.35
1758.28	2018.56
1759.79	1982.86
1761.3	1972.91
1762.81	1991.34
1764.32	2017.18
1765.83	2003.67
1767.34	1982.67
1768.85	1993.16
1770.36	2000.17
1771.87	1989.4
1773.37	1999.6
1774.88	1998.18
1776.39	1970.08
1777.9	2001.12
1779.4	2010.27
1780.91	1976.96
1782.41	1993.67
1783.92	2001.36
1785.42	2008.09
1786.93	2015.16
1788.43	2000.72
1789.94	2001.14
1791.44	2027.2
1792.95	2022.13
1794.45	2013.58
1795.95	1994.1
1797.46	2006.92
1798.96	2020.62
1799.54	2018.44
1801.05	2003.34
1802.56	1997.24
1804.06	2045.14
1805.57	1983.04
1807.08	2018.94
1808.59	1994.84
1810.1	2035.74
1811.6	2008.64
1813.11	1982.54
1814.62	1994.44
1816.12	1994.34
1817.63	2004.24
1819.14	2037.14
1820.64	1998.04
1822.15	2003.94
1823.65	2025.84
1825.16	2077.75
1826.66	1979.65
1828.17	2011.55
1829.67	2030.45
1831.17	2032.35
1832.68	2018.25
1834.18	2048.15
1835.68	2023.05
1837.19	2044.95
1838.69	2022.85
1840.19	2042.75
1841.69	2025.65
1843.19	1964.55
1844.7	2046.45
1846.2	2020.35
1847.7	2055.25
1849.2	2038.15
1850.7	2018.05
1852.2	2039.95
1853.7	2017.85
1855.2	2044.75
1856.69	2029.66
1858.19	1983.56
1859.69	2024.46
1861.19	2020.36
1862.69	2019.26
1864.19	2049.16
1865.68	2040.06
1867.18	2005.96
1868.68	2018.86
1870.17	2032.76
1871.67	2004.66
1873.16	2008.56
1874.66	2027.46
1876.15	2034.36
1877.65	2008.26
1879.14	1996.16
1880.64	2063.06
1882.13	2037.96
1883.63	2061.86
1885.12	2034.76
1886.61	2033.66
1888.11	2025.56
1889.6	2029.47
1891.09	2057.37
1892.59	2025.42
1894.08	2049.47
1895.57	2013.51
1897.06	2035.56
1898.55	2017.61
1900.04	2048.66
1901.53	2061.71
1903.02	2072.76
1904.51	2045.81
1906	2050.86
1907.49	2017.91
1908.98	2111.96
1910.47	2065.01
1911.96	2038.06
1913.45	2052.11
1914.94	2058.16
1916.43	2068.21
1917.91	2117.26
1919.4	2040.31
1920.89	2068.36
1922.37	2094.41
1923.86	2092.46
1925.35	2128.51
1926.83	2109.56
1928.32	2090.61
1929.8	2119.66
1931.29	2084.71
1932.77	2107.76
1934.26	2101.81
1935.74	2104.86
1937.23	2100.91
1938.71	2078.96
1940.2	2079.01
1941.68	2101.06
1943.16	2089.11
1944.64	2083.16
1946.13	2099.21
1947.61	2115.25
1949.09	2109.3
1950.57	2091.35
1952.05	2079.4
1953.53	2095.45
1955.02	2123.5
1956.49	2075.55
1957.98	2101.6
1959.46	2111.65
1960.93	2123.7
1962.41	2100.75
1963.89	2049.8
1965.37	2113.85
1966.85	2141.9
1968.33	2059.95
1969.81	2062
1971.29	2105.05
1972.76	2109.1
1974.24	2094.15
1975.72	2088.2
1977.19	2054.25
1978.67	2102.3
1980.15	2122.35
1981.62	2104.4
1983.1	2129.45
1984.57	2082.5
1986.05	2139.55
1987.52	2088.6
1989	2118.65
1990.47	2113.7
1991.95	2132.75
1993.42	2068.8
1994.89	2086.85
1996.37	2125.9
1997.84	2084.94
1999.31	2105.99
2000.78	2087.04
2002.26	2120.09
2003.73	2107.14
2005.2	2103.19
2006.67	2152.24
2008.14	2079.29
2009.61	2105.34
2011.08	2097.39
2012.55	2153.44
2014.02	2157.49
2015.49	2136.54
2016.96	2116.59
2018.43	2100.64
2019.9	2147.69
2021.37	2081.74
2022.84	2101.79
2024.3	2135.84
2025.77	2139.89
2027.24	2113.94
2028.71	2109.99
2030.17	2096.04
2031.64	2078.09
2033.11	2127.14
2034.57	2122.19
2036.04	2120.24
2037.51	2152.29
2038.97	2150.34
2040.44	2127.39
2041.9	2104.44
2043.37	2159.49
2044.83	2137.54
2046.29	2133.58
2047.76	2130.63
2049.22	2148.68
2050.68	2173.73
2052.15	2174.78
2053.61	2171.83
2055.07	2179.88
2056.53	2174.93
2058	2172.98
2059.46	2140.03
2060.92	2139.08
2062.38	2151.13
2063.84	2121.18
2065.3	2107.23
2066.76	2188.28
2068.22	2151.33
2069.68	2193.38
2071.14	2125.43
2072.6	2127.48
2074.06	2186.53
2075.52	2125.58
2076.98	2166.63
2078.43	2158.68
2079.89	2143.73
2081.35	2173.78
2082.81	2182.83
2084.26	2150.88
2085.72	2149.93
2087.18	2124.98
2088.63	2167.03
2090.09	2135.08
2091.54	2188.13
2093	2178.18
2094.45	2115.23
2095.91	2150.28
2097.36	2102.32
2098.82	2156.37
2100.27	2112.42
2101.73	2118.47
2103.18	2160.52
2104.63	2118.57
2106.09	2165.62
2107.54	2144.67
2108.99	2166.72
2110.44	2145.77
2111.9	2142.82
2113.35	2114.87
2114.8	2176.92
2116.25	2147.97
2117.7	2149.02
2119.15	2147.07
2120.6	2146.12
2122.05	2130.17
2123.5	2170.22
2124.95	2174.27
2126.4	2133.32
2127.85	2115.37
2129.3	2177.42
2130.75	2129.47
2132.19	2126.52
2133.64	2180.57
2135.09	2193.62
2136.54	2175.67
2137.99	2166.72
2139.43	2163.77
2140.88	2119.82
2142.33	2159.87
2143.77	2179.92
2145.22	2171.97
2146.66	2152.01
2148.11	2143.06
2149.55	2168.11
2151	2221.16
2152.44	2179.21
2153.89	2158.26
2155.33	2178.31
2156.77	2178.36
2158.22	2202.41
2159.66	2158.46
2161.1	2192.51
2162.55	2189.56
2163.99	2206.61
2165.43	2180.66
2166.88	2188.71
2168.32	2179.76
2169.76	2264.81
2171.2	2170.86
2172.64	2185.91
2174.08	2196.96
2175.52	2209.01
2176.96	2175.06
2178.4	2237.11
2179.84	2189.16
2181.28	2209.21
2182.72	2181.26
2184.16	2171.31
2185.6	2204.36
2187.03	2231.41
2188.47	2213.46
2189.91	2143.51
2191.35	2200.56
2192.78	2226.61
2194.22	2222.66
2195.66	2198.7
2197.09	2205.75
2198.53	2209.8
2199.97	2201.85
2201.4	2205.9
2202.84	2198.95
2204.27	2182
2205.71	2202.05
2207.14	2194.1
2208.58	2213.15
2210.01	2241.2
2211.44	2170.25
2212.88	2177.3
2214.31	2212.35
2215.74	2200.4
2217.18	2252.45
2218.61	2158.5
2220.04	2158.55
2221.47	2175.6
2222.91	2188.65
2224.34	2158.7
2225.77	2172.75
2227.2	2196.8
2228.63	2146.85
2230.06	2172.9
2231.49	2192.95
2232.92	2143
2234.35	2137.05
2235.78	2193.1
2237.21	2166.15
2238.64	2161.2
2240.07	2170.25
2241.49	2161.3
2242.92	2194.34
2244.35	2143.39
2245.78	2154.44
2247.2	2169.49
2248.63	2163.54
2250.06	2185.59
2251.49	2158.64
2252.91	2099.69
2254.34	2152.74
2255.76	2163.79
2257.19	2161.84
2258.61	2157.89
2260.04	2193.94
2261.46	2135.99
2262.89	2152.04
2264.31	2163.09
2265.74	2173.14
2267.16	2154.19
2268.58	2156.24
2270.01	2138.29
2271.43	2186.34
2272.85	2152.39
2274.27	2156.44
2275.7	2114.49
2277.12	2160.54
2278.54	2153.59
2279.96	2188.64
2281.38	2162.69
2282.8	2130.74
2284.22	2158.79
2285.64	2162.84
2287.06	2201.89
2288.48	2166.94
2289.9	2166.99
2291.32	2194.03
2292.74	2179.08
2294.16	2203.13
2295.58	2169.18
2297	2170.23
2298.41	2199.28
2299.83	2172.33
2301.25	2202.38
2302.67	2167.43
2304.09	2222.48
2305.5	2157.53
2306.92	2204.58
2308.33	2167.63
2309.75	2224.68
2311.17	2163.73
2312.58	2223.78
2314	2232.83
2315.41	2197.88
2316.83	2218.93
2318.24	2195.98
2319.66	2243.03
2321.07	2210.08
2322.48	2206.13
2323.9	2221.18
2325.31	2171.23
2326.72	2240.28
2328.13	2260.33
2329.55	2270.38
2330.96	2256.43
2332.37	2210.48
2333.78	2212.53
2335.19	2203.58
2336.6	2233.63
2338.02	2221.68
2339.43	2228.72
2340.84	2206.77
2342.25	2224.82
2343.66	2238.87
2345.07	2248.92
2346.47	2244.97
2347.88	2271.02
2349.29	2181.07
2350.7	2215.12
2352.11	2155.17
2353.52	2211.22
2354.93	2218.27
2356.33	2207.32
2357.74	2223.37
2359.15	2213.42
2360.55	2233.47
2361.96	2175.52
2363.37	2193.57
2364.77	2179.62
2366.18	2251.67
2367.58	2209.72
2368.99	2242.77
2370.39	2230.82
2371.8	2189.87
2373.2	2184.92
2374.61	2233.97
2376.01	2211.02
2377.42	2210.07
2378.82	2203.12
2380.22	2238.17
2381.63	2240.22
2383.03	2208.27
2384.43	2172.32
2385.83	2206.37
2387.23	2186.42
2388.64	2188.46
2390.04	2204.51
2391.44	2219.56
2392.84	2224.61
2394.24	2204.66
2395.64	2189.71
2397.04	2202.76
2398.44	2206.81
2399.84	2239.86
2401.24	2235.91
2402.64	2211.96
2404.04	2176.01
2405.44	2209.06
2406.83	2177.11
2408.23	2177.16
2409.63	2201.21
2411.03	2199.26
2412.43	2212.31
2413.82	2197.36
2415.22	2195.41
2416.62	2253.46
2418.01	2213.51
2419.41	2249.56
2420.81	2209.61
2422.2	2257.66
2423.6	2207.71
2424.99	2195.76
2426.39	2213.81
2427.78	2253.86
2429.18	2244.91
2430.57	2243.96
2431.96	2282.01
2433.36	2216.06
2434.75	2263.1
2436.14	2192.15
2437.54	2269.2
2438.93	2242.25
2440.32	2270.3
2441.71	2263.35
2443.11	2222.4
2444.5	2258.45
2445.89	2254.5
2447.28	2276.55
2448.67	2222.6
2450.06	2262.65
2451.45	2280.7
2452.84	2226.75
2454.23	2279.8
2455.62	2298.85
2457.01	2289.9
2458.4	2300.95
2459.79	2290
2461.18	2286.05
2462.57	2285.1
2463.95	2277.15
2465.34	2326.2
2466.73	2312.25
2468.12	2312.3
2469.5	2328.35
2470.89	2274.4
2472.28	2327.45
2473.66	2359.5
2475.05	2251.55
2476.44	2295.6
2477.82	2291.65
2479.21	2315.7
2480.59	2349.75
2481.98	2283.79
2483.36	2298.84
2484.75	2281.89
2486.13	2345.94
2487.51	2311.99
2488.9	2365.04
2490.28	2316.09
2491.66	2373.14
2493.05	2320.19
2494.43	2320.24
2495.81	2347.29
2497.19	2272.34
2498.58	2342.39
2499.96	2292.44
2501.34	2355.49
2502.72	2282.54
2504.1	2339.59
2505.48	2304.64
2506.86	2334.69
2508.24	2260.74
2509.62	2342.79
2511	2303.84
2512.38	2310.89
2513.76	2336.94
2515.14	2324.99
2516.52	2312.04
2517.9	2275.09
2519.28	2329.14
2520.65	2303.19
2522.03	2285.24
2523.41	2289.29
2524.79	2308.34
2526.16	2331.39
2527.54	2335.44
2528.92	2325.49
2530.29	2293.53
2531.67	2301.58
2533.04	2279.63
2534.42	2303.68
2535.8	2295.73
2537.17	2330.78
2538.54	2310.83
2539.92	2302.88
2541.29	2287.93
2542.67	2312.98
2544.04	2313.03
2545.41	2295.08
2546.79	2290.13
2548.16	2348.18
2549.53	2304.23
2550.91	2364.28
2552.28	2304.33
2553.65	2304.38
2555.02	2286.43
2556.39	2318.48
2557.77	2350.53
2559.14	2327.58
2560.51	2314.63
2561.88	2358.68
2563.25	2368.73
2564.62	2280.78
2565.99	2316.83
2567.36	2326.88
2568.73	2344.93
2570.1	2329.98
2571.47	2311.03
2572.83	2341.08
2574.2	2378.13
2575.57	2376.18
2576.94	2313.22
2578.31	2341.27
2579.67	2339.32
2581.04	2351.37
2582.41	2337.42
2583.77	2398.47
2585.14	2329.52
2586.51	2382.57
2587.87	2385.62
2589.24	2351.67
2590.6	2343.72
2591.97	2369.77
2593.33	2357.82
2594.7	2409.87
2596.06	2363.92
2597.43	2390.97
2598.79	2376.02
2600.15	2430.07
2601.52	2394.12
2602.88	2366.17
2604.24	2380.22
2605.61	2414.27
2606.97	2400.32
2608.33	2402.37
2609.7	2422.42
2611.06	2419.47
2612.42	2428.52
2613.78	2409.57
2615.14	2465.62
2616.5	2421.67
2617.86	2436.72
2619.22	2414.77
2620.58	2436.82
2621.94	2432.86
2623.3	2434.91
2624.66	2432.96
2626.02	2463.01
2627.38	2457.06
2628.74	2389.11
2630.1	2423.16
2631.45	2435.21
2632.81	2445.26
2634.17	2427.31
2635.53	2419.36
2636.88	2453.41
2638.24	2462.46
2639.6	2466.51
2640.96	2463.56
2642.31	2455.61
2643.67	2425.66
2645.02	2439.71
2646.38	2489.76
2647.73	2459.81
2649.09	2473.86
2650.44	2470.91
2651.8	2435.96
2653.15	2434.01
2654.51	2480.06
2655.86	2474.11
2657.21	2476.16
2658.57	2471.21
2659.92	2450.26
2661.27	2494.31
2662.63	2406.36
2663.98	2480.41
2665.33	2484.46
2666.68	2418.5
2668.03	2404.56
2669.38	2446.6
2670.74	2482.65
2672.09	2481.7
2673.44	2481.75
2674.79	2449.8
2676.14	2456.85
2677.49	2507.9
2678.84	2478.95
2680.19	2473
2681.54	2465.05
2682.89	2459.1
2684.23	2506.15
2685.58	2476.7
2686.93	2433.25
2688.28	2482.3
2689.63	2477.35
2690.98	2489.4
2692.32	2477.45
2693.67	2471.5
2695.02	2465.55
2696.36	2529.6
2697.71	2483.65
2699.05	2485.7
2700.4	2505.75
2701.75	2478.8
2703.09	2495.85
2704.44	2543.9
2705.78	2423.95
2707.13	2502
2708.47	2474.05
2709.82	2506.1
2711.16	2464.15
2712.5	2452.2
2713.85	2508.25
2715.19	2498.29
2716.53	2517.34
2717.88	2492.39
2719.22	2480.44
2720.56	2492.49
2721.9	2484.54
2723.25	2472.59
2724.59	2475.64
2725.93	2496.69
2727.27	2468.74
2728.61	2511.79
2729.95	2500.84
2731.29	2486.89
2732.63	2494.94
2733.97	2500.99
2735.31	2523.04
2736.65	2512.09
2737.99	2501.14
2739.33	2508.19
2740.67	2535.24
2742.01	2477.29
2743.35	2540.34
2744.68	2534.39
2746.02	2546.44
2747.36	2531.49
2748.7	2561.54
2750.03	2493.59
2751.37	2567.64
2752.71	2569.69
2754.04	2516.74
2755.38	2566.79
2756.71	2582.84
2758.05	2564.89
2759.39	2591.94
2760.72	2579.98
2762.06	2520.03
2763.39	2554.08
2764.72	2554.13
2766.06	2542.18
2767.39	2580.23
2768.73	2582.28
2770.06	2568.33
2771.39	2574.38
2772.73	2572.43
2774.06	2556.48
2775.39	2598.53
2776.72	2592.58
2778.06	2622.63
2779.39	2585.68
2780.72	2624.73
2782.05	2658.78
2783.38	2608.83
2784.72	2600.88
2786.04	2632.93
2787.38	2566.98
2788.71	2589.03
2790.04	2663.08
2791.37	2611.13
2792.7	2626.18
2794.03	2556.23
2795.35	2616.28
2796.68	2589.33
2798.01	2621.38
2799.34	2616.43
2800.67	2576.48
2802	2603.53
2803.32	2561.58
2804.65	2561.63
2805.98	2645.67
2807.3	2589.72
2808.63	2547.77
2809.96	2581.82
2811.29	2611.87
2812.61	2627.92
2813.94	2641.97
2815.26	2638.02
2816.59	2640.07
2817.91	2644.12
2819.24	2648.17
2820.56	2690.22
2821.89	2620.27
2823.21	2627.32
2824.53	2624.37
2825.86	2613.42
2827.18	2642.47
2828.5	2648.52
2829.83	2641.57
2831.15	2582.62
2832.47	2626.67
2833.79	2564.72
2835.12	2634.77
2836.44	2615.82
2837.76	2593.87
2839.08	2602.92
2840.4	2618.97
2841.73	2551.02
2843.04	2653.07
2844.37	2645.12
2845.69	2599.17
2847.01	2653.22
2848.33	2661.27
2849.65	2637.32
2850.96	2643.36
2852.28	2659.41
2853.6	2688.46
2854.92	2619.51
2856.24	2627.56
2857.56	2660.61
2858.87	2611.66
2860.19	2678.71
2861.51	2665.76
2862.83	2712.81
2864.14	2708.86
2865.46	2658.91
2866.78	2677.96
2868.09	2658.01
2869.41	2685.06
2870.73	2654.11
2872.04	2672.16
2873.36	2676.21
2874.67	2646.26
2875.99	2668.31
2877.3	2632.36
2878.62	2678.41
2879.93	2688.46
2881.24	2670.51
2882.56	2700.56
2883.87	2677.61
2885.18	2707.66
2886.5	2669.71
2887.81	2652.76
2889.12	2691.81
2890.43	2681.86
2891.75	2644.91
2893.06	2672.96
2894.37	2700
2895.68	2699.05
2896.99	2681.1
2898.3	2665.15
2899.61	2695.2
2900.93	2663.25
2902.24	2724.3
2903.55	2651.35
2904.86	2709.4
2906.17	2689.45
2907.48	2697.5
2908.78	2733.55
2910.09	2753.6
2911.4	2651.65
2912.71	2715.7
2914.02	2705.75
2915.33	2735.8
2916.63	2665.85
2917.94	2705.9
2919.25	2731.95
2920.56	2700
2921.86	2733.05
2923.17	2724.1
2924.48	2700.15
2925.78	2701.2
2927.09	2734.25
2928.39	2690.3
2929.7	2716.35
2931	2660.4
2932.31	2724.45
2933.61	2692.5
2934.92	2703.55
2936.22	2730.6
2937.53	2718.65
2938.83	2686.69
2940.13	2712.74
2941.44	2715.79
2942.74	2704.84
2944.04	2678.89
2945.35	2724.94
2946.65	2678.99
2947.95	2679.04
2949.25	2689.09
2950.55	2723.14
2951.86	2721.19
2953.16	2748.05
2954.46	2703.04
2955.76	2665.82
2957.06	2734.51
2958.36	2688.5
2959.66	2674.61
2960.96	2691.42
2962.26	2718.14
2963.56	2688.46
2964.86	2646.1
2966.16	2708.48
2967.46	2743.2
2968.76	2704.73
2970.05	2705.9
2971.35	2693.5
2972.65	2703.5
2973.95	2702.3
2975.24	2734.18
2976.54	2724.16
2977.84	2723.15
2979.14	2667.7
2980.43	2732.67
2981.73	2699.93
2983.02	2691.52
2984.32	2729.55
2985.62	2699.81
2986.91	2737.14
2988.21	2709.06
2989.5	2731.29
2990.8	2715.08
2992.09	2723.29
2993.39	2732.63
2994.68	2721.11
2995.97	2705.71
2997.27	2733.54
2998.56	2725.3
2999.85	2721.14
3001.15	2705.21
3002.44	2731.96
3003.73	2705.83
3005.02	2726.19
3006.32	2663.67
3007.61	2696.95
3008.9	2725.64
3010.19	2711.17
3011.48	2756.09
3012.77	2733.78
3014.06	2724.45
3015.35	2753.69
3016.64	2767.23
3017.93	2755.94
3019.22	2715.7
3020.51	2757.27
3021.8	2711.28
3023.09	2731.05
3024.38	2745.98
3025.67	2743.48
3026.96	2778.07
3028.25	2747.88
3029.53	2742.27
3030.82	2751.49
3032.11	2741.88
3033.4	2749.19
3034.68	2730.96
3035.97	2744.84
3037.26	2717.64
3038.54	2740.04
3039.83	2770.95
3041.12	2767.83
3042.4	2727.57
3043.69	2738.06
3044.97	2766.65
3046.26	2725.7
3047.54	2734.7
3048.83	2779.94
3050.11	2760.72
3051.4	2783.53
3052.68	2752.52
3053.96	2735.2
3055.25	2736.5
3056.53	2756.86
3057.81	2724.51
3059.1	2757.81
3060.38	2749.32
3061.66	2789.32
3062.94	2742.96
3064.23	2730.69
3065.51	2693.18
3066.79	2739.31
3068.07	2733.14
3069.35	2717.66
3070.63	2757.44
3071.91	2789.62
3073.19	2803.04
3074.47	2722.5
3075.75	2765.63
3077.03	2742.43
3078.31	2737.71
3079.59	2739.15
3080.87	2759.65
3082.15	2737.58
3082.23	2735.96
3083.52	2740.99
3084.8	2713.02
3086.08	2746.06
3087.37	2784.09
3088.65	2777.12
3089.94	2739.16
3091.22	2793.19
3092.5	2755.22
3093.79	2784.26
3095.07	2784.29
3096.35	2757.32
3097.63	2768.36
3098.92	2723.39
3100.2	2737.42
3101.48	2792.46
3102.76	2691.49
3104.04	2778.52
3105.32	2765.56
3106.6	2765.59
3107.88	2753.62
3109.16	2776.66
3110.44	2788.69
3111.72	2767.72
3113	2789.76
3114.28	2737.79
3115.56	2719.82
3116.84	2772.86
3118.12	2733.89
3119.4	2767.92
3120.67	2751.96
3121.95	2773.99
3123.23	2790.02
3124.51	2783.06
3125.79	2789.09
3127.06	2784.12
3128.34	2815.16
3129.62	2781.19
3130.89	2786.22
3132.17	2866.26
3133.44	2772.29
3134.72	2773.32
3136	2790.36
3137.27	2838.39
3138.55	2768.42
3139.82	2829.46
3141.1	2831.49
3142.37	2802.52
3143.65	2738.56
3144.92	2797.59
3146.19	2814.62
3147.47	2784.66
3148.74	2795.69
3150.01	2766.72
3151.29	2794.76
3152.56	2814.79
3153.83	2749.82
3155.1	2813.86
3156.38	2808.89
3157.65	2793.92
3158.92	2825.96
3160.19	2768.99
3161.46	2766.03
3162.73	2817.06
3164	2770.09
3165.28	2816.13
3166.54	2789.16
3167.81	2791.19
3169.09	2802.23
3170.35	2765.26
3171.62	2835.29
3172.89	2869.33
3174.16	2811.36
3175.43	2725.39
3176.7	2813.43
3177.97	2841.46
3179.24	2774.49
3180.5	2817.53
3181.77	2773.56
3183.04	2806.59
3184.31	2846.63
3185.57	2808.66
3186.84	2769.69
3188.11	2822.73
3189.38	2756.76
3190.64	2840.79
3191.91	2800.83
3193.17	2769.86
3194.44	2786.89
3195.7	2755.93
3196.97	2813.96
3198.23	2792.99
3199.5	2763.03
3200.76	2803.06
3202.03	2754.09
3203.29	2761.13
3204.55	2774.16
3205.82	2771.19
3207.08	2710.23
3208.35	2804.26
3209.61	2760.29
3210.87	2760.33
3212.13	2811.36
3213.4	2768.39
3214.66	2764.43
3215.92	2782.46
3217.18	2751.49
3218.44	2747.53
3219.7	2763.56
3220.97	2718.59
3222.23	2724.63
3223.49	2744.66
3224.75	2758.69
3226.01	2738.73
3227.27	2780.76
3228.53	2739.79
3229.79	2744.83
3231.05	2790.86
3232.31	2756.89
3233.56	2783.93
3234.82	2736.96
3236.08	2738
3237.34	2740.03
3238.6	2739.06
3239.86	2767.1
3241.11	2753.13
3242.37	2685.16
3243.63	2731.2
3244.88	2782.23
3246.14	2733.26
3247.4	2758.3
3248.65	2734.33
3249.91	2703.36
3251.17	2779.4
3252.42	2745.43
3253.68	2739.46
3254.93	2777.5
3256.19	2746.53
3257.44	2714.56
3258.7	2745.6
3259.95	2763.63
3261.21	2780.66
3262.46	2776.7
3263.71	2751.73
3264.97	2705.76
3266.22	2761.8
3267.47	2739.83
3268.73	2774.86
3269.98	2744.9
3271.23	2743.93
3272.48	2772.96
3273.74	2749
3274.99	2738.03
3276.24	2739.06
3277.49	2754.1
3278.74	2764.13
3279.99	2776.16
3281.24	2775.2
3282.49	2727.23
3283.74	2756.26
3284.99	2739.3
3286.24	2720.33
3287.49	2819.36
3288.74	2766.4
3289.99	2720.43
3291.24	2807.46
3292.49	2760.5
3293.74	2724.53
3294.99	2770.56
3296.23	2779.6
3297.48	2770.63
3298.73	2780.66
3299.98	2813.7
3301.23	2816.73
3302.47	2812.76
3303.72	2716.8
3304.97	2708.83
3306.21	2776.86
3307.46	2786.9
3308.71	2739.93
3309.95	2776.96
3311.2	2781
3312.44	2783.03
3313.69	2812.06
3314.93	2756.1
3316.18	2776.13
3317.42	2767.17
3318.67	2810.2
3319.91	2731.23
3321.15	2762.27
3322.4	2808.3
3323.64	2827.33
3324.88	2763.37
3326.13	2792.4
3327.37	2805.43
3328.61	2831.47
3329.86	2795.5
3331.1	2782.53
3332.34	2777.57
3333.58	2815.6
3334.82	2801.63
3336.07	2773.67
3337.31	2775.7
3338.55	2756.73
3339.79	2767.77
3341.03	2763.8
3342.27	2788.83
3343.51	2803.87
3344.75	2746.9
3345.99	2766.93
3347.23	2771.97
3348.47	2760
3349.71	2763.03
3350.95	2770.07
3352.18	2750.1
3353.42	2772.13
3354.66	2762.17
3355.9	2735.2
3357.14	2736.23
3358.38	2696.27
3359.61	2756.3
3360.85	2715.33
3362.09	2724.37
3363.32	2780.4
3364.56	2734.43
3365.8	2753.47
3367.03	2760.5
3368.27	2716.53
3369.5	2725.57
3370.74	2753.6
3371.98	2737.63
3373.21	2740.67
3374.45	2758.7
3375.68	2768.73
3376.91	2746.77
3378.15	2781.8
3379.38	2718.83
3380.62	2767.87
3381.85	2753.9
3383.08	2715.93
3384.32	2710.97
3385.55	2703
3386.78	2729.03
3388.02	2745.07
3389.25	2717.1
3390.48	2694.13
3391.71	2720.17
3392.94	2760.2
3394.17	2730.23
3395.41	2733.27
3396.64	2739.3
3397.87	2761.34
3399.1	2747.37
3400.33	2740.4
3401.56	2710.44
3402.79	2752.47
3404.02	2699.5
3405.25	2741.54
3406.48	2710.57
3407.71	2758.6
3408.94	2710.64
3410.17	2779.67
3411.4	2765.7
3412.62	2791.74
3413.85	2762.77
3415.08	2787.8
3416.31	2735.84
3417.54	2769.87
3418.76	2716.9
3419.99	2789.94
3421.22	2758.97
3422.44	2750
3423.67	2754.04
3424.9	2773.07
3426.12	2780.1
3427.35	2773.14
3428.57	2768.17
3429.8	2764.2
3431.02	2756.24
3432.25	2784.27
3433.48	2769.3
3434.7	2744.34
3435.92	2785.37
3437.15	2750.4
3438.37	2835.44
3439.6	2698.47
3440.82	2757.5
3442.04	2814.54
3443.27	2809.57
3444.49	2784.6
3445.71	2776.64
3446.94	2802.67
3448.16	2788.7
3449.38	2782.74
3450.6	2824.77
3451.82	2790.8
3453.05	2798.84
3454.27	2824.87
3455.49	2772.9
3456.71	2802.94
3457.93	2809.97
3459.15	2791
3460.37	2798.04
3461.59	2812.07
3462.81	2773.1
3464.03	2824.14
3465.25	2825.17
3466.47	2817.2
3467.69	2794.24
3468.91	2807.27
3470.13	2840.3
3471.34	2789.34
3472.56	2850.37
3473.78	2826.41
3475	2811.44
3476.22	2785.47
3477.43	2900.51
3478.65	2808.54
3479.87	2823.57
3481.08	2788.61
3482.3	2838.64
3483.52	2825.67
3484.73	2796.71
3485.95	2783.74
3487.17	2814.77
3488.38	2803.81
3489.6	2802.84
3490.81	2790.87
3492.03	2823.91
3493.24	2823.94
3494.46	2784.97
3495.67	2772.01
3496.89	2762.04
3498.1	2802.07
3499.31	2781.11
3500.53	2774.14
3501.74	2782.17
3502.95	2787.21
3504.17	2771.24
3505.38	2782.27
3506.59	2772.31
3507.8	2750.34
3509.02	2773.37
3510.23	2760.41
3511.44	2800.44
3512.65	2764.47
3513.86	2756.51
3515.07	2741.54
3516.29	2748.57
3517.5	2752.61
3518.71	2734.64
3519.92	2761.67
3521.13	2692.71
3522.34	2732.74
3523.55	2737.77
3524.76	2729.81
3525.96	2734.84
3527.17	2700.87
3528.38	2729.91
3529.59	2696.94
3530.8	2727.97
3532.01	2686.01
3533.22	2702.04
3534.42	2714.07
3535.63	2728.11
3536.84	2703.14
3538.05	2702.17
3539.25	2717.21
3540.46	2698.24
3541.67	2663.27
3542.87	2737.31
3544.08	2759.34
3545.29	2726.37
3546.49	2674.41
3547.7	2691.44
3548.9	2649.48
3550.11	2741.51
3551.31	2712.54
3552.52	2715.58
3553.72	2689.61
3554.93	2714.64
3556.13	2727.68
3557.34	2705.71
3558.54	2739.74
3559.74	2707.78
3560.95	2725.81
3562.15	2691.84
3563.35	2743.88
3564.56	2701.91
3565.76	2704.94
3566.96	2697.98
3568.16	2712.01
3569.36	2718.04
3570.57	2761.08
3571.77	2777.11
3572.97	2739.14
3574.17	2722.18
3575.37	2737.21
3576.57	2733.24
3577.77	2718.28
3578.97	2740.31
3580.17	2738.34
3581.37	2748.38
3582.57	2770.41
3583.77	2785.44
3584.97	2740.48
3586.17	2726.51
3587.37	2771.54
3588.57	2784.58
3589.77	2779.61
3590.97	2751.64
3592.17	2808.68
3593.36	2821.71
3594.56	2772.74
3595.76	2786.78
3596.96	2734.81
3598.15	2743.84
3599.35	2824.88
3600.55	2782.91
3601.74	2753.94
3602.94	2708.98
3604.14	2758.01
3605.33	2781.04
3606.53	2763.08
3607.72	2802.11
3608.92	2803.14
3610.11	2783.18
3611.31	2805.21
3612.5	2764.24
3613.7	2758.28
3614.89	2779.31
3616.09	2813.34
3617.28	2803.38
3618.47	2779.41
3619.67	2797.44
3620.86	2727.48
3622.05	2793.51
3623.25	2787.54
3624.44	2804.58
3625.63	2777.61
3626.82	2745.65
3628.02	2757.68
3629.21	2773.71
3630.4	2789.75
3631.59	2705.78
3632.78	2747.81
3633.98	2791.85
3635.17	2739.88
3636.36	2790.91
3637.55	2775.95
3638.74	2787.98
3639.93	2780.01
3641.12	2766.05
3642.31	2795.08
3643.5	2832.11
3644.69	2821.15
3645.88	2810.18
3647.06	2782.21
3648.25	2708.25
3649.44	2718.28
3650.63	2774.31
3651.82	2738.35
3653.01	2772.38
3654.2	2760.41
3655.38	2709.45
3656.57	2750.48
3657.76	2778.51
3658.94	2738.55
3660.13	2769.58
3661.32	2742.61
3662.5	2708.65
3663.69	2723.68
3664.88	2680.71
3666.06	2718.75
3667.25	2692.78
3668.43	2748.81
3669.62	2742.85
3670.8	2728.88
3671.99	2700.91
3673.17	2712.95
3674.36	2706.98
3675.54	2715.01
3676.73	2671.05
3677.91	2719.08
3679.09	2699.11
3680.28	2717.15
3681.46	2703.18
3682.64	2717.21
3683.82	2701.25
3685.01	2749.28
3686.19	2756.31
3687.37	2719.35
3688.55	2697.38
3689.74	2725.41
3690.92	2700.45
3692.1	2729.48
3693.28	2736.51
3694.46	2713.55
3695.64	2701.58
3696.82	2691.61
3698	2675.65
3699.18	2677.68
3700.36	2673.71
3701.54	2684.75
3702.72	2676.78
3703.9	2725.82
3705.08	2716.85
3706.26	2717.88
3707.44	2697.92
3708.62	2711.95
3709.8	2705.98
3710.98	2696.02
3712.15	2725.05
3713.33	2717.08
3714.51	2715.12
3715.69	2711.15
3716.86	2740.18
3718.04	2706.22
3719.22	2726.25
3720.4	2698.28
3721.57	2733.32
3722.75	2700.35
3723.92	2753.38
3725.1	2745.42
3726.28	2730.45
3727.45	2743.48
3728.63	2746.52
3729.8	2704.55
3730.98	2676.58
3732.15	2676.62
3733.33	2738.65
3734.5	2771.68
3735.68	2746.72
3736.85	2760.75
3738.02	2702.78
3739.2	2741.82
3740.37	2749.85
3741.54	2766.88
3742.72	2780.92
3743.89	2725.95
3745.06	2753.98
3746.23	2764.02
3747.41	2762.05
3748.58	2793.08
3749.75	2741.12
3750.92	2778.15
3752.09	2709.18
3753.27	2725.22
3754.44	2739.25
3755.61	2725.28
3756.78	2773.32
3757.95	2799.35
3759.12	2789.38
3760.29	2791.42
3761.46	2789.45
3762.63	2764.48
3763.8	2785.52
3764.97	2769.55
3766.14	2723.58
3767.3	2807.62
3768.47	2709.65
3769.64	2790.68
3770.81	2804.72
3771.98	2810.75
3773.15	2765.78
3774.32	2757.82
3775.48	2736.85
3776.65	2793.89
3777.82	2693.92
3778.99	2779.95
3780.15	2754.99
3781.32	2803.02
3782.48	2755.05
3783.65	2760.09
3784.82	2777.12
3785.98	2773.15
3787.15	2757.19
3788.31	2774.22
3789.48	2692.25
3790.64	2756.29
3791.81	2783.32
3792.97	2770.35
3794.14	2752.39
3795.3	2744.42
3796.47	2782.45
3797.63	2727.49
3798.79	2724.52
3799.96	2698.55
3801.12	2714.59
3802.28	2734.62
3803.45	2758.65
3804.61	2708.69
3805.77	2718.72
3806.93	2731.75
3808.1	2711.79
3809.26	2689.82
3810.42	2722.85
3811.58	2736.89
3812.74	2686.92
3813.9	2700.95
3815.07	2682.99
3816.23	2729.02
3817.39	2673.05
3818.55	2727.09
3819.71	2713.12
3820.87	2680.15
3822.03	2707.19
3823.19	2710.22
3824.35	2697.25
3825.51	2701.29
3826.67	2692.32
3827.82	2697.35
3828.98	2655.39
3830.14	2681.42
3831.3	2657.45
3832.46	2667.49
3833.62	2632.52
3834.77	2659.55
3835.93	2663.59
3837.09	2677.62
3838.25	2637.65
3839.4	2646.69
3840.56	2655.72
3841.72	2665.75
3842.87	2671.79
3844.03	2678.82
3845.19	2638.85
3846.34	2626.89
3847.5	2623.92
3848.65	2678.96
3849.81	2638.99
3850.96	2658.02
3852.12	2702.06
3853.27	2659.09
3854.43	2654.12
3855.58	2650.16
3856.73	2656.19
3857.89	2696.22
3859.04	2658.26
3860.2	2652.29
3861.35	2680.32
3862.5	2644.36
3863.66	2661.39
3864.81	2682.42
3865.96	2648.46
3867.11	2697.49
3868.27	2654.52
3869.42	2684.56
3870.57	2678.59
3871.72	2660.62
3872.87	2666.66
3874.02	2652.69
3875.18	2696.72
3876.33	2678.76
3877.48	2669.79
3878.63	2709.82
3879.78	2624.86
3880.93	2674.89
3882.08	2660.92
3883.23	2661.96
3884.38	2672.99
3885.53	2682.02
3886.68	2699.06
3887.82	2660.09
3888.97	2728.12
3890.12	2677.16
3891.27	2710.19
3892.42	2696.22
3893.57	2718.26
3894.72	2731.29
3895.86	2661.32
3897.01	2670.36
3898.16	2680.39
3899.3	2730.42
3900.45	2708.46
3901.6	2694.49
3902.74	2713.52
3903.89	2723.56
3905.04	2691.59
3906.18	2732.62
3907.33	2680.66
3908.47	2730.69
3909.62	2731.72
3910.76	2737.76
3911.91	2723.79
3913.05	2708.82
3914.2	2754.86
3915.34	2696.89
3916.49	2713.92
3917.63	2703.96
3918.78	2734.99
3919.92	2716.02
3921.06	2719.06
3922.21	2731.09
3923.35	2714.13
3924.49	2706.16
3925.64	2743.19
3926.78	2733.23
3927.92	2731.26
3929.06	2676.29
3930.2	2686.33
3931.35	2705.36
3932.49	2681.39
3933.63	2706.43
3934.77	2710.46
3935.91	2678.49
3937.05	2650.53
3938.19	2685.56
3939.33	2725.59
3940.47	2672.63
3941.61	2700.66
3942.75	2726.69
3943.89	2709.73
3945.03	2664.76
3946.17	2722.79
3947.31	2708.83
3948.45	2684.86
3949.59	2692.89
3950.73	2676.93
3951.87	2671.96
3953.01	2652.99
3954.14	2695.03
3955.28	2681.06
3956.42	2708.09
3957.56	2639.13
3958.69	2709.16
3959.83	2676.19
3960.97	2662.23
3962.1	2683.26
3963.24	2641.29
3964.38	2655.33
3965.51	2607.36
3966.65	2663.39
3967.79	2671.43
3968.92	2665.46
3970.06	2619.49
3971.19	2689.53
3972.33	2654.56
3973.46	2621.59
3974.6	2619.63
3975.73	2641.66
3976.87	2643.69
3978	2635.73
3979.13	2629.76
3980.27	2601.79
3981.4	2615.83
3982.53	2621.86
3983.67	2627.89
3984.8	2665.93
3985.93	2597.96
3987.07	2634.99
3988.2	2646.03
3989.33	2618.06
3990.46	2603.09
3991.6	2600.13
3992.73	2558.16
3993.86	2640.2
3994.99	2634.23
3996.12	2610.26
3997.25	2652.3
3998.38	2607.33
3999.51	2670.36
