#Acq. time (s)=	25
#Accumulations=	3
#Range (cm-¹)=	100...4000
#Windows=	3
#Autofocus=	Off
#AutoExposure=	Off
#Spike filter=	Multiple accum.
#Delay time (s)=	0
#Binning=	1
#Readout mode=	Signal
#DeNoise=	Off
#ICS correction=	Off
#Dark correction=	Off
#Inst. Process=	Off
#Instrument=	LabRAM HR Evol
#Detector=	Syncerity OE
#Objective=	x100_VIS
#Grating=	600 (500nm)
#ND Filter=	25%
#Laser=	532nm_Edge
#Hole=	150.001
#Range=	Visible
#Project=	Omar
#Sample=	
#Site=	02-05-23
#Title=	roy_mg_r2
#Remark=	
#Date=	02.05.2023 17:38
#Acquired=	02.05.2023 17:38:05
101.414	828
103.248	839.898
105.083	853.797
106.916	885.696
108.751	889.594
110.583	865.493
112.417	896.391
114.249	878.29
116.08	901.188
117.913	904.087
119.743	864.985
121.575	910.884
123.405	888.782
125.234	891.681
127.065	860.579
128.894	858.478
130.724	881.377
132.552	875.275
134.38	880.174
136.209	864.072
138.036	866.971
139.862	891.869
141.691	905.768
143.516	890.666
145.342	893.565
147.167	870.463
148.994	881.362
150.818	908.26
152.642	889.159
154.468	907.057
156.291	902.956
158.114	879.855
159.936	903.753
161.761	914.652
163.583	894.55
165.404	902.449
167.225	890.347
169.048	909.246
170.868	898.144
172.689	902.043
174.508	930.941
176.328	909.84
178.149	878.738
179.967	883.637
181.786	894.535
183.603	897.434
185.421	897.333
187.24	887.231
189.057	896.13
190.874	898.028
192.69	898.927
194.506	891.825
196.321	902.724
198.136	910.622
199.953	929.521
201.767	900.419
203.581	923.318
205.395	918.216
207.208	938.115
209.021	930.013
210.834	906.912
212.646	923.811
214.458	919.709
216.27	909.608
218.081	905.506
219.892	910.405
221.702	920.303
223.514	944.202
225.324	905.1
227.133	930.999
228.943	956.897
230.751	1012.8
232.56	1029.69
234.368	942.593
236.175	929.491
237.983	907.39
239.79	918.289
241.594	904.187
243.4	946.086
245.206	931.984
247.012	940.883
248.817	949.781
250.622	937.68
252.426	927.578
254.23	952.477
256.034	946.375
257.838	937.274
259.641	939.172
261.444	975.071
263.246	942.969
265.048	954.868
266.848	948.767
268.649	960.665
270.45	949.564
272.251	951.462
274.051	939.361
275.851	908.259
277.65	930.158
279.447	938.056
281.246	956.955
283.045	939.853
284.843	944.752
286.641	943.65
288.436	952.549
290.233	969.448
292.03	962.346
293.827	917.245
295.623	961.143
297.416	942.042
299.212	954.94
301.007	967.839
302.802	952.737
304.594	974.636
306.388	934.534
308.182	961.433
309.973	964.331
311.766	966.23
313.558	945.128
315.351	954.027
317.14	978.925
318.932	944.824
320.723	984.723
322.512	983.621
324.303	959.52
326.093	966.418
327.88	967.317
329.67	943.215
331.459	958.114
333.246	944.012
335.034	956.911
336.822	950.809
338.608	971.708
340.395	951.606
342.18	991.505
343.967	980.404
345.754	971.302
347.538	954.201
349.323	958.099
351.106	945.998
352.891	946.896
354.674	969.795
356.458	955.693
358.24	970.592
360.024	950.49
361.805	963.389
363.588	983.287
365.37	950.186
367.151	962.084
368.933	972.983
370.712	980.881
372.493	950.78
374.272	966.679
376.05	993.577
377.831	976.476
379.608	998.374
381.388	986.273
383.165	986.171
384.944	972.07
386.72	1008.97
388.498	977.867
390.274	1027.77
392.049	991.664
393.826	1021.56
395.601	980.461
397.377	996.359
399.151	981.258
400.925	993.157
402.7	986.055
404.473	983.954
406.246	980.852
408.02	994.751
409.792	976.649
411.566	980.548
413.337	999.446
415.108	1001.34
416.881	972.243
418.651	1026.14
420.421	998.04
422.19	971.939
423.961	989.837
425.73	982.736
427.499	991.635
429.269	997.533
431.037	994.432
432.804	1025.33
434.572	985.229
436.34	1003.13
438.107	988.026
439.873	1013.92
441.639	1011.82
443.404	1008.72
445.171	1011.62
446.936	980.518
448.701	1042.42
450.465	1037.32
452.228	1034.21
453.994	1067.11
455.757	1050.01
457.52	995.91
459.282	1031.81
461.044	1043.71
462.806	1016.61
464.569	1070.5
466.33	1029.4
468.091	1043.3
469.852	1041.2
471.612	1068.1
473.371	1033
475.131	1047.9
476.89	1054.79
478.648	1050.69
480.407	1080.59
482.165	1055.49
483.924	1075.39
485.682	1087.29
487.439	1037.18
489.195	1068.08
490.952	1059.98
492.708	1031.88
494.463	1064.78
496.219	1085.68
497.974	1061.58
499.728	1046.47
501.482	1043.37
503.236	1087.27
504.99	1055.17
506.743	1060.07
508.496	1078.97
510.249	1060.87
512.001	1085.76
513.751	1080.66
515.503	1062.56
517.254	1036.46
519.005	1072.36
520.755	1050.26
522.506	1061.16
524.256	1079.05
526.005	1088.95
527.755	1079.85
529.503	1079.75
531.252	1108.65
532.998	1073.55
534.746	1085.45
536.494	1095.34
538.241	1077.24
539.988	1093.14
541.734	1129.04
543.479	1066.94
545.225	1074.84
546.97	1112.73
548.715	1100.63
550.46	1076.53
552.203	1108.43
553.947	1111.33
555.691	1110.23
557.435	1129.13
559.178	1138.02
560.919	1117.92
562.661	1111.82
564.404	1149.72
566.143	1166.62
567.885	1132.52
569.626	1122.42
571.367	1133.31
573.106	1130.21
574.846	1127.11
576.586	1125.01
578.323	1100.91
580.063	1148.81
581.802	1138.71
583.538	1136.6
585.276	1145.5
587.014	1158.4
588.75	1119.3
590.487	1164.2
592.224	1098.1
593.959	1150
595.695	1149.89
597.429	1144.79
599.165	1158.69
600.9	1148.59
602.633	1158.49
604.367	1143.39
606.1	1174.28
607.834	1154.18
609.565	1137.08
611.299	1126.98
613.031	1201.88
614.762	1175.78
616.494	1166.68
618.224	1187.57
619.956	1182.47
621.685	1189.37
623.416	1225.27
625.145	1186.17
626.875	1178.07
628.603	1192.97
630.333	1159.86
632.06	1208.76
633.789	1209.66
635.516	1223.56
637.242	1205.46
638.97	1240.36
640.696	1209.26
642.423	1219.15
644.148	1201.05
645.875	1232.95
647.599	1217.85
649.323	1221.75
651.049	1268.65
652.773	1208.55
654.496	1245.44
656.22	1237.34
657.943	1216.24
659.667	1245.14
661.389	1221.04
663.11	1225.94
664.833	1249.84
666.554	1255.73
668.274	1249.63
669.994	1246.53
671.716	1218.43
673.436	1288.33
675.155	1219.23
676.876	1203.12
678.594	1255.02
680.312	1235.92
682.03	1222.82
683.75	1257.72
685.467	1233.62
687.184	1266.52
688.9	1274.41
690.618	1242.31
692.334	1264.21
694.05	1248.11
695.765	1214.01
697.48	1231.91
699.196	1257.81
700.911	1241.7
702.625	1269.6
704.338	1253.5
706.052	1229.4
707.764	1279.3
709.477	1265.2
711.191	1260.1
712.903	1244.99
714.615	1254.89
716.326	1264.79
718.037	1262.69
719.748	1276.59
721.458	1249.49
723.168	1271.39
724.878	1245.28
726.588	1204.18
728.299	1299.08
730.007	1296.98
731.716	1275.88
733.424	1273.78
735.132	1312.67
736.839	1273.57
738.546	1296.47
740.253	1279.37
741.959	1296.27
743.666	1281.17
745.371	1278.07
747.077	1284.96
748.782	1264.86
750.487	1300.76
752.192	1277.66
753.896	1299.56
755.6	1278.46
757.301	1297.36
759.005	1286.25
760.707	1316.15
762.41	1270.05
764.112	1273.95
765.814	1275.85
767.516	1263.75
769.217	1276.65
770.918	1266.54
772.619	1297.44
774.317	1326.34
776.017	1275.24
777.717	1280.14
779.417	1261.04
781.116	1277.94
782.814	1295.83
784.511	1299.73
786.209	1316.63
787.907	1353.53
789.604	1300.43
791.301	1266.33
792.996	1273.23
794.693	1258.12
796.389	1273.02
798.085	1293.92
799.779	1269.82
801.474	1310.72
803.169	1301.62
804.863	1335.51
806.556	1277.41
808.25	1287.31
809.943	1292.21
811.637	1301.11
813.328	1289.01
815.02	1288.91
816.713	1343.8
818.403	1306.7
820.094	1305.6
821.786	1287.5
823.475	1332.4
825.166	1297.3
826.856	1320.2
828.544	1303.09
830.234	1281.99
831.922	1300.89
833.611	1285.79
835.3	1298.69
836.986	1309.59
838.675	1351.49
840.361	1344.38
842.048	1322.28
843.734	1338.18
845.421	1335.08
847.107	1329.98
848.792	1322.88
850.478	1330.78
852.161	1311.67
853.847	1328.57
855.53	1327.47
857.215	1336.37
858.897	1337.27
860.581	1338.17
862.263	1338.06
863.947	1328.96
865.628	1347.86
867.309	1335.76
868.991	1369.66
870.671	1354.56
872.353	1328.46
874.033	1305.35
875.714	1341.25
877.393	1337.15
879.072	1337.05
880.752	1308.95
882.43	1345.85
884.11	1375.75
885.788	1346.64
887.465	1349.54
889.143	1342.44
890.82	1349.34
892.496	1361.24
894.174	1326.14
895.849	1340.04
897.525	1310.93
899.202	1337.83
900.876	1344.73
902.55	1351.63
904.226	1377.53
905.9	1335.43
907.573	1342.33
909.246	1352.22
910.921	1355.12
912.594	1339.02
914.266	1380.92
915.938	1360.82
917.611	1318.72
919.282	1376.62
920.953	1358.51
922.623	1356.41
924.294	1363.31
925.966	1369.21
927.635	1407.11
929.304	1353.01
930.973	1378.9
932.642	1341.8
934.31	1373.7
935.98	1361.6
937.648	1403.5
939.316	1359.4
940.983	1405.3
942.649	1380.19
944.316	1392.09
945.982	1330.99
947.648	1411.89
949.314	1374.79
950.981	1368.69
952.646	1406.59
954.31	1402.48
955.975	1372.38
957.639	1406.28
959.302	1390.18
960.966	1382.08
962.629	1413.98
964.292	1392.88
965.954	1420.77
967.616	1385.67
969.278	1393.57
970.939	1381.47
972.601	1408.37
974.262	1429.27
975.922	1418.17
977.582	1419.06
979.242	1441.96
980.902	1435.86
982.561	1425.76
984.219	1414.66
985.877	1419.56
987.536	1402.46
989.194	1439.35
990.852	1449.25
992.509	1442.15
994.166	1439.05
995.823	1414.95
997.48	1427.85
999.134	1425.74
1000.79	1384.64
1002.45	1437.54
1004.1	1450.44
1005.76	1433.34
1007.41	1451.24
1009.06	1436.14
1010.72	1425.03
1012.37	1411.93
1014.02	1425.83
1015.68	1412.73
1017.33	1440.63
1018.98	1456.53
1020.63	1464.43
1022.29	1444.32
1023.94	1433.22
1025.59	1447.12
1027.24	1440.02
1028.89	1427.92
1030.54	1428.82
1032.19	1446.72
1033.84	1433.61
1035.48	1460.51
1037.13	1493.41
1038.78	1425.31
1040.43	1467.21
1042.08	1454.11
1043.73	1477.01
1045.37	1472.9
1047.02	1463.8
1048.66	1462.7
1050.31	1493.6
1051.96	1511.5
1053.6	1482.4
1055.25	1487.29
1056.89	1507.19
1058.54	1503.09
1060.18	1485.99
1061.82	1485.89
1063.47	1493.79
1065.11	1531.69
1066.75	1501.58
1068.4	1527.48
1070.04	1483.38
1071.68	1515.28
1073.32	1551.18
1074.96	1523.08
1076.6	1528.98
1078.24	1504.87
1079.88	1545.77
1081.52	1532.67
1083.16	1554.57
1084.8	1547.47
1086.44	1537.37
1088.08	1554.27
1089.72	1512.16
1091.36	1548.06
1092.99	1509.96
1094.63	1571.86
1096.27	1579.76
1097.91	1541.66
1099.54	1559.56
1101.18	1559.45
1102.82	1549.35
1104.45	1592.25
1106.08	1541.15
1107.72	1595.05
1109.35	1571.95
1110.99	1544.85
1112.62	1551.74
1114.26	1570.64
1115.89	1561.54
1117.52	1596.44
1119.16	1603.34
1120.79	1568.24
1122.42	1582.13
1124.05	1572.03
1125.68	1577.93
1127.31	1569.83
1128.94	1565.73
1130.57	1590.63
1132.2	1579.53
1133.83	1569.42
1135.46	1602.32
1137.09	1587.22
1138.72	1608.12
1140.35	1585.02
1141.98	1623.92
1143.61	1627.82
1145.23	1587.71
1146.86	1623.61
1148.49	1620.51
1150.12	1606.41
1151.74	1613.31
1153.37	1647.21
1154.99	1663.11
1156.62	1610
1158.24	1633.9
1159.87	1629.8
1161.49	1625.7
1163.12	1657.6
1164.74	1628.5
1166.36	1676.4
1167.99	1631.29
1169.61	1668.19
1171.23	1705.09
1172.86	1675.99
1174.48	1704.89
1176.1	1717.79
1177.72	1668.68
1179.34	1702.58
1180.96	1680.48
1182.58	1728.38
1184.2	1708.28
1185.82	1684.18
1187.44	1725.08
1189.06	1718.97
1190.68	1756.87
1192.3	1745.77
1193.91	1739.67
1195.53	1727.57
1197.15	1737.47
1198.77	1734.37
1200.38	1755.26
1202	1730.16
1203.62	1746.06
1205.23	1763.96
1206.85	1795.86
1208.46	1763.76
1210.08	1744.66
1211.69	1746.55
1213.31	1762.45
1214.92	1809.35
1216.54	1768.25
1218.15	1795.15
1219.76	1764.05
1221.38	1785.95
1222.99	1778.84
1224.6	1762.74
1226.21	1785.64
1227.82	1796.54
1229.43	1788.44
1231.05	1800.34
1232.66	1812.23
1234.27	1832.13
1235.88	1826.03
1237.49	1800.93
1239.1	1795.83
1240.71	1825.73
1242.31	1804.63
1243.92	1807.52
1245.53	1834.42
1247.14	1813.32
1248.75	1818.22
1250.35	1830.12
1251.96	1837.02
1253.57	1845.92
1255.17	1850.81
1256.78	1861.71
1258.39	1839.61
1259.99	1852.51
1261.6	1862.41
1263.2	1860.31
1264.8	1858.21
1266.41	1872.1
1268.01	1860
1269.62	1880.9
1271.22	1903.8
1272.82	1893.7
1274.43	1912.6
1276.03	1929.5
1277.63	1921.39
1279.23	1889.29
1280.83	1934.19
1282.43	1923.09
1284.04	1926.99
1285.64	1936.89
1287.23	1927.79
1288.84	1947.68
1290.43	1902.58
1292.03	1932.48
1293.63	1954.38
1295.23	1947.28
1296.83	1989.18
1298.43	2019.07
1300.03	1968.97
1301.62	1999.87
1303.22	1986.77
1304.82	1972.67
1306.41	2023.57
1308.01	2016.47
1309.61	2027.36
1311.2	1984.26
1312.8	2018.16
1314.39	2018.06
1315.99	2005.96
1317.58	2030.86
1319.17	2048.76
1320.77	2036.65
1322.36	2022.55
1323.95	2010.45
1325.55	2034.35
1327.14	2001.25
1328.73	2063.15
1330.32	2040.05
1331.92	2047.94
1333.51	2055.84
1335.1	2048.74
1336.69	2063.64
1338.28	2096.54
1339.87	2058.44
1341.46	2087.34
1343.05	2045.23
1344.64	2064.13
1346.23	2011.03
1347.81	2055.93
1349.4	2046.83
1350.99	2069.73
1352.58	2079.63
1354.17	2053.52
1355.75	2046.42
1357.34	2093.32
1358.92	2059.22
1360.51	2079.12
1362.1	2097.02
1363.68	2056.91
1365.27	2091.81
1366.85	2069.71
1368.44	2091.61
1370.02	2102.51
1371.6	2091.41
1373.19	2056.31
1374.77	2100.2
1376.35	2103.1
1377.94	2085
1379.52	2060.9
1381.1	2103.8
1382.68	2063.7
1384.27	2089.6
1385.85	2079.49
1387.43	2124.39
1389.01	2089.29
1390.59	2088.19
1392.17	2089.09
1393.75	2062.99
1395.33	2078.89
1396.91	2092.78
1398.49	2107.68
1400.06	2089.58
1401.64	2089.48
1403.22	2099.38
1404.8	2064.28
1406.37	2104.18
1407.95	2168.07
1409.53	2123.97
1411.11	2104.87
1412.68	2133.77
1414.26	2145.67
1415.83	2166.57
1417.41	2141.47
1418.98	2121.36
1420.56	2134.26
1422.13	2079.16
1423.71	2118.06
1425.28	2140.96
1426.85	2138.86
1428.43	2140.75
1430	2142.65
1431.57	2116.55
1433.14	2145.45
1434.72	2202.35
1436.29	2173.25
1437.86	2157.15
1439.43	2122.04
1441	2145.94
1442.57	2138.84
1444.14	2140.74
1445.71	2177.64
1447.28	2150.54
1448.85	2135.44
1450.42	2179.33
1451.99	2156.23
1453.55	2173.13
1455.12	2128.03
1456.69	2180.93
1458.26	2202.83
1459.82	2195.73
1461.39	2202.62
1462.96	2187.52
1464.52	2146.42
1466.09	2149.32
1467.66	2167.22
1469.22	2156.12
1470.79	2187.02
1472.35	2212.91
1473.92	2161.81
1475.48	2119.71
1477.04	2157.61
1478.61	2175.51
1480.17	2179.41
1481.73	2199.3
1483.29	2200.2
1484.86	2249.1
1486.42	2219
1487.98	2189.9
1489.54	2242.8
1491.1	2228.7
1492.67	2206.59
1494.23	2194.49
1495.78	2219.39
1497.35	2228.29
1498.91	2194.19
1500.46	2259.09
1502.02	2258.99
1503.58	2280.88
1505.14	2264.78
1506.7	2245.68
1508.26	2274.58
1509.81	2254.48
1511.37	2273.38
1512.93	2257.28
1514.49	2319.17
1516.04	2289.07
1517.6	2300.97
1519.15	2331.87
1520.71	2356.77
1522.26	2328.67
1523.82	2274.57
1525.37	2375.46
1526.93	2366.36
1528.48	2341.26
1530.04	2403.16
1531.59	2402.06
1533.14	2386.96
1534.69	2377.85
1536.25	2404.75
1537.8	2398.65
1539.35	2390.55
1540.9	2399.45
1542.46	2410.35
1544.01	2440.25
1545.56	2403.14
1547.11	2411.04
1548.66	2426.94
1550.21	2417.84
1551.76	2464.74
1553.31	2502.64
1554.86	2424.54
1556.4	2459.43
1557.95	2410.33
1559.5	2444.23
1561.05	2423.13
1562.6	2432.03
1564.14	2431.93
1565.69	2423.83
1567.24	2476.72
1568.78	2473.62
1570.33	2482.52
1571.87	2445.42
1573.42	2444.32
1574.96	2411.22
1576.51	2402.12
1578.05	2473.01
1579.6	2427.91
1581.14	2448.81
1582.69	2447.71
1584.23	2410.61
1585.77	2466.51
1587.32	2422.41
1588.86	2408.3
1590.4	2400.2
1591.94	2384.1
1593.48	2410
1595.03	2404.9
1596.57	2394.8
1598.11	2401.69
1599.65	2398.59
1601.19	2403.49
1602.73	2331.39
1604.27	2375.29
1605.81	2364.19
1607.35	2377.09
1608.89	2284.98
1610.42	2327.88
1611.96	2340.78
1613.5	2330.68
1615.04	2312.58
1616.57	2300.48
1618.11	2272.38
1619.65	2294.27
1621.18	2286.17
1622.72	2268.07
1624.26	2310.97
1625.79	2234.87
1627.33	2299.77
1628.86	2242.67
1630.4	2223.56
1631.93	2211.46
1633.47	2208.36
1635	2157.26
1636.53	2215.16
1638.07	2161.06
1639.6	2174.96
1641.13	2163.85
1642.66	2171.75
1644.2	2202.65
1645.73	2161.55
1647.26	2164.2
1648.79	2129.98
1650.32	2177.7
1651.85	2101.51
1653.38	2176.45
1654.91	2128.25
1656.44	2122.73
1657.97	2117.22
1659.5	2104.97
1661.03	2088.06
1662.56	2104.42
1664.09	2100.66
1665.62	2070.38
1667.14	2072.92
1668.67	2091.65
1670.2	2109.07
1671.72	2064.81
1673.25	2114.62
1674.78	2114.71
1676.3	2070.83
1677.83	2116
1679.35	2073.14
1680.88	2122.36
1682.41	2095.07
1683.93	2098.16
1685.45	2073.56
1686.98	2086.27
1688.5	2056.61
1690.03	2076.11
1691.55	2031.88
1693.07	2068.22
1694.59	2077.05
1696.12	2065.46
1697.64	2088.74
1699.16	2060.36
1700.68	2043.57
1702.2	2066.4
1703.72	2037.17
1705.24	2036.63
1706.76	2062.74
1708.28	2016.04
1709.8	2064.3
1711.32	2071.4
1712.84	2034.54
1714.36	2027.38
1715.88	2059.02
1717.4	2048.37
1718.92	2026.73
1720.43	2038.51
1721.95	2022.71
1723.47	2021.87
1724.98	2046.95
1726.5	2055.01
1728.02	2032.51
1729.53	2055.91
1731.05	2035.11
1732.56	2045.88
1734.08	2031.03
1735.59	2054.12
1737.11	2017.13
1738.62	2023
1740.14	2004.77
1741.65	1994.97
1743.16	2031.61
1744.68	2034.67
1746.19	2033.75
1747.7	2027.36
1749.21	1999
1750.73	2013.33
1752.24	2025.19
1753.75	2045.89
1755.26	2056.86
1756.77	1987.21
1758.28	2004.65
1759.79	2015.05
1761.3	2004.83
1762.81	2003.65
1764.32	2031.01
1765.83	2021.1
1767.34	2005.89
1768.85	2032.03
1770.36	2038.81
1771.87	2047.47
1773.37	2061.45
1774.88	2049.14
1776.39	2028.42
1777.9	2053.69
1779.4	2049.55
1780.91	2019.9
1782.41	2048.21
1783.92	2059.96
1785.42	2049.43
1786.93	2035.19
1788.43	2044.13
1789.94	2047.73
1791.44	2037.52
1792.95	2058.04
1794.45	2043.44
1795.95	2029.35
1797.46	2052.49
1798.96	2023.91
1799.54	1998.03
1801.05	2063.04
1802.56	2069.04
1804.06	2049.05
1805.57	2062.06
1807.08	2042.07
1808.59	2085.07
1810.1	2042.08
1811.6	2047.09
1813.11	2014.1
1814.62	2086.1
1816.12	2032.11
1817.63	2101.12
1819.14	2084.13
1820.64	2078.13
1822.15	2067.14
1823.65	2051.15
1825.16	2056.16
1826.66	2100.17
1828.17	2063.17
1829.67	2054.18
1831.17	2036.19
1832.68	2064.2
1834.18	2004.2
1835.68	2040.21
1837.19	2082.22
1838.69	2082.23
1840.19	2069.23
1841.69	2096.24
1843.19	2077.25
1844.7	2038.26
1846.2	2056.26
1847.7	2046.27
1849.2	2049.28
1850.7	2063.29
1852.2	2075.3
1853.7	2070.3
1855.2	2012.31
1856.69	2070.32
1858.19	2080.33
1859.69	2075.33
1861.19	2094.34
1862.69	2076.35
1864.19	2089.36
1865.68	2045.36
1867.18	2082.37
1868.68	2098.38
1870.17	2067.39
1871.67	2036.39
1873.16	2045.4
1874.66	2092.41
1876.15	2068.42
1877.65	2073.43
1879.14	2076.43
1880.64	2031.44
1882.13	2093.45
1883.63	2061.46
1885.12	2073.46
1886.61	2090.47
1888.11	2068.48
1889.6	2074.49
1891.09	2080.49
1892.59	2074.68
1894.08	2073.86
1895.57	2090.05
1897.06	2067.23
1898.55	2119.42
1900.04	2083.6
1901.53	2084.79
1903.02	2083.97
1904.51	2086.16
1906	2109.34
1907.49	2118.53
1908.98	2112.71
1910.47	2075.9
1911.96	2125.08
1913.45	2118.27
1914.94	2123.45
1916.43	2124.64
1917.91	2145.82
1919.4	2115.01
1920.89	2119.19
1922.37	2112.38
1923.86	2101.56
1925.35	2175.75
1926.83	2142.93
1928.32	2149.12
1929.8	2115.3
1931.29	2108.49
1932.77	2149.67
1934.26	2138.86
1935.74	2144.04
1937.23	2130.23
1938.71	2141.41
1940.2	2152.6
1941.68	2144.78
1943.16	2120.97
1944.64	2121.15
1946.13	2116.34
1947.61	2161.52
1949.09	2151.7
1950.57	2130.89
1952.05	2138.07
1953.53	2144.26
1955.02	2120.44
1956.49	2151.63
1957.98	2138.81
1959.46	2137
1960.93	2146.18
1962.41	2162.37
1963.89	2123.55
1965.37	2155.74
1966.85	2190.92
1968.33	2120.11
1969.81	2161.29
1971.29	2094.48
1972.76	2111.66
1974.24	2187.85
1975.72	2132.03
1977.19	2153.22
1978.67	2169.4
1980.15	2125.59
1981.62	2118.77
1983.1	2169.96
1984.57	2127.14
1986.05	2141.33
1987.52	2161.51
1989	2159.7
1990.47	2200.88
1991.95	2171.07
1993.42	2125.25
1994.89	2153.44
1996.37	2143.62
1997.84	2172.81
1999.31	2156.99
2000.78	2150.18
2002.26	2164.36
2003.73	2206.55
2005.2	2120.73
2006.67	2138.92
2008.14	2117.1
2009.61	2182.29
2011.08	2160.47
2012.55	2189.66
2014.02	2170.84
2015.49	2193.03
2016.96	2150.21
2018.43	2196.4
2019.9	2162.58
2021.37	2160.76
2022.84	2175.95
2024.3	2195.13
2025.77	2108.32
2027.24	2187.5
2028.71	2145.69
2030.17	2197.87
2031.64	2183.06
2033.11	2197.24
2034.57	2180.43
2036.04	2156.61
2037.51	2190.8
2038.97	2188.98
2040.44	2212.17
2041.9	2185.35
2043.37	2194.54
2044.83	2165.72
2046.29	2183.91
2047.76	2201.09
2049.22	2172.28
2050.68	2223.46
2052.15	2207.65
2053.61	2255.83
2055.07	2208.02
2056.53	2235.2
2058	2182.39
2059.46	2249.57
2060.92	2224.76
2062.38	2207.94
2063.84	2198.13
2065.3	2182.31
2066.76	2186.5
2068.22	2233.68
2069.68	2212.87
2071.14	2178.05
2072.6	2213.24
2074.06	2211.42
2075.52	2177.61
2076.98	2189.79
2078.43	2198.98
2079.89	2130.16
2081.35	2199.35
2082.81	2226.53
2084.26	2212.72
2085.72	2202.9
2087.18	2178.08
2088.63	2231.27
2090.09	2216.45
2091.54	2214.64
2093	2173.82
2094.45	2202.01
2095.91	2212.19
2097.36	2161.38
2098.82	2204.56
2100.27	2195.75
2101.73	2252.93
2103.18	2214.12
2104.63	2190.3
2106.09	2219.49
2107.54	2175.67
2108.99	2208.86
2110.44	2182.04
2111.9	2208.23
2113.35	2188.41
2114.8	2195.6
2116.25	2187.78
2117.7	2237.97
2119.15	2199.15
2120.6	2182.34
2122.05	2180.52
2123.5	2266.71
2124.95	2165.89
2126.4	2172.08
2127.85	2212.26
2129.3	2205.45
2130.75	2200.63
2132.19	2194.82
2133.64	2179
2135.09	2217.19
2136.54	2231.37
2137.99	2253.56
2139.43	2225.74
2140.88	2231.93
2142.33	2242.11
2143.77	2163.3
2145.22	2222.48
2146.66	2214.67
2148.11	2232.85
2149.55	2199.04
2151	2212.22
2152.44	2233.41
2153.89	2233.59
2155.33	2243.77
2156.77	2251.96
2158.22	2257.14
2159.66	2234.33
2161.1	2213.51
2162.55	2231.7
2163.99	2304.88
2165.43	2206.07
2166.88	2256.25
2168.32	2244.44
2169.76	2249.62
2171.2	2241.81
2172.64	2231.99
2174.08	2233.18
2175.52	2233.36
2176.96	2225.55
2178.4	2247.73
2179.84	2255.92
2181.28	2281.1
2182.72	2231.29
2184.16	2245.47
2185.6	2289.66
2187.03	2249.84
2188.47	2241.03
2189.91	2277.21
2191.35	2283.4
2192.78	2282.58
2194.22	2257.77
2195.66	2272.95
2197.09	2258.14
2198.53	2281.32
2199.97	2278.51
2201.4	2273.69
2202.84	2273.88
2204.27	2254.06
2205.71	2268.25
2207.14	2262.43
2208.58	2301.62
2210.01	2251.8
2211.44	2220.99
2212.88	2240.17
2214.31	2271.36
2215.74	2249.54
2217.18	2251.73
2218.61	2212.91
2220.04	2257.1
2221.47	2266.28
2222.91	2207.46
2224.34	2251.65
2225.77	2251.83
2227.2	2237.02
2228.63	2257.2
2230.06	2254.39
2231.49	2247.57
2232.92	2212.76
2234.35	2239.94
2235.78	2211.13
2237.21	2228.31
2238.64	2188.5
2240.07	2240.68
2241.49	2247.87
2242.92	2225.05
2244.35	2214.24
2245.78	2244.42
2247.2	2221.61
2248.63	2227.79
2250.06	2183.98
2251.49	2233.16
2252.91	2178.35
2254.34	2213.53
2255.76	2238.72
2257.19	2212.9
2258.61	2213.09
2260.04	2200.27
2261.46	2250.46
2262.89	2230.64
2264.31	2233.83
2265.74	2225.01
2267.16	2228.2
2268.58	2213.38
2270.01	2192.57
2271.43	2242.75
2272.85	2224.94
2274.27	2227.12
2275.7	2228.31
2277.12	2207.49
2278.54	2241.68
2279.96	2241.86
2281.38	2248.05
2282.8	2232.23
2284.22	2279.42
2285.64	2227.6
2287.06	2256.79
2288.48	2238.97
2289.9	2230.15
2291.32	2267.34
2292.74	2245.52
2294.16	2281.71
2295.58	2263.89
2297	2288.08
2298.41	2227.26
2299.83	2286.45
2301.25	2263.63
2302.67	2237.82
2304.09	2259
2305.5	2256.19
2306.92	2280.37
2308.33	2259.56
2309.75	2258.74
2311.17	2256.93
2312.58	2256.11
2314	2245.3
2315.41	2288.48
2316.83	2290.67
2318.24	2276.85
2319.66	2275.04
2321.07	2289.22
2322.48	2247.41
2323.9	2286.59
2325.31	2334.78
2326.72	2295.96
2328.13	2327.15
2329.55	2316.33
2330.96	2362.52
2332.37	2280.7
2333.78	2323.89
2335.19	2319.07
2336.6	2295.26
2338.02	2279.44
2339.43	2293.63
2340.84	2322.81
2342.25	2290
2343.66	2308.18
2345.07	2333.37
2346.47	2306.55
2347.88	2272.74
2349.29	2305.92
2350.7	2325.11
2352.11	2279.29
2353.52	2279.48
2354.93	2269.66
2356.33	2286.84
2357.74	2353.03
2359.15	2282.21
2360.55	2294.4
2361.96	2280.58
2363.37	2274.77
2364.77	2285.95
2366.18	2301.14
2367.58	2282.32
2368.99	2308.51
2370.39	2275.69
2371.8	2304.88
2373.2	2305.06
2374.61	2294.25
2376.01	2265.43
2377.42	2290.62
2378.82	2267.8
2380.22	2278.99
2381.63	2279.17
2383.03	2276.36
2384.43	2283.54
2385.83	2259.73
2387.23	2271.91
2388.64	2284.1
2390.04	2249.28
2391.44	2300.47
2392.84	2304.65
2394.24	2314.84
2395.64	2274.02
2397.04	2282.21
2398.44	2263.39
2399.84	2301.58
2401.24	2263.76
2402.64	2290.95
2404.04	2288.13
2405.44	2312.32
2406.83	2301.5
2408.23	2260.69
2409.63	2255.87
2411.03	2299.06
2412.43	2277.24
2413.82	2279.43
2415.22	2260.61
2416.62	2305.8
2418.01	2303.98
2419.41	2267.17
2420.81	2301.35
2422.2	2312.53
2423.6	2256.72
2424.99	2317.9
2426.39	2304.09
2427.78	2294.27
2429.18	2317.46
2430.57	2329.64
2431.96	2292.83
2433.36	2344.01
2434.75	2307.2
2436.14	2342.38
2437.54	2323.57
2438.93	2302.75
2440.32	2398.94
2441.71	2379.12
2443.11	2277.31
2444.5	2333.49
2445.89	2358.68
2447.28	2389.86
2448.67	2357.05
2450.06	2363.23
2451.45	2334.42
2452.84	2359.6
2454.23	2358.79
2455.62	2374.97
2457.01	2418.16
2458.4	2376.34
2459.79	2404.53
2461.18	2363.71
2462.57	2367.9
2463.95	2396.08
2465.34	2403.27
2466.73	2419.45
2468.12	2402.64
2469.5	2412.82
2470.89	2362.01
2472.28	2399.19
2473.66	2352.38
2475.05	2392.56
2476.44	2402.75
2477.82	2420.93
2479.21	2412.12
2480.59	2408.3
2481.98	2389.49
2483.36	2373.67
2484.75	2442.86
2486.13	2433.04
2487.51	2430.23
2488.9	2375.41
2490.28	2398.59
2491.66	2419.78
2493.05	2391.96
2494.43	2403.15
2495.81	2397.33
2497.19	2350.52
2498.58	2396.7
2499.96	2444.89
2501.34	2437.07
2502.72	2421.26
2504.1	2417.44
2505.48	2406.63
2506.86	2423.81
2508.24	2426
2509.62	2397.18
2511	2381.37
2512.38	2432.55
2513.76	2418.74
2515.14	2439.92
2516.52	2418.11
2517.9	2393.29
2519.28	2385.48
2520.65	2375.66
2522.03	2379.85
2523.41	2438.03
2524.79	2407.22
2526.16	2426.4
2527.54	2393.59
2528.92	2406.77
2530.29	2416.96
2531.67	2383.14
2533.04	2423.33
2534.42	2427.51
2535.8	2425.7
2537.17	2411.88
2538.54	2427.07
2539.92	2433.25
2541.29	2413.44
2542.67	2373.62
2544.04	2374.81
2545.41	2426.99
2546.79	2406.18
2548.16	2411.36
2549.53	2415.55
2550.91	2414.73
2552.28	2408.92
2553.65	2375.1
2555.02	2430.28
2556.39	2425.47
2557.77	2446.65
2559.14	2416.84
2560.51	2429.02
2561.88	2420.21
2563.25	2442.39
2564.62	2428.58
2565.99	2429.76
2567.36	2368.95
2568.73	2420.13
2570.1	2440.32
2571.47	2421.5
2572.83	2461.69
2574.2	2436.87
2575.57	2458.06
2576.94	2445.24
2578.31	2476.43
2579.67	2473.61
2581.04	2479.8
2582.41	2451.98
2583.77	2470.17
2585.14	2492.35
2586.51	2462.54
2587.87	2478.72
2589.24	2474.91
2590.6	2535.09
2591.97	2526.28
2593.33	2526.46
2594.7	2505.65
2596.06	2526.83
2597.43	2482.02
2598.79	2474.2
2600.15	2506.39
2601.52	2480.57
2602.88	2497.76
2604.24	2556.94
2605.61	2499.13
2606.97	2558.31
2608.33	2531.5
2609.7	2538.68
2611.06	2527.87
2612.42	2544.05
2613.78	2527.24
2615.14	2502.42
2616.5	2576.6
2617.86	2543.79
2619.22	2520.97
2620.58	2580.16
2621.94	2509.34
2623.3	2552.53
2624.66	2568.71
2626.02	2570.9
2627.38	2549.08
2628.74	2556.27
2630.1	2587.45
2631.45	2565.64
2632.81	2576.82
2634.17	2589.01
2635.53	2549.19
2636.88	2549.38
2638.24	2573.56
2639.6	2559.75
2640.96	2571.93
2642.31	2574.12
2643.67	2567.3
2645.02	2566.49
2646.38	2540.67
2647.73	2612.86
2649.09	2545.04
2650.44	2601.23
2651.8	2594.41
2653.15	2559.6
2654.51	2573.78
2655.86	2596.97
2657.21	2566.15
2658.57	2587.34
2659.92	2572.52
2661.27	2594.71
2662.63	2546.89
2663.98	2581.08
2665.33	2575.26
2666.68	2542.45
2668.03	2575.63
2669.38	2572.82
2670.74	2617
2672.09	2590.19
2673.44	2576.37
2674.79	2590.56
2676.14	2558.74
2677.49	2590.93
2678.84	2602.11
2680.19	2571.29
2681.54	2588.48
2682.89	2585.66
2684.23	2609.85
2685.58	2601.53
2686.93	2593.22
2688.28	2592.4
2689.63	2541.59
2690.98	2580.77
2692.32	2601.96
2693.67	2607.14
2695.02	2623.33
2696.36	2603.51
2697.71	2607.7
2699.05	2643.88
2700.4	2620.07
2701.75	2584.25
2703.09	2590.44
2704.44	2605.62
2705.78	2613.81
2707.13	2635.99
2708.47	2555.18
2709.82	2673.36
2711.16	2633.55
2712.5	2622.73
2713.85	2602.92
2715.19	2608.1
2716.53	2637.29
2717.88	2597.47
2719.22	2597.66
2720.56	2635.84
2721.9	2615.03
2723.25	2607.21
2724.59	2645.4
2725.93	2632.58
2727.27	2598.77
2728.61	2632.95
2729.95	2640.14
2731.29	2628.32
2732.63	2662.51
2733.97	2652.69
2735.31	2641.88
2736.65	2641.06
2737.99	2653.25
2739.33	2647.43
2740.67	2633.62
2742.01	2691.8
2743.35	2646.98
2744.68	2696.17
2746.02	2656.35
2747.36	2675.54
2748.7	2682.72
2750.03	2684.91
2751.37	2670.09
2752.71	2675.28
2754.04	2651.46
2755.38	2641.65
2756.71	2671.83
2758.05	2653.02
2759.39	2693.2
2760.72	2644.39
2762.06	2710.57
2763.39	2716.76
2764.72	2736.94
2766.06	2689.13
2767.39	2720.31
2768.73	2692.5
2770.06	2749.68
2771.39	2791.87
2772.73	2727.05
2774.06	2680.24
2775.39	2712.42
2776.72	2700.61
2778.06	2724.79
2779.39	2724.98
2780.72	2711.16
2782.05	2735.35
2783.38	2705.53
2784.72	2715.72
2786.04	2672.9
2787.38	2740.09
2788.71	2704.27
2790.04	2744.46
2791.37	2725.64
2792.7	2749.83
2794.03	2739.01
2795.35	2716.2
2796.68	2741.38
2798.01	2743.57
2799.34	2756.75
2800.67	2744.94
2802	2738.12
2803.32	2734.31
2804.65	2751.49
2805.98	2747.68
2807.3	2736.86
2808.63	2779.04
2809.96	2788.23
2811.29	2727.41
2812.61	2786.6
2813.94	2801.78
2815.26	2753.97
2816.59	2795.15
2817.91	2759.34
2819.24	2762.52
2820.56	2726.71
2821.89	2797.89
2823.21	2799.08
2824.53	2801.26
2825.86	2758.45
2827.18	2732.63
2828.5	2733.82
2829.83	2785
2831.15	2784.19
2832.47	2763.37
2833.79	2770.56
2835.12	2750.74
2836.44	2781.93
2837.76	2797.11
2839.08	2781.3
2840.4	2783.48
2841.73	2774.67
2843.04	2763.85
2844.37	2790.04
2845.69	2766.22
2847.01	2760.41
2848.33	2804.59
2849.65	2804.78
2850.96	2789.96
2852.28	2738.15
2853.6	2790.33
2854.92	2763.52
2856.24	2789.7
2857.56	2819.89
2858.87	2793.07
2860.19	2822.26
2861.51	2789.44
2862.83	2812.63
2864.14	2828.81
2865.46	2822
2866.78	2864.18
2868.09	2819.36
2869.41	2849.55
2870.73	2823.74
2872.04	2771.92
2873.36	2858.1
2874.67	2820.29
2875.99	2833.47
2877.3	2806.66
2878.62	2861.84
2879.93	2845.03
2881.24	2828.21
2882.56	2779.4
2883.87	2829.58
2885.18	2818.77
2886.5	2809.95
2887.81	2850.14
2889.12	2878.32
2890.43	2842.51
2891.75	2903.69
2893.06	2896.88
2894.37	2822.06
2895.68	2871.25
2896.99	2838.43
2898.3	2838.62
2899.61	2898.8
2900.93	2853.99
2902.24	2849.17
2903.55	2880.36
2904.86	2858.54
2906.17	2862.73
2907.48	2885.91
2908.78	2834.1
2910.09	2867.28
2911.4	2835.47
2912.71	2843.65
2914.02	2825.84
2915.33	2847.02
2916.63	2855.21
2917.94	2871.39
2919.25	2841.58
2920.56	2826.76
2921.86	2869.95
2923.17	2854.13
2924.48	2851.32
2925.78	2859.5
2927.09	2869.69
2928.39	2878.87
2929.7	2866.05
2931	2874.24
2932.31	2855.42
2933.61	2856.61
2934.92	2854.79
2936.22	2839.98
2937.53	2833.16
2938.83	2864.35
2940.13	2861.53
2941.44	2844.72
2942.74	2831.9
2944.04	2887.09
2945.35	2846.27
2946.65	2904.46
2947.95	2852.64
2949.25	2840.83
2950.55	2865.01
2951.86	2887.2
2953.16	2828.57
2954.46	2893.55
2955.76	2884.63
2957.06	2865.11
2958.36	2874.53
2959.66	2871.09
2960.96	2832.2
2962.26	2878.94
2963.56	2831.47
2964.86	2894.81
2966.16	2848.84
2967.46	2866.6
2968.76	2843.05
2970.05	2885.59
2971.35	2897.64
2972.65	2853.78
2973.95	2869.46
2975.24	2890.5
2976.54	2897.59
2977.84	2845.62
2979.14	2888.51
2980.43	2880.02
2981.73	2880.51
2983.02	2880.07
2984.32	2894.71
2985.62	2905.48
2986.91	2847.56
2988.21	2889.72
2989.5	2899.61
2990.8	2901.54
2992.09	2884.93
2993.39	2906.66
2994.68	2888.87
2995.97	2888.03
2997.27	2888.89
2998.56	2892.85
2999.85	2874.37
3001.15	2901.42
3002.44	2895.9
3003.73	2909.27
3005.02	2894.27
3006.32	2865.36
3007.61	2922.84
3008.9	2901.07
3010.19	2902.07
3011.48	2922.4
3012.77	2899.21
3014.06	2908.14
3015.35	2940.2
3016.64	2916.83
3017.93	2890.36
3019.22	2894.5
3020.51	2928.54
3021.8	2923.45
3023.09	2876.98
3024.38	2925.38
3025.67	2961.62
3026.96	2908.8
3028.25	2901.26
3029.53	2912.51
3030.82	2901.86
3032.11	2899.95
3033.4	2932.85
3034.68	2895.05
3035.97	2885.55
3037.26	2926.63
3038.54	2947.2
3039.83	2919.49
3041.12	2914.91
3042.4	2908.95
3043.69	2929
3044.97	2919.43
3046.26	2924.94
3047.54	2924.06
3048.83	2895.43
3050.11	2939.75
3051.4	2961.88
3052.68	2928
3053.96	2940.14
3055.25	2926.73
3056.53	2921.28
3057.81	2939.34
3059.1	2947.25
3060.38	2899.5
3061.66	2939.41
3062.94	2938.02
3064.23	2944.39
3065.51	2934.34
3066.79	2956.8
3068.07	2930.88
3069.35	2849.76
3070.63	2916.04
3071.91	2911.31
3073.19	2962.82
3074.47	2914.72
3075.75	2926.4
3077.03	2938.21
3078.31	2949.86
3079.59	2886.05
3080.87	2914.12
3082.15	2935.48
3082.23	2936.92
3083.52	2919.02
3084.8	2954.13
3086.08	2970.23
3087.37	2931.34
3088.65	2978.45
3089.94	2918.55
3091.22	2956.66
3092.5	2949.76
3093.79	2951.87
3095.07	2911.97
3096.35	2956.08
3097.63	2934.19
3098.92	2948.29
3100.2	2957.4
3101.48	2952.5
3102.76	2935.61
3104.04	2952.71
3105.32	2954.82
3106.6	2936.93
3107.88	2944.03
3109.16	2887.14
3110.44	2927.24
3111.72	2986.35
3113	2949.45
3114.28	2943.56
3115.56	2895.67
3116.84	2966.77
3118.12	2952.88
3119.4	2893.98
3120.67	2864.09
3121.95	2935.19
3123.23	2970.3
3124.51	2973.41
3125.79	2965.51
3127.06	2965.62
3128.34	2984.72
3129.62	2966.83
3130.89	2930.93
3132.17	2952.04
3133.44	2956.14
3134.72	2963.25
3136	2899.36
3137.27	2948.46
3138.55	2912.57
3139.82	2974.67
3141.1	3022.78
3142.37	2943.88
3143.65	2963.99
3144.92	2936.1
3146.19	2938.2
3147.47	2972.31
3148.74	2934.41
3150.01	2987.52
3151.29	3023.62
3152.56	2979.73
3153.83	2945.84
3155.1	3004.94
3156.38	2998.05
3157.65	3000.15
3158.92	3008.26
3160.19	2983.36
3161.46	2961.47
3162.73	2957.58
3164	2975.68
3165.28	2996.79
3166.54	2981.89
3167.81	2980
3169.09	3024.1
3170.35	3004.21
3171.62	2994.31
3172.89	2956.42
3174.16	3002.53
3175.43	2975.63
3176.7	3035.74
3177.97	2984.84
3179.24	2978.95
3180.5	2997.05
3181.77	3003.16
3183.04	2949.27
3184.31	2993.37
3185.57	2943.48
3186.84	2911.58
3188.11	3001.69
3189.38	2953.79
3190.64	3007.9
3191.91	2968.01
3193.17	2933.11
3194.44	2996.22
3195.7	2992.32
3196.97	2978.43
3198.23	2970.53
3199.5	2931.64
3200.76	2973.75
3202.03	2927.85
3203.29	2961.96
3204.55	2960.06
3205.82	2925.17
3207.08	2996.27
3208.35	2966.38
3209.61	2992.48
3210.87	2912.59
3212.13	2965.7
3213.4	2955.8
3214.66	2937.91
3215.92	2960.01
3217.18	2968.12
3218.44	2916.22
3219.7	2970.33
3220.97	2937.44
3222.23	2927.54
3223.49	2919.65
3224.75	2881.75
3226.01	2988.86
3227.27	2880.96
3228.53	2912.07
3229.79	2918.18
3231.05	2924.28
3232.31	2893.39
3233.56	2907.49
3234.82	2949.6
3236.08	2939.7
3237.34	2893.81
3238.6	2873.92
3239.86	2925.02
3241.11	2916.13
3242.37	2906.23
3243.63	2910.34
3244.88	2884.44
3246.14	2929.55
3247.4	2945.65
3248.65	2934.76
3249.91	2905.87
3251.17	2952.97
3252.42	2889.08
3253.68	2907.18
3254.93	2945.29
3256.19	2913.39
3257.44	2908.5
3258.7	2915.61
3259.95	2918.71
3261.21	2888.82
3262.46	2855.92
3263.71	2962.03
3264.97	2923.13
3266.22	2937.24
3267.47	2913.35
3268.73	2932.45
3269.98	2915.56
3271.23	2929.66
3272.48	2916.77
3273.74	2933.87
3274.99	2926.98
3276.24	2944.09
3277.49	2930.19
3278.74	2944.3
3279.99	2886.4
3281.24	2898.51
3282.49	2911.61
3283.74	2938.72
3284.99	2961.82
3286.24	2944.93
3287.49	2963.04
3288.74	2943.14
3289.99	2937.25
3291.24	2959.35
3292.49	3008.46
3293.74	2918.56
3294.99	2934.67
3296.23	2927.78
3297.48	2946.88
3298.73	2914.99
3299.98	2977.09
3301.23	2979.2
3302.47	2955.3
3303.72	2956.41
3304.97	2940.52
3306.21	2957.62
3307.46	2959.73
3308.71	2985.83
3309.95	3012.94
3311.2	2968.04
3312.44	2962.15
3313.69	2964.26
3314.93	2958.36
3316.18	2954.47
3317.42	2959.57
3318.67	2954.68
3319.91	2926.78
3321.15	2990.89
3322.4	2963
3323.64	2961.1
3324.88	2953.21
3326.13	2962.31
3327.37	2932.42
3328.61	2936.52
3329.86	2972.63
3331.1	2949.73
3332.34	2959.84
3333.58	2955.95
3334.82	2934.05
3336.07	2955.16
3337.31	2953.26
3338.55	2966.37
3339.79	2994.47
3341.03	2908.58
3342.27	2942.69
3343.51	2934.79
3344.75	2893.9
3345.99	2927
3347.23	2961.11
3348.47	2970.21
3349.71	2975.32
3350.95	2957.43
3352.18	2953.53
3353.42	2937.64
3354.66	2930.74
3355.9	2939.85
3357.14	2941.95
3358.38	2923.06
3359.61	2966.17
3360.85	2903.27
3362.09	2876.38
3363.32	2939.48
3364.56	2888.59
3365.8	2962.69
3367.03	2939.8
3368.27	2930.9
3369.5	2938.01
3370.74	2908.12
3371.98	2905.22
3373.21	2901.33
3374.45	2908.43
3375.68	2939.54
3376.91	2905.64
3378.15	2873.75
3379.38	2916.86
3380.62	2900.96
3381.85	2881.07
3383.08	2885.17
3384.32	2908.28
3385.55	2856.38
3386.78	2905.49
3388.02	2901.6
3389.25	2885.7
3390.48	2880.81
3391.71	2915.91
3392.94	2910.02
3394.17	2898.12
3395.41	2939.23
3396.64	2886.33
3397.87	2930.44
3399.1	2963.55
3400.33	2947.65
3401.56	2951.76
3402.79	2947.86
3404.02	2937.97
3405.25	2917.07
3406.48	2894.18
3407.71	2931.29
3408.94	2926.39
3410.17	2850.5
3411.4	2964.6
3412.62	2926.71
3413.85	2940.81
3415.08	2916.92
3416.31	2916.03
3417.54	2933.13
3418.76	2917.24
3419.99	2935.34
3421.22	2964.45
3422.44	2907.55
3423.67	2946.66
3424.9	2911.77
3426.12	2943.87
3427.35	2974.98
3428.57	2882.08
3429.8	2956.19
3431.02	2946.29
3432.25	2975.4
3433.48	2961.51
3434.7	2933.61
3435.92	2929.72
3437.15	2950.82
3438.37	2987.93
3439.6	2959.03
3440.82	2970.14
3442.04	2981.24
3443.27	2977.35
3444.49	2976.46
3445.71	2981.56
3446.94	3017.67
3448.16	2977.77
3449.38	2957.88
3450.6	2931.98
3451.82	2993.09
3453.05	3007.2
3454.27	2979.3
3455.49	3014.41
3456.71	2984.51
3457.93	3002.62
3459.15	2988.72
3460.37	2934.83
3461.59	2979.94
3462.81	3001.04
3464.03	3011.15
3465.25	2974.25
3466.47	2987.36
3467.69	3028.46
3468.91	3016.57
3470.13	2988.68
3471.34	2999.78
3472.56	3019.89
3473.78	3001.99
3475	2968.1
3476.22	2992.2
3477.43	3023.31
3478.65	3012.41
3479.87	2938.52
3481.08	2991.63
3482.3	2992.73
3483.52	2958.84
3484.73	2970.94
3485.95	2992.05
3487.17	2984.15
3488.38	2996.26
3489.6	2957.37
3490.81	3004.47
3492.03	2990.58
3493.24	2993.68
3494.46	2937.79
3495.67	2911.89
3496.89	2948
3498.1	2939.11
3499.31	2959.21
3500.53	2932.32
3501.74	2962.42
3502.95	2918.53
3504.17	2986.63
3505.38	2964.74
3506.59	2935.85
3507.8	2899.95
3509.02	2929.06
3510.23	2893.16
3511.44	2915.27
3512.65	2855.37
3513.86	2939.48
3515.07	2900.58
3516.29	2941.69
3517.5	2979.8
3518.71	2889.9
3519.92	2864.01
3521.13	2918.11
3522.34	2876.22
3523.55	2862.32
3524.76	2893.43
3525.96	2904.54
3527.17	2892.64
3528.38	2926.75
3529.59	2864.85
3530.8	2883.96
3532.01	2859.06
3533.22	2877.17
3534.42	2901.28
3535.63	2872.38
3536.84	2879.49
3538.05	2891.59
3539.25	2872.7
3540.46	2901.8
3541.67	2948.91
3542.87	2908.02
3544.08	2902.12
3545.29	2890.23
3546.49	2926.33
3547.7	2906.44
3548.9	2880.54
3550.11	2848.65
3551.31	2909.75
3552.52	2866.86
3553.72	2894.97
3554.93	2933.07
3556.13	2851.18
3557.34	2927.28
3558.54	2880.39
3559.74	2833.49
3560.95	2867.6
3562.15	2901.71
3563.35	2850.81
3564.56	2892.92
3565.76	2938.02
3566.96	2881.13
3568.16	2898.23
3569.36	2909.34
3570.57	2909.45
3571.77	2917.55
3572.97	2907.66
3574.17	2922.76
3575.37	2900.87
3576.57	2903.97
3577.77	2954.08
3578.97	2928.19
3580.17	2925.29
3581.37	2974.4
3582.57	2929.5
3583.77	2902.61
3584.97	2904.71
3586.17	2947.82
3587.37	2968.92
3588.57	2925.03
3589.77	2978.14
3590.97	2944.24
3592.17	2982.35
3593.36	2940.45
3594.56	2943.56
3595.76	2927.66
3596.96	2936.77
3598.15	2916.88
3599.35	2966.98
3600.55	2901.09
3601.74	2986.19
3602.94	2942.3
3604.14	2960.4
3605.33	2931.51
3606.53	2970.62
3607.72	2987.72
3608.92	2974.83
3610.11	2961.93
3611.31	2977.04
3612.5	2941.14
3613.7	2950.25
3614.89	2962.36
3616.09	2927.46
3617.28	2993.57
3618.47	2960.67
3619.67	2994.78
3620.86	2949.88
3622.05	2960.99
3623.25	2991.09
3624.44	2972.2
3625.63	2967.31
3626.82	2962.41
3628.02	2942.52
3629.21	2960.62
3630.4	2955.73
3631.59	2917.83
3632.78	2970.94
3633.98	2979.05
3635.17	2973.15
3636.36	2986.26
3637.55	2956.36
3638.74	2958.47
3639.93	2977.57
3641.12	2924.68
3642.31	2974.79
3643.5	2947.89
3644.69	2919
3645.88	2958.1
3647.06	2982.21
3648.25	2945.31
3649.44	2927.42
3650.63	2948.53
3651.82	2949.63
3653.01	2954.74
3654.2	2965.84
3655.38	2948.95
3656.57	2924.05
3657.76	2912.16
3658.94	2916.27
3660.13	2903.37
3661.32	2895.48
3662.5	2902.58
3663.69	2881.69
3664.88	2912.79
3666.06	2931.9
3667.25	2902
3668.43	2905.11
3669.62	2891.22
3670.8	2884.32
3671.99	2940.43
3673.17	2867.53
3674.36	2891.64
3675.54	2949.74
3676.73	2900.85
3677.91	2887.96
3679.09	2916.06
3680.28	2880.17
3681.46	2853.27
3682.64	2948.38
3683.82	2910.48
3685.01	2816.59
3686.19	2888.7
3687.37	2893.8
3688.55	2835.91
3689.74	2901.01
3690.92	2875.12
3692.1	2886.22
3693.28	2833.33
3694.46	2887.44
3695.64	2879.54
3696.82	2875.65
3698	2878.75
3699.18	2893.86
3700.36	2871.96
3701.54	2867.07
3702.72	2888.17
3703.9	2862.28
3705.08	2880.39
3706.26	2893.49
3707.44	2912.6
3708.62	2858.7
3709.8	2899.81
3710.98	2869.91
3712.15	2854.02
3713.33	2878.13
3714.51	2880.23
3715.69	2887.34
3716.86	2842.44
3718.04	2857.55
3719.22	2881.65
3720.4	2878.76
3721.57	2915.87
3722.75	2886.97
3723.92	2889.08
3725.1	2890.18
3726.28	2923.29
3727.45	2905.39
3728.63	2884.5
3729.8	2880.6
3730.98	2935.71
3732.15	2904.82
3733.33	2930.92
3734.5	2937.03
3735.68	2914.13
3736.85	2950.24
3738.02	2879.34
3739.2	2948.45
3740.37	2909.56
3741.54	2950.66
3742.72	2893.77
3743.89	2913.87
3745.06	2845.98
3746.23	2942.08
3747.41	2944.19
3748.58	2948.3
3749.75	2974.4
3750.92	2916.51
3752.09	2902.61
3753.27	2944.72
3754.44	2987.82
3755.61	2949.93
3756.78	2956.04
3757.95	2943.14
3759.12	2963.25
3760.29	2915.35
3761.46	2917.46
3762.63	2968.56
3763.8	2960.67
3764.97	2937.78
3766.14	2937.88
3767.3	2911.99
3768.47	2971.09
3769.64	2937.2
3770.81	2964.3
3771.98	2973.41
3773.15	2974.51
3774.32	2910.62
3775.48	2953.73
3776.65	2964.83
3777.82	2948.94
3778.99	2941.04
3780.15	2966.15
3781.32	2954.25
3782.48	2961.36
3783.65	2923.47
3784.82	2957.57
3785.98	2910.68
3787.15	2975.78
3788.31	2922.89
3789.48	2936.99
3790.64	2922.1
3791.81	2913.21
3792.97	2892.31
3794.14	2976.42
3795.3	2939.52
3796.47	2923.63
3797.63	2923.73
3798.79	2953.84
3799.96	2893.95
3801.12	2865.05
3802.28	2923.16
3803.45	2880.26
3804.61	2898.37
3805.77	2920.47
3806.93	2883.58
3808.1	2922.69
3809.26	2899.79
3810.42	2838.9
3811.58	2898
3812.74	2872.11
3813.9	2893.21
3815.07	2885.32
3816.23	2855.42
3817.39	2823.53
3818.55	2912.64
3819.71	2876.74
3820.87	2806.85
3822.03	2866.95
3823.19	2806.06
3824.35	2891.16
3825.51	2889.27
3826.67	2883.38
3827.82	2837.48
3828.98	2866.59
3830.14	2841.69
3831.3	2883.8
3832.46	2885.9
3833.62	2822.01
3834.77	2849.12
3835.93	2880.22
3837.09	2869.33
3838.25	2864.43
3839.4	2838.54
3840.56	2792.64
3841.72	2774.75
3842.87	2820.85
3844.03	2860.96
3845.19	2874.07
3846.34	2835.17
3847.5	2851.28
3848.65	2805.38
3849.81	2842.49
3850.96	2857.59
3852.12	2838.7
3853.27	2822.81
3854.43	2847.91
3855.58	2859.02
3856.73	2849.12
3857.89	2823.23
3859.04	2831.33
3860.2	2874.44
3861.35	2848.55
3862.5	2806.65
3863.66	2840.76
3864.81	2807.86
3865.96	2776.97
3867.11	2852.07
3868.27	2817.18
3869.42	2851.29
3870.57	2842.39
3871.72	2863.5
3872.87	2836.6
3874.02	2865.71
3875.18	2880.81
3876.33	2869.92
3877.48	2860.02
3878.63	2867.13
3879.78	2885.24
3880.93	2848.34
3882.08	2894.45
3883.23	2872.55
3884.38	2848.66
3885.53	2891.76
3886.68	2865.87
3887.82	2910.98
3888.97	2888.08
3890.12	2849.19
3891.27	2881.29
3892.42	2888.4
3893.57	2912.5
3894.72	2896.61
3895.86	2853.72
3897.01	2883.82
3898.16	2915.93
3899.3	2911.03
3900.45	2892.14
3901.6	2886.24
3902.74	2899.35
3903.89	2907.46
3905.04	2862.56
3906.18	2895.67
3907.33	2935.77
3908.47	2924.88
3909.62	2911.98
3910.76	2887.09
3911.91	2904.2
3913.05	2917.3
3914.2	2897.41
3915.34	2919.51
3916.49	2876.62
3917.63	2949.72
3918.78	2909.83
3919.92	2910.93
3921.06	2899.04
3922.21	2917.15
3923.35	2862.25
3924.49	2873.36
3925.64	2905.46
3926.78	2822.57
3927.92	2888.67
3929.06	2838.78
3930.2	2924.89
3931.35	2868.99
3932.49	2859.1
3933.63	2907.2
3934.77	2921.31
3935.91	2907.41
3937.05	2851.52
3938.19	2902.63
3939.33	2803.73
3940.47	2861.84
3941.61	2890.94
3942.75	2884.05
3943.89	2902.15
3945.03	2861.26
3946.17	2901.37
3947.31	2843.47
3948.45	2868.58
3949.59	2882.68
3950.73	2853.79
3951.87	2866.89
3953.01	2855
3954.14	2892.1
3955.28	2875.21
3956.42	2861.32
3957.56	2853.42
3958.69	2874.53
3959.83	2849.63
3960.97	2858.74
3962.1	2857.84
3963.24	2844.95
3964.38	2818.06
3965.51	2852.16
3966.65	2840.27
3967.79	2837.37
3968.92	2808.48
3970.06	2814.58
3971.19	2849.69
3972.33	2786.8
3973.46	2848.9
3974.6	2823.01
3975.73	2801.11
3976.87	2825.22
3978	2807.32
3979.13	2821.43
3980.27	2830.54
3981.4	2824.64
3982.53	2826.75
3983.67	2814.85
3984.8	2810.96
3985.93	2784.06
3987.07	2810.17
3988.2	2791.27
3989.33	2803.38
3990.46	2772.49
3991.6	2770.59
3992.73	2827.7
3993.86	2815.8
3994.99	2838.91
3996.12	2818.01
3997.25	2828.12
3998.38	2808.23
3999.51	2834.33
