#Acq. time (s)=	25
#Accumulations=	3
#Range (cm-¹)=	100...4000
#Windows=	3
#Autofocus=	Off
#AutoExposure=	Off
#Spike filter=	Multiple accum.
#Delay time (s)=	0
#Binning=	1
#Readout mode=	Signal
#DeNoise=	Off
#ICS correction=	Off
#Dark correction=	Off
#Inst. Process=	Off
#Instrument=	LabRAM HR Evol
#Detector=	Syncerity OE
#Objective=	x100_VIS
#Grating=	600 (500nm)
#ND Filter=	10%
#Laser=	532nm_Edge
#Hole=	150.001
#Range=	Visible
#Project=	Omar
#Sample=	
#Site=	02-05-23
#Title=	roy_mg_r2
#Remark=	
#Date=	02.05.2023 17:32
#Acquired=	02.05.2023 17:32:13
101.414	7083
103.248	7173.24
105.083	7181.47
106.916	7286.71
108.751	7331.95
110.583	7438.18
112.417	7508.42
114.249	7560.66
116.08	7485.89
117.913	7539.13
119.743	7569.37
121.575	7470.6
123.405	7501.84
125.234	7496.08
127.065	7474.31
128.894	7433.55
130.724	7493.79
132.552	7552.02
134.38	7486.26
136.209	7551.5
138.036	7715.73
139.862	7698.97
141.691	7659.21
143.516	7669.45
145.342	7779.68
147.167	7840.92
148.994	7801.16
150.818	7833.39
152.642	7853.63
154.468	7839.87
156.291	7846.1
158.114	7845.34
159.936	7851.58
161.761	7853.81
163.583	7911.05
165.404	7908.29
167.225	7933.52
169.048	7939.76
170.868	7917
172.689	7959.23
174.508	7876.47
176.328	8003.71
178.149	7952.94
179.967	7945.18
181.786	8003.42
183.603	8016.65
185.421	8060.89
187.24	8112.13
189.057	8047.36
190.874	8143.6
192.69	8055.84
194.506	8072.08
196.321	8088.31
198.136	8119.55
199.953	8187.79
201.767	8191.02
203.581	8140.26
205.395	8189.5
207.208	8226.73
209.021	8160.97
210.834	8210.21
212.646	8227.44
214.458	8106.68
216.27	8243.92
218.081	8190.15
219.892	8177.39
221.702	8168.63
223.514	8167.86
225.324	8198.1
227.133	8214.34
228.943	8152.57
230.751	8186.81
232.56	8205.05
234.368	8196.28
236.175	8167.52
237.983	8205.76
239.79	8187.99
241.594	8273.23
243.4	8327.47
245.206	8250.7
247.012	8299.94
248.817	8302.18
250.622	8402.42
252.426	8433.65
254.23	8438.89
256.034	8370.13
257.838	8473.36
259.641	8357.6
261.444	8474.83
263.246	8430.07
265.048	8503.31
266.848	8484.54
268.649	8528.78
270.45	8417.02
272.251	8393.26
274.051	8383.49
275.851	8440.73
277.65	8458.97
279.447	8400.2
281.246	8424.44
283.045	8381.68
284.843	8370.91
286.641	8441.15
288.436	8404.39
290.233	8416.62
292.03	8427.86
293.827	8483.1
295.623	8431.33
297.416	8439.57
299.212	8454.81
301.007	8486.04
302.802	8566.28
304.594	8572.52
306.388	8601.75
308.182	8650.99
309.973	8623.23
311.766	8630.46
313.558	8699.7
315.351	8681.94
317.14	8608.18
318.932	8745.41
320.723	8664.65
322.512	8719.88
324.303	8746.12
326.093	8734.36
327.88	8707.6
329.67	8640.83
331.459	8764.07
333.246	8681.31
335.034	8768.54
336.822	8776.78
338.608	8695.02
340.395	8598.25
342.18	8635.49
343.967	8714.73
345.754	8717.96
347.538	8687.2
349.323	8761.44
351.106	8716.67
352.891	8653.91
354.674	8724.15
356.458	8733.38
358.24	8760.62
360.024	8788.86
361.805	8735.09
363.588	8694.33
365.37	8724.57
367.151	8765.8
368.933	8839.04
370.712	8822.28
372.493	8855.52
374.272	8798.75
376.05	8876.99
377.831	9016.22
379.608	8817.46
381.388	8914.7
383.165	8940.94
384.944	9039.17
386.72	8983.41
388.498	8995.65
390.274	9034.88
392.049	9065.12
393.826	8946.36
395.601	9021.59
397.377	9055.83
399.151	9106.07
400.925	9155.3
402.7	9124.54
404.473	9112.78
406.246	8954.01
408.02	9014.25
409.792	9012.49
411.566	9091.72
413.337	9054.96
415.108	9009.2
416.881	9040.43
418.651	9038.67
420.421	8978.91
422.19	8958.14
423.961	8952.38
425.73	8978.62
427.499	9025.85
429.269	8996.09
431.037	9070.33
432.804	9201.56
434.572	9079.8
436.34	8999.04
438.107	9005.27
439.873	9027.51
441.639	9105.75
443.404	9115.99
445.171	8966.22
446.936	9155.46
448.701	9142.7
450.465	9205.93
452.228	9208.17
453.994	9236.41
455.757	9290.64
457.52	9337.88
459.282	9376.12
461.044	9323.35
462.806	9356.59
464.569	9425.83
466.33	9341.06
468.091	9407.3
469.852	9517.54
471.612	9456.77
473.371	9457.01
475.131	9538.25
476.89	9540.48
478.648	9586.72
480.407	9531.96
482.165	9580.19
483.924	9585.43
485.682	9451.67
487.439	9482.91
489.195	9462.14
490.952	9481.38
492.708	9548.61
494.463	9498.85
496.219	9433.09
497.974	9528.33
499.728	9500.56
501.482	9434.8
503.236	9453.04
504.99	9602.27
506.743	9484.51
508.496	9517.75
510.249	9511.98
512.001	9458.22
513.751	9493.46
515.503	9421.69
517.254	9497.93
519.005	9561.17
520.755	9568.4
522.506	9571.64
524.256	9564.88
526.005	9538.11
527.755	9604.35
529.503	9520.59
531.252	9603.82
532.998	9713.06
534.746	9712.3
536.494	9689.53
538.241	9689.77
539.988	9771.01
541.734	9675.24
543.479	9747.48
545.225	9792.72
546.97	9725.95
548.715	9859.19
550.46	9849.43
552.203	9870.67
553.947	9875.9
555.691	9874.14
557.435	9917.38
559.178	9892.61
560.919	9822.85
562.661	9851.09
564.404	9882.32
566.143	9963.56
567.885	9839.8
569.626	9901.03
571.367	9968.27
573.106	9819.51
574.846	9876.74
576.586	9913.98
578.323	9842.22
580.063	9866.45
581.802	9921.69
583.538	9894.93
585.276	9849.16
587.014	9967.4
588.75	10047.6
590.487	9864.87
592.224	9930.11
593.959	9941.35
595.695	9903.58
597.429	9996.82
599.165	9944.06
600.9	9886.29
602.633	9996.53
604.367	9990.77
606.1	10015
607.834	9948.24
609.565	9920.48
611.299	9918.71
613.031	10037
614.762	10082.2
616.494	10060.4
618.224	10124.7
619.956	10069.9
621.685	10216.1
623.416	10152.4
625.145	10205.6
626.875	10150.8
628.603	10164.1
630.333	10226.3
632.06	10318.6
633.789	10232.8
635.516	10331
637.242	10455.3
638.97	10309.5
640.696	10464.7
642.423	10407
644.148	10365.2
645.875	10472.5
647.599	10370.7
649.323	10449.9
651.049	10402.2
652.773	10448.4
654.496	10380.6
656.22	10470.9
657.943	10480.1
659.667	10398.3
661.389	10531.6
663.11	10465.8
664.833	10388.1
666.554	10424.3
668.274	10494.5
669.994	10549.8
671.716	10487
673.436	10479.2
675.155	10459.5
676.876	10410.7
678.594	10543.9
680.312	10450.2
682.03	10482.4
683.75	10472.7
685.467	10455.9
687.184	10387.1
688.9	10443.4
690.618	10396.6
692.334	10502.8
694.05	10440.1
695.765	10429.3
697.48	10459.6
699.196	10434.8
700.911	10529
702.625	10484.3
704.338	10495.5
706.052	10469.7
707.764	10585
709.477	10546.2
711.191	10535.4
712.903	10643.7
714.615	10513.9
716.326	10597.2
718.037	10573.4
719.748	10632.6
721.458	10653.9
723.168	10587.1
724.878	10609.3
726.588	10646.6
728.299	10635.8
730.007	10626.1
731.716	10787.3
733.424	10620.5
735.132	10631.8
736.839	10711
738.546	10681.2
740.253	10713.5
741.959	10620.7
743.666	10763.9
745.371	10677.2
747.077	10676.4
748.782	10678.7
750.487	10649.9
752.192	10657.1
753.896	10687.4
755.6	10720.6
757.301	10754.8
759.005	10730.1
760.707	10715.3
762.41	10581.6
764.112	10643.8
765.814	10717
767.516	10768.3
769.217	10573.5
770.918	10687.7
772.619	10643
774.317	10653.2
776.017	10668.4
777.717	10626.7
779.417	10707.9
781.116	10692.2
782.814	10691.4
784.511	10632.6
786.209	10741.9
787.907	10609.1
789.604	10711.3
791.301	10674.6
792.996	10763.8
794.693	10684
796.389	10573.3
798.085	10719.5
799.779	10634.8
801.474	10702
803.169	10761.2
804.863	10718.5
806.556	10649.7
808.25	10721.9
809.943	10840.2
811.637	10806.4
813.328	10793.7
815.02	10803.9
816.713	10718.1
818.403	10721.4
820.094	10747.6
821.786	10843.8
823.475	10848.1
825.166	10882.3
826.856	10811.5
828.544	10884.8
830.234	10873
831.922	10915.3
833.611	10844.5
835.3	10948.7
836.986	10823
838.675	11012.2
840.361	10917.4
842.048	10964.7
843.734	10961.9
845.421	11055.2
847.107	10994.4
848.792	10979.6
850.478	11031.9
852.161	10971.1
853.847	10935.3
855.53	11006.6
857.215	10956.8
858.897	11023
860.581	10903.3
862.263	10924.5
863.947	10995.8
865.628	11046
867.309	10995.2
868.991	10996.5
870.671	11091.7
872.353	11022.9
874.033	11073.2
875.714	10998.4
877.393	11014.6
879.072	10974.9
880.752	10983.1
882.43	10957.4
884.11	10944.6
885.788	11004.8
887.465	11042.1
889.143	11067.3
890.82	11005.5
892.496	11005.8
894.174	10973
895.849	11021.3
897.525	10927.5
899.202	11045.7
900.876	11051
902.55	11010.2
904.226	10970.4
905.9	11063.7
907.573	11149.9
909.246	11074.1
910.921	11060.4
912.594	11023.6
914.266	11154.9
915.938	11055.1
917.611	11054.3
919.282	11022.6
920.953	11188.8
922.623	11194
924.294	11188.3
925.966	11307.5
927.635	11225.8
929.304	11247
930.973	11174.2
932.642	11250.5
934.31	11248.7
935.98	11188.9
937.648	11261.2
939.316	11314.4
940.983	11358.6
942.649	11381.9
944.316	11331.1
945.982	11339.4
947.648	11382.6
949.314	11314.8
950.981	11306.1
952.646	11333.3
954.31	11376.5
955.975	11350.8
957.639	11403
959.302	11514.3
960.966	11472.5
962.629	11345.7
964.292	11403
965.954	11540.2
967.616	11535.4
969.278	11449.7
970.939	11502.9
972.601	11468.1
974.262	11436.4
975.922	11491.6
977.582	11502.9
979.242	11491.1
980.902	11433.3
982.561	11442.6
984.219	11467.8
985.877	11340
987.536	11449.3
989.194	11454.5
990.852	11488.8
992.509	11435
994.166	11411.2
995.823	11462.5
997.48	11400.7
999.134	11444.9
1000.79	11473.2
1002.45	11325.4
1004.1	11511.6
1005.76	11424.9
1007.41	11437.1
1009.06	11396.4
1010.72	11383.6
1012.37	11400.8
1014.02	11397.1
1015.68	11531.3
1017.33	11464.5
1018.98	11455.8
1020.63	11506
1022.29	11428.2
1023.94	11533.5
1025.59	11508.7
1027.24	11535
1028.89	11452.2
1030.54	11557.4
1032.19	11590.7
1033.84	11502.9
1035.48	11675.1
1037.13	11591.4
1038.78	11605.6
1040.43	11769.9
1042.08	11566.1
1043.73	11533.3
1045.37	11630.6
1047.02	11669.8
1048.66	11659
1050.31	11787.3
1051.96	11657.5
1053.6	11685.7
1055.25	11812
1056.89	11763.2
1058.54	11717.5
1060.18	11838.7
1061.82	11823.9
1063.47	11864.2
1065.11	11916.4
1066.75	11812.6
1068.4	11887.9
1070.04	11936.1
1071.68	11871.4
1073.32	12014.6
1074.96	11975.8
1076.6	12056.1
1078.24	11872.3
1079.88	11892.5
1081.52	11930.8
1083.16	12021
1084.8	11821.2
1086.44	11976.5
1088.08	11926.7
1089.72	11977
1091.36	11943.2
1092.99	11937.4
1094.63	11968.7
1096.27	12014.9
1097.91	12071.1
1099.54	11950.4
1101.18	11917.6
1102.82	11981.9
1104.45	11999.1
1106.08	11852.3
1107.72	12037.6
1109.35	12019.8
1110.99	11983
1112.62	11955.3
1114.26	11924.5
1115.89	12067.7
1117.52	12061
1119.16	11999.2
1120.79	11977.5
1122.42	11927.7
1124.05	11950.9
1125.68	11971.2
1127.31	12045.4
1128.94	11993.6
1130.57	12032.9
1132.2	11878.1
1133.83	12035.3
1135.46	11993.6
1137.09	12077.8
1138.72	12016.1
1140.35	11928.3
1141.98	12024.5
1143.61	11955.8
1145.23	12079
1146.86	12100.2
1148.49	12071.5
1150.12	12103.7
1151.74	12077
1153.37	12110.2
1154.99	12150.4
1156.62	12136.7
1158.24	12154.9
1159.87	12185.1
1161.49	12120.4
1163.12	12216.6
1164.74	12265.8
1166.36	12319.1
1167.99	12283.3
1169.61	12387.6
1171.23	12367.8
1172.86	12394
1174.48	12423.3
1176.1	12537.5
1177.72	12445.7
1179.34	12423
1180.96	12524.2
1182.58	12525.5
1184.2	12675.7
1185.82	12683.9
1187.44	12574.2
1189.06	12721.4
1190.68	12627.6
1192.3	12591.9
1193.91	12621.1
1195.53	12627.3
1197.15	12696.6
1198.77	12692.8
1200.38	12721.1
1202	12703.3
1203.62	12560.5
1205.23	12713.8
1206.85	12725
1208.46	12642.2
1210.08	12761.5
1211.69	12774.7
1213.31	12636
1214.92	12764.2
1216.54	12846.4
1218.15	12838.7
1219.76	12864.9
1221.38	12869.1
1222.99	12818.4
1224.6	12912.6
1226.21	12761.8
1227.82	12845.1
1229.43	12924.3
1231.05	12879.6
1232.66	12998.8
1234.27	12796
1235.88	12820.3
1237.49	12885.5
1239.1	12880.7
1240.71	13045
1242.31	12890.2
1243.92	12932.4
1245.53	12987.7
1247.14	12984.9
1248.75	12808.2
1250.35	12955.4
1251.96	12951.6
1253.57	12976.9
1255.17	12983.1
1256.78	13013.3
1258.39	12930.6
1259.99	12931.8
1261.6	12996.1
1263.2	13157.3
1264.8	13093.5
1266.41	13185.8
1268.01	13124
1269.62	13178.2
1271.22	13195.5
1272.82	13170.7
1274.43	13251.9
1276.03	13217.2
1277.63	13247.4
1279.23	13262.7
1280.83	13281.9
1282.43	13353.1
1284.04	13392.4
1285.64	13369.6
1287.23	13413.8
1288.84	13409.1
1290.43	13406.3
1292.03	13528.6
1293.63	13376.8
1295.23	13519
1296.83	13502.3
1298.43	13510.5
1300.03	13457.7
1301.62	13549
1303.22	13608.2
1304.82	13605.4
1306.41	13678.7
1308.01	13594.9
1309.61	13706.2
1311.2	13710.4
1312.8	13785.6
1314.39	13801.9
1315.99	13727.1
1317.58	13815.3
1319.17	13921.6
1320.77	13887.8
1322.36	13907
1323.95	13789.3
1325.55	13724.5
1327.14	13641.8
1328.73	13816
1330.32	13828.2
1331.92	13822
1333.51	13815.7
1335.1	13743.9
1336.69	13822.2
1338.28	13836.4
1339.87	13939.7
1341.46	13878.9
1343.05	13806.1
1344.64	13918.4
1346.23	13864.6
1347.81	13888.8
1349.4	13824.1
1350.99	13841.3
1352.58	13848.5
1354.17	13847.8
1355.75	13807
1357.34	13727.3
1358.92	13852.5
1360.51	13878.7
1362.1	13884
1363.68	13776.2
1365.27	13887.4
1366.85	13800.7
1368.44	13760.9
1370.02	13885.2
1371.6	13931.4
1373.19	13899.6
1374.77	13780.9
1376.35	13715.1
1377.94	13832.3
1379.52	13876.6
1381.1	13833.8
1382.68	13875
1384.27	13878.3
1385.85	13958.5
1387.43	13950.8
1389.01	14013
1390.59	13870.2
1392.17	13940.5
1393.75	13941.7
1395.33	13978.9
1396.91	14011.2
1398.49	13995.4
1400.06	13987.7
1401.64	14116.9
1403.22	14026.1
1404.8	14096.4
1406.37	14073.6
1407.95	14040.8
1409.53	14035.1
1411.11	14186.3
1412.68	14112.5
1414.26	14092.8
1415.83	14089
1417.41	14163.3
1418.98	14047.5
1420.56	14062.7
1422.13	14296
1423.71	14213.2
1425.28	14246.4
1426.85	14152.7
1428.43	14137.9
1430	14239.2
1431.57	14180.4
1433.14	14323.6
1434.72	14213.9
1436.29	14153.1
1437.86	14182.3
1439.43	14351.6
1441	14184.8
1442.57	14210
1444.14	14229.3
1445.71	14305.5
1447.28	14301.8
1448.85	14168
1450.42	14203.2
1451.99	14168.5
1453.55	14243.7
1455.12	14194.9
1456.69	14196.2
1458.26	14115.4
1459.82	14204.6
1461.39	14221.9
1462.96	14163.1
1464.52	14146.4
1466.09	14103.6
1467.66	14294.8
1469.22	14298.1
1470.79	14141.3
1472.35	14209.5
1473.92	14224.8
1475.48	14237
1477.04	14155.3
1478.61	14214.5
1480.17	14181.7
1481.73	14242
1483.29	14224.2
1484.86	14158.4
1486.42	14126.7
1487.98	14272.9
1489.54	14177.1
1491.1	14343.4
1492.67	14245.6
1494.23	14259.9
1495.78	14379.1
1497.35	14184.3
1498.91	14318.6
1500.46	14331.8
1502.02	14309
1503.58	14349.3
1505.14	14439.5
1506.7	14456.8
1508.26	14546
1509.81	14494.2
1511.37	14548.5
1512.93	14467.7
1514.49	14556.9
1516.04	14536.2
1517.6	14587.4
1519.15	14682.6
1520.71	14666.9
1522.26	14608.1
1523.82	14729.4
1525.37	14815.6
1526.93	14843.8
1528.48	14807.1
1530.04	14900.3
1531.59	14909.5
1533.14	14958.8
1534.69	15027
1536.25	15016.3
1537.8	14942.5
1539.35	15134.7
1540.9	14969
1542.46	15040.2
1544.01	15117.4
1545.56	15241.7
1547.11	15088.9
1548.66	15163.1
1550.21	15189.4
1551.76	15361.6
1553.31	15185.9
1554.86	15334.1
1556.4	15189.3
1557.95	15361.6
1559.5	15270.8
1561.05	15200
1562.6	15314.3
1564.14	15306.5
1565.69	15246.7
1567.24	15254
1568.78	15328.2
1570.33	15279.5
1571.87	15273.7
1573.42	15242.9
1574.96	15351.2
1576.51	15288.4
1578.05	15241.6
1579.6	15298.9
1581.14	15164.1
1582.69	15228.4
1584.23	15240.6
1585.77	15204.8
1587.32	15104.1
1588.86	15030.3
1590.4	15166.5
1591.94	15218.8
1593.48	15168
1595.03	15077.2
1596.57	15150.5
1598.11	15023.7
1599.65	14967
1601.19	15096.2
1602.73	15068.4
1604.27	14940.7
1605.81	14878.9
1607.35	15067.1
1608.89	14953.4
1610.42	14742.6
1611.96	14840.9
1613.5	14831.1
1615.04	14682.3
1616.57	14716.6
1618.11	14735.8
1619.65	14698
1621.18	14794.3
1622.72	14690.5
1624.26	14635.7
1625.79	14565
1627.33	14534.2
1628.86	14629.5
1630.4	14486.7
1631.93	14579.9
1633.47	14507.2
1635	14563.4
1636.53	14506.6
1638.07	14505.9
1639.6	14581.1
1641.13	14468.3
1642.66	14464.6
1644.2	14383.8
1645.73	14462.1
1647.26	14385.5
1648.79	14537.7
1650.32	14497.5
1651.85	14299.8
1653.38	14396
1654.91	14488.2
1656.44	14211.8
1657.97	14299.1
1659.5	14422.4
1661.03	14130.1
1662.56	14318.9
1664.09	14233.6
1665.62	14255.3
1667.14	14283.9
1668.67	14241.5
1670.2	14241
1671.72	14323.2
1673.25	14175.6
1674.78	14206.9
1676.3	14169.5
1677.83	14173.1
1679.35	14149.9
1680.88	14194.9
1682.41	14195.6
1683.93	14234.9
1685.45	14099.9
1686.98	14127.5
1688.5	14266.9
1690.03	14096.9
1691.55	14091.8
1693.07	14151.5
1694.59	14090.8
1696.12	14150.2
1697.64	14085.6
1699.16	14044.4
1700.68	13996.2
1702.2	14017.4
1703.72	14050.8
1705.24	13995.8
1706.76	13966.2
1708.28	14002.8
1709.8	13907.2
1711.32	13932.9
1712.84	13907.6
1714.36	13843.7
1715.88	13929
1717.4	13811.9
1718.92	13847.7
1720.43	13865.1
1721.95	13839.5
1723.47	13873.6
1724.98	13739.9
1726.5	13759.4
1728.02	13814.5
1729.53	13759.6
1731.05	13763.9
1732.56	13776.6
1734.08	13713.9
1735.59	13683
1737.11	13699.8
1738.62	13719.3
1740.14	13684.8
1741.65	13684.8
1743.16	13676.6
1744.68	13712.9
1746.19	13655
1747.7	13612.8
1749.21	13597.7
1750.73	13675.5
1752.24	13666
1753.75	13640.5
1755.26	13642.7
1756.77	13630.9
1758.28	13636.9
1759.79	13623.8
1761.3	13707.6
1762.81	13672.9
1764.32	13681.3
1765.83	13711.6
1767.34	13685.2
1768.85	13676.6
1770.36	13686.7
1771.87	13683.5
1773.37	13710.8
1774.88	13731.7
1776.39	13764.2
1777.9	13757.1
1779.4	13700.4
1780.91	13625
1782.41	13682.9
1783.92	13682
1785.42	13723.6
1786.93	13755.6
1788.43	13708.2
1789.94	13723.2
1791.44	13737.4
1792.95	13720.3
1794.45	13727.6
1795.95	13702.8
1797.46	13751.1
1798.96	13786.1
1799.54	13779.1
1801.05	13735.7
1802.56	13673.3
1804.06	13644
1805.57	13714.6
1807.08	13806.3
1808.59	13795.9
1810.1	13807.6
1811.6	13722.2
1813.11	13809.8
1814.62	13728.5
1816.12	13710.1
1817.63	13836.8
1819.14	13705.4
1820.64	13725
1822.15	13756.7
1823.65	13787.3
1825.16	13788
1826.66	13661.6
1828.17	13778.2
1829.67	13776.9
1831.17	13769.5
1832.68	13702.2
1834.18	13758.8
1835.68	13733.4
1837.19	13675.1
1838.69	13762.7
1840.19	13758.4
1841.69	13721
1843.19	13817.6
1844.7	13723.3
1846.2	13776.9
1847.7	13668.6
1849.2	13754.2
1850.7	13684.8
1852.2	13654.5
1853.7	13696.1
1855.2	13714.8
1856.69	13582.4
1858.19	13573
1859.69	13731.7
1861.19	13530.3
1862.69	13616
1864.19	13635.6
1865.68	13612.2
1867.18	13623.9
1868.68	13603.5
1870.17	13611.2
1871.67	13696.8
1873.16	13555.4
1874.66	13652.1
1876.15	13679.7
1877.65	13615.4
1879.14	13682
1880.64	13668.6
1882.13	13625.3
1883.63	13645.9
1885.12	13622.6
1886.61	13665.2
1888.11	13572.8
1889.6	13646.5
1891.09	13654.1
1892.59	13665.5
1894.08	13603.8
1895.57	13642.2
1897.06	13683.5
1898.55	13709.9
1900.04	13689.3
1901.53	13707.6
1903.02	13659
1904.51	13712.3
1906	13658.7
1907.49	13650
1908.98	13823.4
1910.47	13785.8
1911.96	13747.1
1913.45	13601.5
1914.94	13683.8
1916.43	13826.2
1917.91	13777.6
1919.4	13704.9
1920.89	13694.3
1922.37	13698.6
1923.86	13737
1925.35	13731.3
1926.83	13772.7
1928.32	13730.1
1929.8	13789.4
1931.29	13728.8
1932.77	13787.1
1934.26	13831.5
1935.74	13748.8
1937.23	13685.2
1938.71	13865.6
1940.2	13797.9
1941.68	13785.3
1943.16	13776.6
1944.64	13717
1946.13	13666.3
1947.61	13778.7
1949.09	13687.1
1950.57	13811.4
1952.05	13780.8
1953.53	13684.1
1955.02	13730.5
1956.49	13581.8
1957.98	13638.2
1959.46	13634.6
1960.93	13664.9
1962.41	13592.3
1963.89	13848.6
1965.37	13641
1966.85	13640.4
1968.33	13680.7
1969.81	13603.1
1971.29	13713.4
1972.76	13661.8
1974.24	13668.1
1975.72	13614.5
1977.19	13579.9
1978.67	13580.2
1980.15	13656.6
1981.62	13540.9
1983.1	13551.3
1984.57	13545.6
1986.05	13606
1987.52	13602.4
1989	13592.7
1990.47	13616.1
1991.95	13567.4
1993.42	13609.8
1994.89	13580.1
1996.37	13522.5
1997.84	13566.9
1999.31	13642.2
2000.78	13536.6
2002.26	13552.9
2003.73	13578.3
2005.2	13553.6
2006.67	13581
2008.14	13585.4
2009.61	13495.7
2011.08	13667.1
2012.55	13563.4
2014.02	13506.8
2015.49	13505.2
2016.96	13557.5
2018.43	13571.9
2019.9	13499.2
2021.37	13610.6
2022.84	13597.9
2024.3	13647.3
2025.77	13585.7
2027.24	13535
2028.71	13565.4
2030.17	13594.7
2031.64	13606.1
2033.11	13605.4
2034.57	13686.8
2036.04	13624.2
2037.51	13530.5
2038.97	13631.9
2040.44	13641.2
2041.9	13576.6
2043.37	13492.9
2044.83	13703.3
2046.29	13613.7
2047.76	13590
2049.22	13615.4
2050.68	13530.7
2052.15	13590.1
2053.61	13546.5
2055.07	13646.8
2056.53	13542.2
2058	13635.5
2059.46	13627.9
2060.92	13580.2
2062.38	13553.6
2063.84	13651
2065.3	13597.3
2066.76	13633.7
2068.22	13583
2069.68	13557.4
2071.14	13597.7
2072.6	13600.1
2074.06	13544.5
2075.52	13420.8
2076.98	13528.2
2078.43	13487.5
2079.89	13442.9
2081.35	13407.2
2082.81	13484.6
2084.26	13479
2085.72	13396.3
2087.18	13368.7
2088.63	13448
2090.09	13402.4
2091.54	13543.7
2093	13449.1
2094.45	13385.5
2095.91	13325.8
2097.36	13496.2
2098.82	13460.5
2100.27	13315.9
2101.73	13364.3
2103.18	13323.6
2104.63	13450
2106.09	13356.3
2107.54	13324.7
2108.99	13319
2110.44	13371.4
2111.9	13300.8
2113.35	13251.1
2114.8	13337.5
2116.25	13382.8
2117.7	13340.2
2119.15	13308.5
2120.6	13329.9
2122.05	13294.3
2123.5	13272.6
2124.95	13392
2126.4	13215.3
2127.85	13254.7
2129.3	13260
2130.75	13308.4
2132.19	13264.8
2133.64	13298.1
2135.09	13262.5
2136.54	13233.8
2137.99	13308.2
2139.43	13405.5
2140.88	13379.9
2142.33	13180.3
2143.77	13214.6
2145.22	13236
2146.66	13281.3
2148.11	13278.7
2149.55	13299.1
2151	13305.4
2152.44	13323.8
2153.89	13311.1
2155.33	13377.5
2156.77	13390.8
2158.22	13304.2
2159.66	13313.6
2161.1	13307.9
2162.55	13246.3
2163.99	13337.6
2165.43	13293
2166.88	13458.3
2168.32	13296.7
2169.76	13286.1
2171.2	13381.4
2172.64	13375.8
2174.08	13387.1
2175.52	13402.5
2176.96	13306.8
2178.4	13341.2
2179.84	13355.6
2181.28	13324.9
2182.72	13273.3
2184.16	13342.6
2185.6	13398
2187.03	13410.3
2188.47	13378.7
2189.91	13399.1
2191.35	13366.4
2192.78	13316.8
2194.22	13422.1
2195.66	13319.5
2197.09	13298.9
2198.53	13289.2
2199.97	13255.6
2201.4	13281.9
2202.84	13248.3
2204.27	13338.6
2205.71	13246
2207.14	13166.4
2208.58	13287.7
2210.01	13224.1
2211.44	13172.4
2212.88	13247.8
2214.31	13184.1
2215.74	13173.5
2217.18	13063.9
2218.61	13134.2
2220.04	13087.6
2221.47	13151.9
2222.91	12992.3
2224.34	13056.6
2225.77	13012
2227.2	13011.4
2228.63	13041.7
2230.06	13036.1
2231.49	12995.4
2232.92	12924.8
2234.35	12932.1
2235.78	12880.5
2237.21	12808.9
2238.64	12928.2
2240.07	12819.6
2241.49	12830.9
2242.92	12840.3
2244.35	12846.7
2245.78	12826
2247.2	12811.4
2248.63	12788.7
2250.06	12850.1
2251.49	12722.4
2252.91	12780.8
2254.34	12727.2
2255.76	12812.5
2257.19	12731.9
2258.61	12718.2
2260.04	12748.6
2261.46	12800.9
2262.89	12773.3
2264.31	12738.7
2265.74	12800
2267.16	12702.4
2268.58	12746.7
2270.01	12769.1
2271.43	12714.4
2272.85	12700.8
2274.27	12699.2
2275.7	12661.5
2277.12	12707.9
2278.54	12701.2
2279.96	12719.6
2281.38	12689.9
2282.8	12723.3
2284.22	12642.7
2285.64	12676
2287.06	12769.4
2288.48	12768.7
2289.9	12776.1
2291.32	12747.5
2292.74	12772.8
2294.16	12814.2
2295.58	12698.5
2297	12889.9
2298.41	12847.2
2299.83	12868.6
2301.25	12885
2302.67	12716.3
2304.09	12811.7
2305.5	12830
2306.92	12846.4
2308.33	12851.7
2309.75	12888.1
2311.17	12861.5
2312.58	12934.8
2314	12776.2
2315.41	12948.5
2316.83	12882.9
2318.24	12821.2
2319.66	12849.6
2321.07	12942
2322.48	12841.3
2323.9	12868.7
2325.31	12865
2326.72	12836.4
2328.13	12827.7
2329.55	12818.1
2330.96	12866.5
2332.37	12887.8
2333.78	12862.2
2335.19	12779.5
2336.6	12728.9
2338.02	12849.3
2339.43	12870.6
2340.84	12842
2342.25	12820.3
2343.66	12782.7
2345.07	12825
2346.47	12883.4
2347.88	12725.8
2349.29	12770.1
2350.7	12762.5
2352.11	12731.8
2353.52	12742.2
2354.93	12812.5
2356.33	12680.9
2357.74	12744.3
2359.15	12755.6
2360.55	12784
2361.96	12704.3
2363.37	12653.7
2364.77	12651
2366.18	12563.4
2367.58	12656.8
2368.99	12609.1
2370.39	12637.5
2371.8	12619.8
2373.2	12554.2
2374.61	12437.5
2376.01	12603.9
2377.42	12576.3
2378.82	12506.6
2380.22	12483
2381.63	12519.3
2383.03	12539.7
2384.43	12580.1
2385.83	12552.4
2387.23	12449.8
2388.64	12492.1
2390.04	12585.5
2391.44	12510.8
2392.84	12409.2
2394.24	12429.6
2395.64	12412.9
2397.04	12431.3
2398.44	12420.6
2399.84	12442
2401.24	12299.3
2402.64	12467.7
2404.04	12258.1
2405.44	12575.4
2406.83	12346.8
2408.23	12544.1
2409.63	12356.5
2411.03	12376.8
2412.43	12425.2
2413.82	12501.6
2415.22	12368.9
2416.62	12451.3
2418.01	12448.6
2419.41	12364
2420.81	12430.3
2422.2	12321.7
2423.6	12437.1
2424.99	12377.4
2426.39	12368.8
2427.78	12453.1
2429.18	12538.5
2430.57	12472.9
2431.96	12479.2
2433.36	12467.6
2434.75	12497.9
2436.14	12505.3
2437.54	12504.6
2438.93	12462
2440.32	12544.4
2441.71	12592.7
2443.11	12493.1
2444.5	12546.4
2445.89	12552.8
2447.28	12534.1
2448.67	12606.5
2450.06	12619.9
2451.45	12569.2
2452.84	12688.6
2454.23	12689.9
2455.62	12708.3
2457.01	12574.6
2458.4	12636
2459.79	12728.4
2461.18	12548.7
2462.57	12648.1
2463.95	12611.4
2465.34	12601.8
2466.73	12613.2
2468.12	12800.5
2469.5	12720.9
2470.89	12674.2
2472.28	12618.6
2473.66	12651.9
2475.05	12613.3
2476.44	12636.7
2477.82	12674
2479.21	12735.4
2480.59	12760.7
2481.98	12682.1
2483.36	12688.4
2484.75	12648.8
2486.13	12731.2
2487.51	12753.5
2488.9	12652.9
2490.28	12659.2
2491.66	12756.6
2493.05	12630.9
2494.43	12666.3
2495.81	12665.7
2497.19	12655
2498.58	12650.4
2499.96	12741.7
2501.34	12685.1
2502.72	12612.4
2504.1	12581.8
2505.48	12663.2
2506.86	12746.5
2508.24	12558.9
2509.62	12598.2
2511	12562.6
2512.38	12601
2513.76	12569.3
2515.14	12582.7
2516.52	12576
2517.9	12576.4
2519.28	12499.7
2520.65	12568.1
2522.03	12457.5
2523.41	12516.8
2524.79	12525.2
2526.16	12482.5
2527.54	12400.9
2528.92	12486.2
2530.29	12521.6
2531.67	12457
2533.04	12481.3
2534.42	12552.7
2535.8	12426
2537.17	12492.4
2538.54	12435.7
2539.92	12468.1
2541.29	12445.5
2542.67	12444.8
2544.04	12456.2
2545.41	12456.5
2546.79	12439.9
2548.16	12569.2
2549.53	12366.6
2550.91	12436
2552.28	12493.3
2553.65	12297.7
2555.02	12569
2556.39	12449.4
2557.77	12393.8
2559.14	12449.1
2560.51	12443.5
2561.88	12449.8
2563.25	12422.2
2564.62	12398.5
2565.99	12387.9
2567.36	12436.3
2568.73	12509.6
2570.1	12530
2571.47	12422.3
2572.83	12355.7
2574.2	12417
2575.57	12472.4
2576.94	12465.8
2578.31	12538.1
2579.67	12500.5
2581.04	12522.8
2582.41	12449.2
2583.77	12457.5
2585.14	12609.9
2586.51	12468.3
2587.87	12410.6
2589.24	12535
2590.6	12520.3
2591.97	12532.7
2593.33	12539
2594.7	12578.4
2596.06	12650.8
2597.43	12581.1
2598.79	12607.5
2600.15	12704.8
2601.52	12695.2
2602.88	12679.6
2604.24	12674.9
2605.61	12701.3
2606.97	12663.6
2608.33	12758
2609.7	12705.3
2611.06	12781.7
2612.42	12754.1
2613.78	12663.4
2615.14	12660.8
2616.5	12798.1
2617.86	12626.5
2619.22	12669.8
2620.58	12753.2
2621.94	12787.6
2623.3	12828.9
2624.66	12809.3
2626.02	12807.6
2627.38	12791
2628.74	12846.3
2630.1	12753.7
2631.45	12845.1
2632.81	12736.4
2634.17	12721.8
2635.53	12766.1
2636.88	12746.5
2638.24	12853.8
2639.6	12745.2
2640.96	12805.6
2642.31	12824.9
2643.67	12700.3
2645.02	12788.6
2646.38	12801
2647.73	12727.4
2649.09	12740.7
2650.44	12736.1
2651.8	12796.4
2653.15	12796.8
2654.51	12743.1
2655.86	12781.5
2657.21	12802.9
2658.57	12763.2
2659.92	12795.6
2661.27	12699.9
2662.63	12746.3
2663.98	12742.6
2665.33	12737
2666.68	12646.4
2668.03	12717.7
2669.38	12834.1
2670.74	12693.4
2672.09	12685.8
2673.44	12655.1
2674.79	12670.5
2676.14	12711.9
2677.49	12704.2
2678.84	12662.6
2680.19	12649.9
2681.54	12718.3
2682.89	12614.6
2684.23	12692
2685.58	12655.9
2686.93	12619.7
2688.28	12707.1
2689.63	12722.4
2690.98	12681.8
2692.32	12683.2
2693.67	12702.5
2695.02	12632.9
2696.36	12728.2
2697.71	12700.6
2699.05	12607.9
2700.4	12624.3
2701.75	12669.7
2703.09	12664
2704.44	12712.4
2705.78	12724.7
2707.13	12600.1
2708.47	12569.4
2709.82	12681.8
2711.16	12720.2
2712.5	12599.5
2713.85	12659.9
2715.19	12665.2
2716.53	12577.6
2717.88	12688.9
2719.22	12675.3
2720.56	12694.7
2721.9	12690
2723.25	12598.4
2724.59	12698.7
2725.93	12642.1
2727.27	12671.4
2728.61	12710.8
2729.95	12684.2
2731.29	12610.5
2732.63	12847.9
2733.97	12624.2
2735.31	12663.6
2736.65	12776
2737.99	12722.3
2739.33	12691.7
2740.67	12752
2742.01	12788.4
2743.35	12847.7
2744.68	12715.1
2746.02	12690.5
2747.36	12772.8
2748.7	12815.2
2750.03	12771.5
2751.37	12784.9
2752.71	12725.2
2754.04	12847.6
2755.38	12758
2756.71	12921.3
2758.05	12818.7
2759.39	12740
2760.72	12700.4
2762.06	12896.7
2763.39	12862.1
2764.72	12750.5
2766.06	12836.8
2767.39	12756.2
2768.73	12800.5
2770.06	12787.9
2771.39	12790.2
2772.73	12849.6
2774.06	12925
2775.39	12826.3
2776.72	12919.7
2778.06	12814
2779.39	12911.4
2780.72	12926.8
2782.05	12881.1
2783.38	12867.5
2784.72	12919.8
2786.04	12879.2
2787.38	12931.5
2788.71	12876.9
2790.04	12985.3
2791.37	12942.6
2792.7	12964
2794.03	12900.3
2795.35	12935.7
2796.68	12990
2798.01	12892.4
2799.34	12868.8
2800.67	12977.1
2802	12966.5
2803.32	12928.8
2804.65	12912.2
2805.98	12867.5
2807.3	12974.9
2808.63	12883.3
2809.96	12910.6
2811.29	12788
2812.61	12875.3
2813.94	12921.7
2815.26	12936
2816.59	12789.4
2817.91	12914.8
2819.24	12878.1
2820.56	13027.5
2821.89	12979.8
2823.21	12906.2
2824.53	12909.6
2825.86	12907.9
2827.18	12900.3
2828.5	12885.6
2829.83	12897
2831.15	12900.3
2832.47	12877.7
2833.79	12954.1
2835.12	12906.4
2836.44	12855.8
2837.76	12980.1
2839.08	12955.5
2840.4	12984.8
2841.73	13004.2
2843.04	12999.6
2844.37	12921.9
2845.69	12876.3
2847.01	12925.6
2848.33	12932
2849.65	12983.3
2850.96	13038.7
2852.28	12919.1
2853.6	13013.4
2854.92	12931.8
2856.24	12965.1
2857.56	13064.5
2858.87	12907.8
2860.19	13007.2
2861.51	13028.6
2862.83	13046.9
2864.14	12915.3
2865.46	12974.6
2866.78	12936
2868.09	12996.4
2869.41	13016.7
2870.73	13019.1
2872.04	13028.4
2873.36	13019.8
2874.67	13024.1
2875.99	12950.5
2877.3	13076.9
2878.62	13101.2
2879.93	13023.6
2881.24	13028.9
2882.56	13088.3
2883.87	13025.6
2885.18	12999
2886.5	13023.4
2887.81	12922.7
2889.12	12971.1
2890.43	13039.4
2891.75	13051.8
2893.06	12957.1
2894.37	13085.5
2895.68	12975.9
2896.99	13056.2
2898.3	12995.6
2899.61	13007.9
2900.93	13029.3
2902.24	12990.6
2903.55	13087
2904.86	12964.4
2906.17	13015.7
2907.48	12932.1
2908.78	12954.4
2910.09	12897.8
2911.4	12978.2
2912.71	12975.5
2914.02	12938.9
2915.33	12964.2
2916.63	13013.6
2917.94	12981.9
2919.25	13015.3
2920.56	12965.7
2921.86	12985
2923.17	12961.4
2924.48	12961.7
2925.78	12960.1
2927.09	12957.4
2928.39	12947.8
2929.7	12914.2
2931	12912.5
2932.31	12917.9
2933.61	12892.2
2934.92	12967.6
2936.22	12976.9
2937.53	12916.3
2938.83	12883.7
2940.13	12877
2941.44	12944.4
2942.74	12913.7
2944.04	12896.1
2945.35	12892.5
2946.65	12908.8
2947.95	12893.2
2949.25	12930.5
2950.55	12996.9
2951.86	12868.2
2953.16	12871.8
2954.46	12872.2
2955.76	12819.5
2957.06	12895.9
2958.36	12945.6
2959.66	12744.6
2960.96	12883.4
2962.26	12835.8
2963.56	12896.3
2964.86	12861.3
2966.16	12786.6
2967.46	12807.1
2968.76	12793.9
2970.05	12734.1
2971.35	12774.6
2972.65	12707.1
2973.95	12737.5
2975.24	12788.8
2976.54	12789.5
2977.84	12770.3
2979.14	12779.5
2980.43	12733.4
2981.73	12818.8
2983.02	12750.5
2984.32	12782.8
2985.62	12758.4
2986.91	12791
2988.21	12751.8
2989.5	12745.6
2990.8	12770.2
2992.09	12752.5
2993.39	12795.1
2994.68	12711.8
2995.97	12731.7
2997.27	12707.8
2998.56	12732.7
2999.85	12709.6
3001.15	12674.4
3002.44	12688.9
3003.73	12708.1
3005.02	12689.4
3006.32	12743.2
3007.61	12730.8
3008.9	12732.6
3010.19	12632.4
3011.48	12678.6
3012.77	12691.5
3014.06	12694.5
3015.35	12687.3
3016.64	12704.4
3017.93	12666.3
3019.22	12715.1
3020.51	12688.8
3021.8	12688.3
3023.09	12660.1
3024.38	12692.1
3025.67	12684.7
3026.96	12661.7
3028.25	12637.3
3029.53	12622.8
3030.82	12600.7
3032.11	12670.4
3033.4	12657
3034.68	12640
3035.97	12684.9
3037.26	12628
3038.54	12579.9
3039.83	12592.1
3041.12	12613.3
3042.4	12534.3
3043.69	12637.9
3044.97	12601
3046.26	12608.8
3047.54	12582.9
3048.83	12628.1
3050.11	12640
3051.4	12617.9
3052.68	12622.2
3053.96	12605.2
3055.25	12563.5
3056.53	12608.5
3057.81	12611.1
3059.1	12535.2
3060.38	12597
3061.66	12601.1
3062.94	12564.9
3064.23	12552.4
3065.51	12641.4
3066.79	12633.9
3068.07	12597
3069.35	12571.7
3070.63	12572.8
3071.91	12577.3
3073.19	12522.3
3074.47	12542.8
3075.75	12560.1
3077.03	12596.2
3078.31	12558.1
3079.59	12474.2
3080.87	12542.8
3082.15	12536.3
3082.23	12534.8
3083.52	12553
3084.8	12587.2
3086.08	12497.3
3087.37	12587.5
3088.65	12505.7
3089.94	12433.8
3091.22	12584
3092.5	12532.2
3093.79	12500.3
3095.07	12527.5
3096.35	12452.7
3097.63	12532.8
3098.92	12565
3100.2	12535.2
3101.48	12537.3
3102.76	12489.5
3104.04	12515.7
3105.32	12560.8
3106.6	12516
3107.88	12506.2
3109.16	12498.3
3110.44	12598.5
3111.72	12513.7
3113	12584.8
3114.28	12478
3115.56	12476.2
3116.84	12479.3
3118.12	12562.5
3119.4	12571.7
3120.67	12594.8
3121.95	12542
3123.23	12594.2
3124.51	12571.3
3125.79	12579.5
3127.06	12471.7
3128.34	12610.8
3129.62	12519
3130.89	12527.2
3132.17	12610.3
3133.44	12574.5
3134.72	12641.7
3136	12580.8
3137.27	12592
3138.55	12514.2
3139.82	12680.3
3141.1	12557.5
3142.37	12541.7
3143.65	12601.8
3144.92	12624
3146.19	12460.2
3147.47	12713.3
3148.74	12508.5
3150.01	12568.7
3151.29	12489.8
3152.56	12500
3153.83	12573.2
3155.1	12636.3
3156.38	12517.5
3157.65	12735.7
3158.92	12566.8
3160.19	12640
3161.46	12482.2
3162.73	12563.3
3164	12449.5
3165.28	12509.7
3166.54	12620.8
3167.81	12624
3169.09	12420.2
3170.35	12594.3
3171.62	12578.5
3172.89	12534.7
3174.16	12549.8
3175.43	12646
3176.7	12540.2
3177.97	12514.3
3179.24	12560.5
3180.5	12600.7
3181.77	12510.8
3183.04	12566
3184.31	12549.2
3185.57	12560.3
3186.84	12407.5
3188.11	12507.7
3189.38	12474.8
3190.64	12438
3191.91	12468.2
3193.17	12428.3
3194.44	12549.5
3195.7	12538.7
3196.97	12486.8
3198.23	12579
3199.5	12395.2
3200.76	12393.3
3202.03	12383.5
3203.29	12420.7
3204.55	12351.8
3205.82	12365
3207.08	12387.2
3208.35	12383.3
3209.61	12324.5
3210.87	12220.7
3212.13	12462.8
3213.4	12309
3214.66	12332.2
3215.92	12252.3
3217.18	12259.5
3218.44	12259.7
3219.7	12278.8
3220.97	12252
3222.23	12276.2
3223.49	12288.3
3224.75	12275.5
3226.01	12279.7
3227.27	12176.9
3228.53	12250
3229.79	12181.2
3231.05	12251.4
3232.31	12203.5
3233.56	12241.7
3234.82	12228.9
3236.08	12234
3237.34	12230.2
3238.6	12212.4
3239.86	12162.5
3241.11	12218.7
3242.37	12214.9
3243.63	12209
3244.88	12174.2
3246.14	12152.4
3247.4	12188.5
3248.65	12133.7
3249.91	12176.9
3251.17	12093
3252.42	12156.2
3253.68	12118.4
3254.93	12078.5
3256.19	12184.7
3257.44	12210.9
3258.7	12188
3259.95	12216.2
3261.21	12149.4
3262.46	12197.5
3263.71	12055.7
3264.97	12129.9
3266.22	12235
3267.47	12190.2
3268.73	12135.4
3269.98	12133.5
3271.23	12122.7
3272.48	12287.9
3273.74	12110
3274.99	12112.2
3276.24	12174.4
3277.49	12205.5
3278.74	12179.7
3279.99	12144.9
3281.24	12153
3282.49	12216.2
3283.74	12147.4
3284.99	12187.5
3286.24	12245.7
3287.49	12196.9
3288.74	12157
3289.99	12270.2
3291.24	12193.4
3292.49	12095.5
3293.74	12191.7
3294.99	12159.9
3296.23	12175
3297.48	12220.2
3298.73	12318.4
3299.98	12252.5
3301.23	12209.7
3302.47	12175.9
3303.72	12283
3304.97	12195.2
3306.21	12166.4
3307.46	12237.5
3308.71	12245.7
3309.95	12221.9
3311.2	12230
3312.44	12282.2
3313.69	12260.4
3314.93	12238.5
3316.18	12186.7
3317.42	12188.9
3318.67	12195
3319.91	12185.2
3321.15	12172.4
3322.4	12189.5
3323.64	12137.7
3324.88	12262.9
3326.13	12213
3327.37	12177.2
3328.61	12123.4
3329.86	12172.5
3331.1	12114.7
3332.34	12193.9
3333.58	12115
3334.82	12192.2
3336.07	12100.4
3337.31	12123.5
3338.55	12038.7
3339.79	12182.9
3341.03	12075
3342.27	12038.2
3343.51	12033.4
3344.75	12017.5
3345.99	12063.7
3347.23	12020.9
3348.47	12063
3349.71	12074.2
3350.95	12018.4
3352.18	12013.5
3353.42	12006.7
3354.66	11933.9
3355.9	11950
3357.14	11905.2
3358.38	12051.4
3359.61	11948.5
3360.85	11963.7
3362.09	11877.9
3363.32	11964
3364.56	11894.2
3365.8	11807.4
3367.03	11895.5
3368.27	11886.7
3369.5	11876.9
3370.74	11818
3371.98	11786.2
3373.21	11894.4
3374.45	11877.5
3375.68	11961.7
3376.91	11812.9
3378.15	11844
3379.38	11806.2
3380.62	11795.4
3381.85	11763.5
3383.08	11715.7
3384.32	11813.9
3385.55	11819
3386.78	11776.2
3388.02	11782.4
3389.25	11705.5
3390.48	11789.7
3391.71	11816.9
3392.94	11833
3394.17	11792.2
3395.41	11750.4
3396.64	11784.5
3397.87	11807.7
3399.1	11693.9
3400.33	11773
3401.56	11885.2
3402.79	11791.4
3404.02	11817.5
3405.25	11891.7
3406.48	11901.9
3407.71	11869
3408.94	11824.2
3410.17	11812.4
3411.4	11761.5
3412.62	11820.7
3413.85	11797.9
3415.08	11745
3416.31	11814.2
3417.54	11776.4
3418.76	11682.5
3419.99	11832.7
3421.22	11770.9
3422.44	11873
3423.67	11901.2
3424.9	11845.4
3426.12	11793.5
3427.35	11872.7
3428.57	11939.9
3429.8	11873
3431.02	11913.2
3432.25	11853.4
3433.48	11938.5
3434.7	11976.7
3435.92	11995.9
3437.15	11897
3438.37	11931.2
3439.6	11948.4
3440.82	11820.5
3442.04	11981.7
3443.27	11964.9
3444.49	11953
3445.71	11887.2
3446.94	11965.4
3448.16	11974.5
3449.38	11965.7
3450.6	11894.9
3451.82	11911
3453.05	11895.2
3454.27	11949.4
3455.49	11908.5
3456.71	12023.7
3457.93	11983.9
3459.15	12068
3460.37	12060.2
3461.59	11963.4
3462.81	11878.5
3464.03	11986.7
3465.25	12017.9
3466.47	11948
3467.69	11973.2
3468.91	11884.4
3470.13	11937.5
3471.34	11834.7
3472.56	11946.9
3473.78	11983
3475	11962.2
3476.22	11979.4
3477.43	11864.5
3478.65	11972.7
3479.87	11898.9
3481.08	11918
3482.3	11847.2
3483.52	11929.4
3484.73	11845.5
3485.95	11798.7
3487.17	11942.9
3488.38	11871
3489.6	11822.2
3490.81	11902.4
3492.03	11880.5
3493.24	11795.7
3494.46	11780.9
3495.67	11747
3496.89	11768.2
3498.1	11744.4
3499.31	11810.5
3500.53	11685.7
3501.74	11631.9
3502.95	11716
3504.17	11740.2
3505.38	11638.4
3506.59	11600.5
3507.8	11721.7
3509.02	11654.9
3510.23	11656
3511.44	11665.2
3512.65	11599.4
3513.86	11569.5
3515.07	11547.7
3516.29	11576.9
3517.5	11446
3518.71	11609.2
3519.92	11524.4
3521.13	11494.5
3522.34	11490.7
3523.55	11390.9
3524.76	11481
3525.96	11478.2
3527.17	11471.4
3528.38	11473.5
3529.59	11419.7
3530.8	11419.9
3532.01	11466
3533.22	11426.2
3534.42	11412.4
3535.63	11253.5
3536.84	11305.7
3538.05	11434.9
3539.25	11355
3540.46	11385.2
3541.67	11388.4
3542.87	11287.5
3544.08	11352.7
3545.29	11328.9
3546.49	11347
3547.7	11393.2
3548.9	11343.4
3550.11	11210.5
3551.31	11400.7
3552.52	11265.9
3553.72	11319
3554.93	11302.2
3556.13	11331.4
3557.34	11377.5
3558.54	11288.7
3559.74	11324.9
3560.95	11349
3562.15	11329.2
3563.35	11327.4
3564.56	11335.5
3565.76	11352.7
3566.96	11394.9
3568.16	11312
3569.36	11380.2
3570.57	11365.4
3571.77	11347.5
3572.97	11444.7
3574.17	11299.9
3575.37	11478
3576.57	11408.2
3577.77	11351.4
3578.97	11298.5
3580.17	11422.7
3581.37	11399.9
3582.57	11461
3583.77	11400.2
3584.97	11392.4
3586.17	11477.5
3587.37	11464.7
3588.57	11366.9
3589.77	11532
3590.97	11470.2
3592.17	11438.4
3593.36	11464.5
3594.56	11525.7
3595.76	11404.9
3596.96	11412
3598.15	11419.2
3599.35	11531.4
3600.55	11468.5
3601.74	11499.7
3602.94	11595.9
3604.14	11476
3605.33	11520.2
3606.53	11425.4
3607.72	11476.5
3608.92	11658.7
3610.11	11535.9
3611.31	11571
3612.5	11451.2
3613.7	11523.4
3614.89	11580.5
3616.09	11453.7
3617.28	11529.9
3618.47	11457
3619.67	11501.2
3620.86	11451.4
3622.05	11533.5
3623.25	11621.7
3624.44	11550.9
3625.63	11425
3626.82	11497.2
3628.02	11458.4
3629.21	11404.5
3630.4	11467.7
3631.59	11474.9
3632.78	11450
3633.98	11521.2
3635.17	11488.4
3636.36	11426.5
3637.55	11377.7
3638.74	11418.9
3639.93	11409
3641.12	11441.2
3642.31	11412.4
3643.5	11250.5
3644.69	11433.7
3645.88	11445.9
3647.06	11392
3648.25	11268.2
3649.44	11358.4
3650.63	11364.5
3651.82	11347.7
3653.01	11285.9
3654.2	11281
3655.38	11273.2
3656.57	11217.4
3657.76	11151.5
3658.94	11217.7
3660.13	11179.9
3661.32	11152
3662.5	11127.2
3663.69	11198.4
3664.88	11201.5
3666.06	11175.7
3667.25	11103.9
3668.43	11095
3669.62	11165.2
3670.8	11080.4
3671.99	11127.5
3673.17	11101.7
3674.36	11082.9
3675.54	11119
3676.73	11014.2
3677.91	10975.4
3679.09	11007.5
3680.28	11009.7
3681.46	11067.9
3682.64	10937
3683.82	11126.2
3685.01	10908.4
3686.19	10983.5
3687.37	10994.7
3688.55	10945.9
3689.74	11077
3690.92	10955.2
3692.1	10984.4
3693.28	10893.5
3694.46	10879.7
3695.64	11011.9
3696.82	10923
3698	10831.2
3699.18	10916.4
3700.36	10945.5
3701.54	10943.7
3702.72	10998.9
3703.9	10944
3705.08	10944.2
3706.26	10849.4
3707.44	11034.5
3708.62	10931.7
3709.8	10884.9
3710.98	10880
3712.15	10941.2
3713.33	10912.4
3714.51	10932.5
3715.69	10914.7
3716.86	10892.9
3718.04	10952
3719.22	10887.2
3720.4	10919.4
3721.57	10916.5
3722.75	10940.7
3723.92	10870.9
3725.1	10913
3726.28	10906.2
3727.45	10861.4
3728.63	10997.5
3729.8	11019.7
3730.98	11026.9
3732.15	10980
3733.33	10942.2
3734.5	10935.4
3735.68	11018.5
3736.85	11010.7
3738.02	11045.9
3739.2	11021
3740.37	10913.2
3741.54	10962.4
3742.72	11084.5
3743.89	10919.7
3745.06	11035.9
3746.23	10995.1
3747.41	11049.2
3748.58	11082.4
3749.75	11111.6
3750.92	11093.7
3752.09	10914.9
3753.27	10976.1
3754.44	11007.2
3755.61	11067.4
3756.78	11043.6
3757.95	11055.7
3759.12	11146.9
3760.29	11070.1
3761.46	11040.2
3762.63	11054.4
3763.8	11024.6
3764.97	11027.7
3766.14	11088.9
3767.3	11053.1
3768.47	11029.2
3769.64	11092.4
3770.81	11067.6
3771.98	11152.7
3773.15	11016.9
3774.32	11039.1
3775.48	10996.2
3776.65	11053.4
3777.82	11026.6
3778.99	11058.7
3780.15	11015.9
3781.32	10901.1
3782.48	11030.2
3783.65	11033.4
3784.82	11101.6
3785.98	11004.7
3787.15	11060.9
3788.31	10855.1
3789.48	10970.2
3790.64	10959.4
3791.81	10893.6
3792.97	11009.7
3794.14	10837.9
3795.3	10811.1
3796.47	10877.2
3797.63	10826.4
3798.79	10830.6
3799.96	10850.7
3801.12	10768.9
3802.28	10764.1
3803.45	10870.2
3804.61	10801.4
3805.77	10803.6
3806.93	10683.7
3808.1	10706.9
3809.26	10727.1
3810.42	10687.2
3811.58	10622.4
3812.74	10665.6
3813.9	10644.7
3815.07	10763.9
3816.23	10644.1
3817.39	10696.2
3818.55	10650.4
3819.71	10640.6
3820.87	10674.7
3822.03	10596.9
3823.19	10643.1
3824.35	10577.2
3825.51	10541.4
3826.67	10523.6
3827.82	10598.7
3828.98	10457.9
3830.14	10556.1
3831.3	10537.2
3832.46	10588.4
3833.62	10541.6
3834.77	10583.7
3835.93	10465.9
3837.09	10437.1
3838.25	10511.2
3839.4	10445.4
3840.56	10379.6
3841.72	10410.7
3842.87	10471.9
3844.03	10463.1
3845.19	10406.2
3846.34	10340.4
3847.5	10419.6
3848.65	10500.7
3849.81	10373.9
3850.96	10428.1
3852.12	10395.2
3853.27	10409.4
3854.43	10381.6
3855.58	10352.7
3856.73	10358.9
3857.89	10407.1
3859.04	10388.2
3860.2	10419.4
3861.35	10371.6
3862.5	10377.7
3863.66	10365.9
3864.81	10400.1
3865.96	10449.2
3867.11	10396.4
3868.27	10530.6
3869.42	10507.7
3870.57	10376.9
3871.72	10454.1
3872.87	10435.2
3874.02	10473.4
3875.18	10439.6
3876.33	10447.7
3877.48	10413.9
3878.63	10447.1
3879.78	10520.2
3880.93	10461.4
3882.08	10378.6
3883.23	10429.7
3884.38	10433.9
3885.53	10459.1
3886.68	10421.2
3887.82	10569.4
3888.97	10434.6
3890.12	10511.7
3891.27	10388.9
3892.42	10535.1
3893.57	10478.2
3894.72	10471.4
3895.86	10413.6
3897.01	10540.7
3898.16	10377.9
3899.3	10528.1
3900.45	10483.2
3901.6	10446.4
3902.74	10562.6
3903.89	10491.7
3905.04	10540.9
3906.18	10520.1
3907.33	10476.2
3908.47	10532.4
3909.62	10520.6
3910.76	10480.7
3911.91	10510.9
3913.05	10483.1
3914.2	10517.2
3915.34	10476.4
3916.49	10489.6
3917.63	10498.7
3918.78	10478.9
3919.92	10507.1
3921.06	10451.2
3922.21	10454.4
3923.35	10384.6
3924.49	10414.7
3925.64	10399.9
3926.78	10424.1
3927.92	10553.2
3929.06	10431.4
3930.2	10409.6
3931.35	10452.7
3932.49	10397.9
3933.63	10318.1
3934.77	10480.2
3935.91	10391.4
3937.05	10421.6
3938.19	10404.7
3939.33	10341.9
3940.47	10353.1
3941.61	10353.2
3942.75	10393.4
3943.89	10310.6
3945.03	10412.7
3946.17	10332.9
3947.31	10280.1
3948.45	10200.2
3949.59	10316.4
3950.73	10254.6
3951.87	10247.7
3953.01	10275.9
3954.14	10336.1
3955.28	10279.2
3956.42	10231.4
3957.56	10173.6
3958.69	10197.7
3959.83	10192.9
3960.97	10117.1
3962.1	10139.2
3963.24	10250.4
3964.38	10170.6
3965.51	10124.7
3966.65	10117.9
3967.79	10185.1
3968.92	10029.2
3970.06	10160.4
3971.19	10086.6
3972.33	10139.7
3973.46	10185.9
3974.6	10011.1
3975.73	10057.2
3976.87	9981.4
3978	10056.6
3979.13	10078.7
3980.27	10033.9
3981.4	10005.1
3982.53	10072.2
3983.67	10067.4
3984.8	9962.57
3985.93	9945.73
3987.07	10002.9
3988.2	9961.07
3989.33	10032.2
3990.46	9951.4
3991.6	9996.57
3992.73	9992.73
3993.86	9956.9
3994.99	10008.1
3996.12	10010.2
3997.25	10028.4
3998.38	9962.57
3999.51	9963.73
