#Acq. time (s)=	25
#Accumulations=	3
#Range (cm-¹)=	100...4000
#Windows=	3
#Autofocus=	Off
#AutoExposure=	Off
#Spike filter=	Multiple accum.
#Delay time (s)=	0
#Binning=	1
#Readout mode=	Signal
#DeNoise=	Off
#ICS correction=	Off
#Dark correction=	Off
#Inst. Process=	Off
#Instrument=	LabRAM HR Evol
#Detector=	Syncerity OE
#Objective=	x100_VIS
#Grating=	600 (500nm)
#ND Filter=	5%
#Laser=	532nm_Edge
#Hole=	150.001
#Range=	Visible
#Project=	Omar
#Sample=	
#Site=	02-05-23
#Title=	roy_mg_r2
#Remark=	
#Date=	02.05.2023 17:26
#Acquired=	02.05.2023 17:26:07
101.414	1001
103.248	994.324
105.083	1019.65
106.916	1039.97
108.751	1034.3
110.583	1037.62
112.417	1054.94
114.249	1060.27
116.08	1061.59
117.913	1064.92
119.743	1055.24
121.575	1043.57
123.405	1061.89
125.234	1078.21
127.065	1047.54
128.894	1040.86
130.724	1032.19
132.552	1020.51
134.38	1035.83
136.209	1035.16
138.036	1062.48
139.862	1046.81
141.691	1069.13
143.516	1051.45
145.342	1075.78
147.167	1048.1
148.994	1063.43
150.818	1072.75
152.642	1051.08
154.468	1063.4
156.291	1065.72
158.114	1111.05
159.936	1069.37
161.761	1085.7
163.583	1070.02
165.404	1063.34
167.225	1077.67
169.048	1083.99
170.868	1064.32
172.689	1060.64
174.508	1076.97
176.328	1056.29
178.149	1081.61
179.967	1045.94
181.786	1088.26
183.603	1054.59
185.421	1094.91
187.24	1090.23
189.057	1079.56
190.874	1082.88
192.69	1094.21
194.506	1088.53
196.321	1081.85
198.136	1110.18
199.953	1105.5
201.767	1070.83
203.581	1094.15
205.395	1107.48
207.208	1087.8
209.021	1080.12
210.834	1094.45
212.646	1095.77
214.458	1071.1
216.27	1072.42
218.081	1084.74
219.892	1064.07
221.702	1051.39
223.514	1080.72
225.324	1093.04
227.133	1105.36
228.943	1095.69
230.751	1063.01
232.56	1088.34
234.368	1085.66
236.175	1091.99
237.983	1092.31
239.79	1105.63
241.594	1111.96
243.4	1087.28
245.206	1122.61
247.012	1132.93
248.817	1104.25
250.622	1131.58
252.426	1098.9
254.23	1128.23
256.034	1096.55
257.838	1130.88
259.641	1120.2
261.444	1097.52
263.246	1121.85
265.048	1099.17
266.848	1117.5
268.649	1107.82
270.45	1118.14
272.251	1103.47
274.051	1103.79
275.851	1112.12
277.65	1119.44
279.447	1126.76
281.246	1113.09
283.045	1092.41
284.843	1128.74
286.641	1110.06
288.436	1095.39
290.233	1086.71
292.03	1133.03
293.827	1118.36
295.623	1105.68
297.416	1098.01
299.212	1119.33
301.007	1132.65
302.802	1135.98
304.594	1139.3
306.388	1126.63
308.182	1149.95
309.973	1126.27
311.766	1154.6
313.558	1145.92
315.351	1136.25
317.14	1141.57
318.932	1145.9
320.723	1166.22
322.512	1146.54
324.303	1162.87
326.093	1126.19
327.88	1165.52
329.67	1137.84
331.459	1146.16
333.246	1125.49
335.034	1148.81
336.822	1127.14
338.608	1156.46
340.395	1160.78
342.18	1107.11
343.967	1134.43
345.754	1116.76
347.538	1118.08
349.323	1146.41
351.106	1117.73
352.891	1132.05
354.674	1150.38
356.458	1140.7
358.24	1126.03
360.024	1131.35
361.805	1146.67
363.588	1137
365.37	1175.32
367.151	1150.65
368.933	1124.97
370.712	1143.3
372.493	1146.62
374.272	1125.94
376.05	1151.27
377.831	1170.59
379.608	1177.92
381.388	1140.24
383.165	1113.56
384.944	1138.89
386.72	1174.21
388.498	1184.54
390.274	1175.86
392.049	1168.18
393.826	1152.51
395.601	1166.83
397.377	1199.16
399.151	1151.48
400.925	1165.81
402.7	1181.13
404.473	1188.45
406.246	1154.78
408.02	1158.1
409.792	1130.43
411.566	1183.75
413.337	1141.07
415.108	1168.4
416.881	1170.72
418.651	1129.05
420.421	1135.37
422.19	1142.69
423.961	1155.02
425.73	1151.34
427.499	1147.67
429.269	1143.99
431.037	1137.32
432.804	1146.64
434.572	1159.96
436.34	1135.29
438.107	1133.61
439.873	1147.94
441.639	1144.26
443.404	1164.58
445.171	1181.91
446.936	1138.23
448.701	1178.56
450.465	1176.88
452.228	1164.2
453.994	1192.53
455.757	1179.85
457.52	1206.18
459.282	1192.5
461.044	1169.83
462.806	1210.15
464.569	1173.47
466.33	1192.8
468.091	1191.12
469.852	1181.45
471.612	1174.77
473.371	1206.09
475.131	1193.42
476.89	1227.74
478.648	1238.07
480.407	1185.39
482.165	1214.72
483.924	1154.04
485.682	1211.36
487.439	1189.69
489.195	1186.01
490.952	1194.34
492.708	1188.66
494.463	1221.98
496.219	1200.31
497.974	1207.63
499.728	1233.96
501.482	1192.28
503.236	1185.6
504.99	1173.93
506.743	1205.25
508.496	1222.58
510.249	1217.9
512.001	1192.23
513.751	1193.55
515.503	1178.87
517.254	1197.2
519.005	1203.52
520.755	1205.85
522.506	1220.17
524.256	1210.49
526.005	1224.82
527.755	1197.14
529.503	1196.47
531.252	1191.79
532.998	1212.11
534.746	1209.44
536.494	1213.76
538.241	1215.09
539.988	1204.41
541.734	1211.74
543.479	1250.06
545.225	1239.38
546.97	1216.71
548.715	1214.03
550.46	1211.36
552.203	1224.68
553.947	1190
555.691	1221.33
557.435	1240.65
559.178	1283.98
560.919	1223.3
562.661	1234.63
564.404	1219.95
566.143	1217.27
567.885	1276.6
569.626	1207.92
571.367	1216.25
573.106	1220.57
574.846	1259.89
576.586	1229.22
578.323	1235.54
580.063	1187.87
581.802	1265.19
583.538	1235.51
585.276	1245.84
587.014	1221.16
588.75	1256.49
590.487	1263.81
592.224	1232.14
593.959	1260.46
595.695	1230.78
597.429	1209.11
599.165	1218.43
600.9	1230.76
602.633	1243.08
604.367	1207.4
606.1	1244.73
607.834	1262.05
609.565	1263.38
611.299	1263.7
613.031	1239.02
614.762	1269.35
616.494	1232.67
618.224	1240
619.956	1236.32
621.685	1254.65
623.416	1242.97
625.145	1266.29
626.875	1252.62
628.603	1229.94
630.333	1247.27
632.06	1298.59
633.789	1296.91
635.516	1283.24
637.242	1280.56
638.97	1290.89
640.696	1285.21
642.423	1288.53
644.148	1285.86
645.875	1278.18
647.599	1328.51
649.323	1260.83
651.049	1296.16
652.773	1297.48
654.496	1295.8
656.22	1297.13
657.943	1299.45
659.667	1275.78
661.389	1304.1
663.11	1337.42
664.833	1288.75
666.554	1300.07
668.274	1286.4
669.994	1332.72
671.716	1325.05
673.436	1284.37
675.155	1320.69
676.876	1323.02
678.594	1291.34
680.312	1327.67
682.03	1299.99
683.75	1318.31
685.467	1280.64
687.184	1272.96
688.9	1292.29
690.618	1304.61
692.334	1292.93
694.05	1288.26
695.765	1302.58
697.48	1294.91
699.196	1299.23
700.911	1294.56
702.625	1289.88
704.338	1264.2
706.052	1287.53
707.764	1317.85
709.477	1291.18
711.191	1285.5
712.903	1301.82
714.615	1304.15
716.326	1300.47
718.037	1295.8
719.748	1281.12
721.458	1267.44
723.168	1297.77
724.878	1285.09
726.588	1306.42
728.299	1299.74
730.007	1280.07
731.716	1282.39
733.424	1297.71
735.132	1277.04
736.839	1300.36
738.546	1305.69
740.253	1290.01
741.959	1284.33
743.666	1276.66
745.371	1295.98
747.077	1296.31
748.782	1298.63
750.487	1302.96
752.192	1281.28
753.896	1297.6
755.6	1260.93
757.301	1299.25
759.005	1275.58
760.707	1293.9
762.41	1264.22
764.112	1256.55
765.814	1308.87
767.516	1273.2
769.217	1268.52
770.918	1254.84
772.619	1270.17
774.317	1279.49
776.017	1273.82
777.717	1247.14
779.417	1266.47
781.116	1296.79
782.814	1262.11
784.511	1260.44
786.209	1261.76
787.907	1233.09
789.604	1274.41
791.301	1253.73
792.996	1274.06
794.693	1277.38
796.389	1283.71
798.085	1272.03
799.779	1252.35
801.474	1272.68
803.169	1288
804.863	1284.33
806.556	1268.65
808.25	1251.98
809.943	1266.3
811.637	1292.62
813.328	1279.95
815.02	1268.27
816.713	1316.6
818.403	1272.92
820.094	1278.24
821.786	1291.57
823.475	1253.89
825.166	1275.22
826.856	1289.54
828.544	1284.86
830.234	1297.19
831.922	1246.51
833.611	1267.84
835.3	1269.16
836.986	1283.49
838.675	1275.81
840.361	1299.13
842.048	1280.46
843.734	1311.78
845.421	1256.11
847.107	1284.43
848.792	1286.75
850.478	1299.08
852.161	1300.4
853.847	1313.73
855.53	1303.05
857.215	1285.38
858.897	1267.7
860.581	1259.02
862.263	1291.35
863.947	1272.67
865.628	1302
867.309	1252.32
868.991	1297.64
870.671	1294.97
872.353	1297.29
874.033	1271.62
875.714	1294.94
877.393	1288.26
879.072	1275.59
880.752	1269.91
882.43	1300.24
884.11	1293.56
885.788	1284.89
887.465	1292.21
889.143	1270.53
890.82	1305.86
892.496	1323.18
894.174	1316.51
895.849	1266.83
897.525	1274.15
899.202	1270.48
900.876	1289.8
902.55	1288.13
904.226	1303.45
905.9	1279.77
907.573	1304.1
909.246	1266.42
910.921	1288.75
912.594	1255.07
914.266	1312.4
915.938	1284.72
917.611	1296.04
919.282	1321.37
920.953	1258.69
922.623	1278.02
924.294	1282.34
925.966	1312.66
927.635	1292.99
929.304	1265.31
930.973	1266.64
932.642	1296.96
934.31	1329.29
935.98	1299.61
937.648	1296.93
939.316	1302.26
940.983	1298.58
942.649	1285.91
944.316	1331.23
945.982	1321.55
947.648	1296.88
949.314	1296.2
950.981	1302.53
952.646	1298.85
954.31	1298.17
955.975	1343.5
957.639	1313.82
959.302	1351.15
960.966	1340.47
962.629	1307.8
964.292	1322.12
965.954	1315.44
967.616	1342.77
969.278	1356.09
970.939	1295.42
972.601	1281.74
974.262	1325.06
975.922	1306.39
977.582	1308.71
979.242	1339.04
980.902	1333.36
982.561	1342.68
984.219	1319.01
985.877	1318.33
987.536	1287.66
989.194	1283.98
990.852	1317.31
992.509	1336.63
994.166	1331.95
995.823	1325.28
997.48	1322.6
999.134	1293.93
1000.79	1323.25
1002.45	1344.57
1004.1	1333.9
1005.76	1318.22
1007.41	1303.55
1009.06	1323.87
1010.72	1291.19
1012.37	1322.52
1014.02	1302.84
1015.68	1292.17
1017.33	1315.49
1018.98	1361.82
1020.63	1294.14
1022.29	1320.46
1023.94	1316.79
1025.59	1319.11
1027.24	1325.44
1028.89	1323.76
1030.54	1339.08
1032.19	1327.41
1033.84	1328.73
1035.48	1341.06
1037.13	1327.38
1038.78	1339.71
1040.43	1346.03
1042.08	1326.35
1043.73	1322.68
1045.37	1328
1047.02	1310.33
1048.66	1316.65
1050.31	1376.97
1051.96	1360.3
1053.6	1395.62
1055.25	1335.95
1056.89	1355.27
1058.54	1357.59
1060.18	1382.92
1061.82	1335.24
1063.47	1356.57
1065.11	1371.89
1066.75	1359.22
1068.4	1364.54
1070.04	1377.86
1071.68	1379.19
1073.32	1369.51
1074.96	1423.84
1076.6	1370.16
1078.24	1373.48
1079.88	1387.81
1081.52	1378.13
1083.16	1367.46
1084.8	1386.78
1086.44	1396.1
1088.08	1406.43
1089.72	1408.75
1091.36	1408.08
1092.99	1386.4
1094.63	1401.73
1096.27	1365.05
1097.91	1394.37
1099.54	1415.7
1101.18	1389.02
1102.82	1402.35
1104.45	1371.67
1106.08	1407.99
1107.72	1372.32
1109.35	1400.64
1110.99	1373.97
1112.62	1373.29
1114.26	1390.61
1115.89	1350.94
1117.52	1398.26
1119.16	1417.59
1120.79	1350.91
1122.42	1365.24
1124.05	1387.56
1125.68	1343.88
1127.31	1339.21
1128.94	1400.53
1130.57	1377.86
1132.2	1344.18
1133.83	1341.5
1135.46	1355.83
1137.09	1405.15
1138.72	1367.48
1140.35	1362.8
1141.98	1369.13
1143.61	1364.45
1145.23	1355.77
1146.86	1370.1
1148.49	1388.42
1150.12	1396.75
1151.74	1410.07
1153.37	1395.39
1154.99	1375.72
1156.62	1386.04
1158.24	1400.37
1159.87	1387.69
1161.49	1401.01
1163.12	1401.34
1164.74	1392.66
1166.36	1415.99
1167.99	1401.31
1169.61	1397.64
1171.23	1389.96
1172.86	1443.28
1174.48	1443.61
1176.1	1467.93
1177.72	1434.26
1179.34	1426.58
1180.96	1456.9
1182.58	1404.23
1184.2	1434.55
1185.82	1462.88
1187.44	1439.2
1189.06	1426.52
1190.68	1440.85
1192.3	1427.17
1193.91	1470.5
1195.53	1442.82
1197.15	1479.15
1198.77	1443.47
1200.38	1499.79
1202	1431.12
1203.62	1486.44
1205.23	1449.77
1206.85	1451.09
1208.46	1469.41
1210.08	1489.74
1211.69	1484.06
1213.31	1454.39
1214.92	1482.71
1216.54	1448.03
1218.15	1453.36
1219.76	1478.68
1221.38	1501.01
1222.99	1489.33
1224.6	1481.66
1226.21	1463.98
1227.82	1447.3
1229.43	1463.63
1231.05	1483.95
1232.66	1466.28
1234.27	1485.6
1235.88	1481.92
1237.49	1472.25
1239.1	1509.57
1240.71	1513.9
1242.31	1496.22
1243.92	1536.55
1245.53	1473.87
1247.14	1525.19
1248.75	1514.52
1250.35	1519.84
1251.96	1484.17
1253.57	1465.49
1255.17	1541.81
1256.78	1463.14
1258.39	1526.46
1259.99	1522.79
1261.6	1519.11
1263.2	1504.43
1264.8	1500.76
1266.41	1512.08
1268.01	1525.41
1269.62	1529.73
1271.22	1543.06
1272.82	1546.38
1274.43	1537.7
1276.03	1568.03
1277.63	1530.35
1279.23	1500.68
1280.83	1547
1282.43	1557.32
1284.04	1576.65
1285.64	1561.97
1287.23	1546.3
1288.84	1536.62
1290.43	1524.94
1292.03	1555.27
1293.63	1584.59
1295.23	1560.92
1296.83	1573.24
1298.43	1566.57
1300.03	1583.89
1301.62	1610.21
1303.22	1584.54
1304.82	1586.86
1306.41	1599.19
1308.01	1593.51
1309.61	1580.83
1311.2	1593.16
1312.8	1587.48
1314.39	1632.81
1315.99	1603.13
1317.58	1591.45
1319.17	1609.78
1320.77	1629.1
1322.36	1604.43
1323.95	1574.75
1325.55	1620.08
1327.14	1636.4
1328.73	1625.72
1330.32	1609.05
1331.92	1610.37
1333.51	1611.7
1335.1	1639.02
1336.69	1645.34
1338.28	1648.67
1339.87	1595.99
1341.46	1641.32
1343.05	1629.64
1344.64	1684.97
1346.23	1624.29
1347.81	1646.61
1349.4	1607.94
1350.99	1633.26
1352.58	1597.59
1354.17	1631.91
1355.75	1626.23
1357.34	1623.56
1358.92	1601.88
1360.51	1608.21
1362.1	1614.53
1363.68	1601.85
1365.27	1621.18
1366.85	1633.5
1368.44	1623.83
1370.02	1627.15
1371.6	1585.48
1373.19	1629.8
1374.77	1623.12
1376.35	1665.45
1377.94	1645.77
1379.52	1632.1
1381.1	1666.42
1382.68	1642.74
1384.27	1596.07
1385.85	1635.39
1387.43	1655.72
1389.01	1628.04
1390.59	1605.36
1392.17	1648.69
1393.75	1598.01
1395.33	1650.34
1396.91	1653.66
1398.49	1642.99
1400.06	1566.31
1401.64	1646.63
1403.22	1658.96
1404.8	1631.28
1406.37	1620.61
1407.95	1636.93
1409.53	1619.25
1411.11	1641.58
1412.68	1584.9
1414.26	1624.23
1415.83	1652.55
1417.41	1620.88
1418.98	1617.2
1420.56	1666.52
1422.13	1658.85
1423.71	1649.17
1425.28	1632.5
1426.85	1618.82
1428.43	1647.14
1430	1624.47
1431.57	1635.79
1433.14	1676.12
1434.72	1585.44
1436.29	1640.76
1437.86	1618.09
1439.43	1588.41
1441	1604.74
1442.57	1602.06
1444.14	1635.39
1445.71	1632.71
1447.28	1662.03
1448.85	1642.36
1450.42	1649.68
1451.99	1600.01
1453.55	1646.33
1455.12	1650.65
1456.69	1615.98
1458.26	1635.3
1459.82	1626.63
1461.39	1586.95
1462.96	1629.27
1464.52	1648.6
1466.09	1596.92
1467.66	1608.25
1469.22	1600.57
1470.79	1667.9
1472.35	1603.22
1473.92	1650.54
1475.48	1607.87
1477.04	1592.19
1478.61	1633.52
1480.17	1615.84
1481.73	1619.16
1483.29	1631.49
1484.86	1617.81
1486.42	1583.14
1487.98	1612.46
1489.54	1592.79
1491.1	1578.11
1492.67	1583.43
1494.23	1601.76
1495.78	1633.08
1497.35	1637.41
1498.91	1599.73
1500.46	1632.05
1502.02	1611.38
1503.58	1621.7
1505.14	1668.03
1506.7	1675.35
1508.26	1612.67
1509.81	1651
1511.37	1647.32
1512.93	1619.65
1514.49	1637.97
1516.04	1654.3
1517.6	1606.62
1519.15	1661.94
1520.71	1678.27
1522.26	1642.59
1523.82	1682.92
1525.37	1670.24
1526.93	1680.56
1528.48	1694.89
1530.04	1698.21
1531.59	1693.54
1533.14	1722.86
1534.69	1716.18
1536.25	1685.51
1537.8	1671.83
1539.35	1716.16
1540.9	1691.48
1542.46	1720.81
1544.01	1704.13
1545.56	1746.45
1547.11	1729.78
1548.66	1719.1
1550.21	1766.43
1551.76	1723.75
1553.31	1758.07
1554.86	1743.4
1556.4	1777.72
1557.95	1703.05
1559.5	1761.37
1561.05	1757.69
1562.6	1725.02
1564.14	1746.34
1565.69	1744.67
1567.24	1708.99
1568.78	1749.32
1570.33	1730.64
1571.87	1720.96
1573.42	1796.29
1574.96	1728.61
1576.51	1750.94
1578.05	1761.26
1579.6	1758.58
1581.14	1738.91
1582.69	1742.23
1584.23	1768.56
1585.77	1700.88
1587.32	1717.21
1588.86	1721.53
1590.4	1768.85
1591.94	1746.18
1593.48	1729.5
1595.03	1718.83
1596.57	1700.15
1598.11	1672.47
1599.65	1736.8
1601.19	1677.12
1602.73	1665.45
1604.27	1722.77
1605.81	1717.09
1607.35	1690.42
1608.89	1677.74
1610.42	1670.07
1611.96	1675.39
1613.5	1663.72
1615.04	1647.04
1616.57	1655.36
1618.11	1665.69
1619.65	1652.01
1621.18	1622.34
1622.72	1625.66
1624.26	1618.98
1625.79	1637.31
1627.33	1577.63
1628.86	1624.96
1630.4	1606.28
1631.93	1614.6
1633.47	1612.93
1635	1611.25
1636.53	1574.58
1638.07	1559.9
1639.6	1589.23
1641.13	1585.55
1642.66	1571.87
1644.2	1618.2
1645.73	1562.52
1647.26	1557.24
1648.79	1600.46
1650.32	1536.6
1651.85	1551.03
1653.38	1538.73
1654.91	1563.08
1656.44	1515.9
1657.97	1508.42
1659.5	1541.78
1661.03	1548.7
1662.56	1471.22
1664.09	1493.55
1665.62	1530.8
1667.14	1505.16
1668.67	1482.31
1670.2	1527.97
1671.72	1506.51
1673.25	1505.87
1674.78	1484.55
1676.3	1525.9
1677.83	1500.63
1679.35	1535.81
1680.88	1468.74
1682.41	1481.47
1683.93	1473.94
1685.45	1443.93
1686.98	1462.83
1688.5	1493.41
1690.03	1447.42
1691.55	1466.22
1693.07	1445.07
1694.59	1445.75
1696.12	1452.57
1697.64	1430.36
1699.16	1408.15
1700.68	1443.13
1702.2	1442.48
1703.72	1429.39
1705.24	1435.31
1706.76	1439.87
1708.28	1421.35
1709.8	1441.93
1711.32	1427.07
1712.84	1427.61
1714.36	1415.98
1715.88	1397.34
1717.4	1401
1718.92	1400.37
1720.43	1414.47
1721.95	1396.04
1723.47	1415.49
1724.98	1385.46
1726.5	1398.79
1728.02	1395.19
1729.53	1396.73
1731.05	1387.5
1732.56	1394.49
1734.08	1405.3
1735.59	1405.06
1737.11	1390.4
1738.62	1388.13
1740.14	1388.09
1741.65	1375.75
1743.16	1362.32
1744.68	1374.41
1746.19	1368.5
1747.7	1361.07
1749.21	1377.2
1750.73	1388.84
1752.24	1360.3
1753.75	1368.88
1755.26	1368.46
1756.77	1347.66
1758.28	1371.47
1759.79	1376.59
1761.3	1368.42
1762.81	1381.81
1764.32	1384.54
1765.83	1359.36
1767.34	1374.14
1768.85	1380.01
1770.36	1387.67
1771.87	1351.78
1773.37	1353.03
1774.88	1355.09
1776.39	1347.38
1777.9	1358.76
1779.4	1352.8
1780.91	1362.52
1782.41	1372.88
1783.92	1380.11
1785.42	1370.68
1786.93	1359.69
1788.43	1380.36
1789.94	1379.37
1791.44	1342.85
1792.95	1331.1
1794.45	1350.45
1795.95	1342.74
1797.46	1351.57
1798.96	1354.54
1799.54	1348.19
1801.05	1362.75
1802.56	1355.3
1804.06	1374.85
1805.57	1355.41
1807.08	1366.96
1808.59	1330.51
1810.1	1351.07
1811.6	1356.62
1813.11	1368.17
1814.62	1379.73
1816.12	1347.28
1817.63	1361.83
1819.14	1345.39
1820.64	1361.94
1822.15	1368.49
1823.65	1323.04
1825.16	1341.6
1826.66	1360.15
1828.17	1336.7
1829.67	1338.26
1831.17	1337.81
1832.68	1322.36
1834.18	1339.92
1835.68	1373.47
1837.19	1308.02
1838.69	1349.58
1840.19	1332.13
1841.69	1333.68
1843.19	1357.24
1844.7	1310.79
1846.2	1365.34
1847.7	1336.9
1849.2	1328.45
1850.7	1341
1852.2	1343.56
1853.7	1327.11
1855.2	1353.66
1856.69	1329.22
1858.19	1346.77
1859.69	1344.32
1861.19	1330.87
1862.69	1326.43
1864.19	1338.98
1865.68	1337.53
1867.18	1333.09
1868.68	1330.64
1870.17	1343.19
1871.67	1314.75
1873.16	1322.3
1874.66	1302.85
1876.15	1324.41
1877.65	1324.96
1879.14	1319.51
1880.64	1331.07
1882.13	1316.62
1883.63	1302.17
1885.12	1328.73
1886.61	1316.28
1888.11	1296.83
1889.6	1344.39
1891.09	1312.94
1892.59	1328.4
1894.08	1337.86
1895.57	1319.32
1897.06	1329.78
1898.55	1333.24
1900.04	1344.7
1901.53	1323.16
1903.02	1340.62
1904.51	1332.08
1906	1346.54
1907.49	1304
1908.98	1322.46
1910.47	1331.92
1911.96	1343.38
1913.45	1342.84
1914.94	1318.3
1916.43	1330.76
1917.91	1331.22
1919.4	1328.68
1920.89	1327.14
1922.37	1332.6
1923.86	1332.06
1925.35	1326.52
1926.83	1354.98
1928.32	1319.44
1929.8	1321.9
1931.29	1299.36
1932.77	1326.82
1934.26	1319.28
1935.74	1321.74
1937.23	1321.2
1938.71	1343.66
1940.2	1339.12
1941.68	1348.58
1943.16	1339.04
1944.64	1296.5
1946.13	1305.96
1947.61	1322.42
1949.09	1314.88
1950.57	1330.34
1952.05	1320.8
1953.53	1300.26
1955.02	1302.72
1956.49	1355.18
1957.98	1329.64
1959.46	1335.1
1960.93	1322.56
1962.41	1259.02
1963.89	1288.48
1965.37	1315.95
1966.85	1287.41
1968.33	1316.87
1969.81	1294.33
1971.29	1316.79
1972.76	1293.25
1974.24	1310.71
1975.72	1284.17
1977.19	1295.63
1978.67	1278.09
1980.15	1305.55
1981.62	1298.01
1983.1	1306.47
1984.57	1287.93
1986.05	1260.39
1987.52	1278.85
1989	1289.31
1990.47	1270.77
1991.95	1289.23
1993.42	1316.69
1994.89	1290.15
1996.37	1294.61
1997.84	1315.07
1999.31	1311.53
2000.78	1270.99
2002.26	1291.45
2003.73	1285.91
2005.2	1288.37
2006.67	1288.83
2008.14	1310.29
2009.61	1279.75
2011.08	1297.21
2012.55	1296.67
2014.02	1287.13
2015.49	1290.59
2016.96	1292.05
2018.43	1294.51
2019.9	1279.97
2021.37	1285.43
2022.84	1285.89
2024.3	1288.35
2025.77	1265.81
2027.24	1272.27
2028.71	1282.73
2030.17	1305.19
2031.64	1300.65
2033.11	1269.11
2034.57	1286.57
2036.04	1253.03
2037.51	1257.49
2038.97	1299.95
2040.44	1275.41
2041.9	1288.87
2043.37	1269.33
2044.83	1268.79
2046.29	1287.25
2047.76	1275.71
2049.22	1299.17
2050.68	1271.63
2052.15	1261.09
2053.61	1288.55
2055.07	1254.01
2056.53	1266.47
2058	1281.93
2059.46	1276.39
2060.92	1253.85
2062.38	1295.31
2063.84	1303.77
2065.3	1251.23
2066.76	1298.69
2068.22	1291.15
2069.68	1284.61
2071.14	1285.07
2072.6	1281.53
2074.06	1246.99
2075.52	1263.45
2076.98	1256.92
2078.43	1233.38
2079.89	1280.84
2081.35	1253.3
2082.81	1270.76
2084.26	1253.22
2085.72	1266.68
2087.18	1277.14
2088.63	1231.6
2090.09	1254.06
2091.54	1267.52
2093	1265.98
2094.45	1247.44
2095.91	1256.9
2097.36	1260.36
2098.82	1269.82
2100.27	1244.28
2101.73	1260.74
2103.18	1241.2
2104.63	1254.66
2106.09	1241.12
2107.54	1240.58
2108.99	1254.04
2110.44	1210.5
2111.9	1216.96
2113.35	1285.42
2114.8	1250.88
2116.25	1228.34
2117.7	1235.8
2119.15	1231.26
2120.6	1248.72
2122.05	1274.18
2123.5	1246.64
2124.95	1220.1
2126.4	1219.56
2127.85	1232.02
2129.3	1226.48
2130.75	1215.94
2132.19	1216.4
2133.64	1194.86
2135.09	1229.32
2136.54	1220.78
2137.99	1239.24
2139.43	1221.7
2140.88	1223.16
2142.33	1235.62
2143.77	1248.08
2145.22	1218.54
2146.66	1236
2148.11	1265.46
2149.55	1209.92
2151	1245.38
2152.44	1236.84
2153.89	1225.3
2155.33	1192.76
2156.77	1249.22
2158.22	1201.68
2159.66	1251.14
2161.1	1210.6
2162.55	1235.06
2163.99	1217.52
2165.43	1218.98
2166.88	1223.44
2168.32	1237.9
2169.76	1240.36
2171.2	1211.82
2172.64	1248.28
2174.08	1224.74
2175.52	1205.2
2176.96	1237.66
2178.4	1218.12
2179.84	1238.58
2181.28	1217.04
2182.72	1246.5
2184.16	1250.96
2185.6	1198.42
2187.03	1195.88
2188.47	1229.35
2189.91	1246.81
2191.35	1204.27
2192.78	1208.73
2194.22	1206.19
2195.66	1223.65
2197.09	1207.11
2198.53	1225.57
2199.97	1196.03
2201.4	1217.49
2202.84	1231.95
2204.27	1208.41
2205.71	1205.87
2207.14	1214.33
2208.58	1194.79
2210.01	1210.25
2211.44	1193.71
2212.88	1203.17
2214.31	1205.63
2215.74	1178.09
2217.18	1173.55
2218.61	1203.01
2220.04	1201.47
2221.47	1194.93
2222.91	1180.39
2224.34	1181.85
2225.77	1192.31
2227.2	1183.77
2228.63	1188.23
2230.06	1191.69
2231.49	1179.15
2232.92	1166.61
2234.35	1180.07
2235.78	1157.53
2237.21	1169.99
2238.64	1162.45
2240.07	1206.91
2241.49	1134.37
2242.92	1156.83
2244.35	1178.29
2245.78	1172.75
2247.2	1155.21
2248.63	1166.67
2250.06	1176.13
2251.49	1166.59
2252.91	1141.05
2254.34	1143.51
2255.76	1139.97
2257.19	1162.43
2258.61	1123.89
2260.04	1159.35
2261.46	1119.81
2262.89	1150.27
2264.31	1137.73
2265.74	1141.19
2267.16	1162.65
2268.58	1143.11
2270.01	1140.57
2271.43	1162.03
2272.85	1164.49
2274.27	1113.95
2275.7	1137.41
2277.12	1154.87
2278.54	1160.33
2279.96	1156.79
2281.38	1149.25
2282.8	1164.71
2284.22	1141.17
2285.64	1116.63
2287.06	1141.09
2288.48	1118.55
2289.9	1131.01
2291.32	1131.47
2292.74	1165.93
2294.16	1115.39
2295.58	1151.85
2297	1158.31
2298.41	1119.77
2299.83	1149.23
2301.25	1155.7
2302.67	1127.16
2304.09	1176.62
2305.5	1162.08
2306.92	1150.54
2308.33	1133
2309.75	1141.46
2311.17	1134.92
2312.58	1162.38
2314	1146.84
2315.41	1137.3
2316.83	1146.76
2318.24	1141.22
2319.66	1154.68
2321.07	1157.14
2322.48	1145.6
2323.9	1124.06
2325.31	1114.52
2326.72	1133.98
2328.13	1152.44
2329.55	1157.9
2330.96	1128.36
2332.37	1122.82
2333.78	1175.28
2335.19	1152.74
2336.6	1143.2
2338.02	1103.66
2339.43	1151.12
2340.84	1131.58
2342.25	1106.04
2343.66	1151.5
2345.07	1164.96
2346.47	1110.42
2347.88	1145.88
2349.29	1123.34
2350.7	1129.8
2352.11	1150.26
2353.52	1143.72
2354.93	1117.18
2356.33	1126.64
2357.74	1104.1
2359.15	1121.56
2360.55	1130.02
2361.96	1108.48
2363.37	1107.94
2364.77	1115.4
2366.18	1116.86
2367.58	1113.32
2368.99	1116.78
2370.39	1104.24
2371.8	1107.7
2373.2	1104.16
2374.61	1110.62
2376.01	1086.08
2377.42	1082.54
2378.82	1076
2380.22	1085.46
2381.63	1100.92
2383.03	1103.38
2384.43	1094.84
2385.83	1127.3
2387.23	1092.76
2388.64	1095.22
2390.04	1077.68
2391.44	1101.14
2392.84	1093.6
2394.24	1082.06
2395.64	1074.52
2397.04	1074.98
2398.44	1068.44
2399.84	1066.9
2401.24	1098.36
2402.64	1051.82
2404.04	1087.28
2405.44	1074.74
2406.83	1079.2
2408.23	1066.67
2409.63	1105.13
2411.03	1041.59
2412.43	1079.05
2413.82	1112.51
2415.22	1091.97
2416.62	1055.43
2418.01	1073.89
2419.41	1085.35
2420.81	1099.81
2422.2	1092.27
2423.6	1042.73
2424.99	1103.19
2426.39	1079.65
2427.78	1066.11
2429.18	1065.57
2430.57	1097.03
2431.96	1087.49
2433.36	1093.95
2434.75	1076.41
2436.14	1082.87
2437.54	1053.33
2438.93	1073.79
2440.32	1093.25
2441.71	1068.71
2443.11	1053.17
2444.5	1075.63
2445.89	1066.09
2447.28	1091.55
2448.67	1097.01
2450.06	1089.47
2451.45	1103.93
2452.84	1070.39
2454.23	1090.85
2455.62	1075.31
2457.01	1083.77
2458.4	1094.23
2459.79	1097.69
2461.18	1087.15
2462.57	1093.61
2463.95	1085.07
2465.34	1100.53
2466.73	1033.99
2468.12	1070.45
2469.5	1099.91
2470.89	1090.37
2472.28	1103.83
2473.66	1100.29
2475.05	1113.75
2476.44	1083.21
2477.82	1084.67
2479.21	1080.13
2480.59	1077.59
2481.98	1099.05
2483.36	1092.51
2484.75	1081.97
2486.13	1114.43
2487.51	1077.89
2488.9	1087.35
2490.28	1109.81
2491.66	1087.27
2493.05	1067.73
2494.43	1061.19
2495.81	1069.65
2497.19	1056.11
2498.58	1098.57
2499.96	1060.03
2501.34	1043.49
2502.72	1076.95
2504.1	1074.41
2505.48	1073.87
2506.86	1060.33
2508.24	1092.79
2509.62	1066.25
2511	1039.71
2512.38	1041.17
2513.76	1067.64
2515.14	1053.1
2516.52	1061.56
2517.9	1091.02
2519.28	1068.48
2520.65	1044.94
2522.03	1053.4
2523.41	1060.86
2524.79	1063.32
2526.16	1064.78
2527.54	1072.24
2528.92	1051.7
2530.29	1051.16
2531.67	1018.62
2533.04	1071.08
2534.42	1073.54
2535.8	1070
2537.17	1060.46
2538.54	1055.92
2539.92	1053.38
2541.29	1038.84
2542.67	1054.3
2544.04	1040.76
2545.41	1053.22
2546.79	1039.68
2548.16	1057.14
2549.53	1048.6
2550.91	1047.06
2552.28	1047.52
2553.65	1043.98
2555.02	1047.44
2556.39	1036.9
2557.77	1048.36
2559.14	1064.82
2560.51	1047.28
2561.88	1053.74
2563.25	1047.2
2564.62	1042.66
2565.99	1067.12
2567.36	1049.58
2568.73	1009.04
2570.1	1033.5
2571.47	1032.96
2572.83	1026.42
2574.2	1050.88
2575.57	1042.34
2576.94	1046.8
2578.31	1035.26
2579.67	1047.72
2581.04	1069.18
2582.41	1022.64
2583.77	1028.1
2585.14	1037.56
2586.51	1050.02
2587.87	1015.48
2589.24	1046.94
2590.6	1050.4
2591.97	1021.86
2593.33	1033.32
2594.7	1054.78
2596.06	1025.24
2597.43	1038.7
2598.79	1027.16
2600.15	1033.62
2601.52	1057.08
2602.88	1036.54
2604.24	1070
2605.61	1055.46
2606.97	1053.92
2608.33	1048.38
2609.7	1052.84
2611.06	1045.3
2612.42	1054.76
2613.78	1044.22
2615.14	1047.68
2616.5	1061.14
2617.86	1032.6
2619.22	1053.06
2620.58	1029.53
2621.94	1054.99
2623.3	1056.45
2624.66	1030.91
2626.02	1028.37
2627.38	1033.83
2628.74	1052.29
2630.1	1060.75
2631.45	1030.21
2632.81	1054.67
2634.17	1035.13
2635.53	1035.59
2636.88	1018.05
2638.24	1037.51
2639.6	1038.97
2640.96	1047.43
2642.31	1054.89
2643.67	1034.35
2645.02	1047.81
2646.38	1043.27
2647.73	1049.73
2649.09	1030.19
2650.44	1049.65
2651.8	1050.11
2653.15	1046.57
2654.51	1060.03
2655.86	1026.49
2657.21	1040.95
2658.57	1013.41
2659.92	1021.87
2661.27	1045.33
2662.63	1033.79
2663.98	1062.25
2665.33	1017.71
2666.68	1065.17
2668.03	1027.63
2669.38	1056.09
2670.74	1044.55
2672.09	1048.01
2673.44	1047.47
2674.79	1045.93
2676.14	1043.39
2677.49	1025.85
2678.84	1024.31
2680.19	1027.77
2681.54	999.231
2682.89	1028.69
2684.23	1016.15
2685.58	1018.61
2686.93	1021.07
2688.28	1040.53
2689.63	1015.99
2690.98	1013.45
2692.32	1005.91
2693.67	1022.37
2695.02	1043.83
2696.36	1018.29
2697.71	1034.75
2699.05	1039.21
2700.4	1058.67
2701.75	1022.13
2703.09	1020.59
2704.44	1020.05
2705.78	1021.51
2707.13	1005.97
2708.47	1028.43
2709.82	1014.89
2711.16	1034.35
2712.5	1034.81
2713.85	1017.27
2715.19	1029.73
2716.53	998.194
2717.88	1027.65
2719.22	1022.11
2720.56	990.575
2721.9	1029.03
2723.25	1004.49
2724.59	1014.96
2725.93	988.415
2727.27	1028.88
2728.61	1007.34
2729.95	1017.8
2731.29	1032.26
2732.63	1038.72
2733.97	1024.18
2735.31	1023.64
2736.65	1020.1
2737.99	1050.56
2739.33	1038.02
2740.67	996.477
2742.01	998.937
2743.35	1012.4
2744.68	995.857
2746.02	1004.32
2747.36	1028.78
2748.7	1008.24
2750.03	1000.7
2751.37	1005.16
2752.71	990.618
2754.04	1010.08
2755.38	1012.54
2756.71	1031
2758.05	1020.46
2759.39	1035.92
2760.72	1021.38
2762.06	1004.84
2763.39	1019.3
2764.72	1005.76
2766.06	1025.22
2767.39	990.679
2768.73	1020.14
2770.06	1015.6
2771.39	1009.06
2772.73	1007.52
2774.06	1010.98
2775.39	1004.44
2776.72	1016.9
2778.06	1037.36
2779.39	995.82
2780.72	1018.28
2782.05	1035.74
2783.38	1017.2
2784.72	1027.66
2786.04	1027.12
2787.38	1038.58
2788.71	1026.04
2790.04	1013.5
2791.37	1006.96
2792.7	1018.42
2794.03	1009.88
2795.35	1040.34
2796.68	1018.8
2798.01	1027.26
2799.34	1005.72
2800.67	1025.18
2802	1020.64
2803.32	1033.1
2804.65	1023.56
2805.98	997.023
2807.3	1009.48
2808.63	1007.94
2809.96	1006.4
2811.29	1019.86
2812.61	1017.32
2813.94	1002.78
2815.26	981.244
2816.59	1023.7
2817.91	1023.16
2819.24	992.624
2820.56	1001.08
2821.89	964.544
2823.21	996.005
2824.53	1021.46
2825.86	995.925
2827.18	1022.39
2828.5	1001.85
2829.83	1006.31
2831.15	1000.77
2832.47	1037.23
2833.79	1029.69
2835.12	984.146
2836.44	996.606
2837.76	1020.07
2839.08	994.526
2840.4	978.986
2841.73	1019.45
2843.04	1025.91
2844.37	1031.37
2845.69	1000.83
2847.01	1009.29
2848.33	1009.75
2849.65	1014.21
2850.96	994.667
2852.28	1006.13
2853.6	1001.59
2854.92	1039.05
2856.24	1008.51
2857.56	1014.97
2858.87	1017.43
2860.19	1011.89
2861.51	1019.35
2862.83	1027.81
2864.14	1018.27
2865.46	1023.73
2866.78	1033.19
2868.09	1008.65
2869.41	991.109
2870.73	1018.57
2872.04	1026.03
2873.36	1030.49
2874.67	1027.95
2875.99	1031.41
2877.3	1045.87
2878.62	1016.33
2879.93	1028.79
2881.24	1047.25
2882.56	1047.71
2883.87	1019.17
2885.18	1011.63
2886.5	1045.09
2887.81	1062.55
2889.12	1013.01
2890.43	1052.47
2891.75	1003.93
2893.06	1047.39
2894.37	1008.85
2895.68	994.312
2896.99	994.772
2898.3	1042.23
2899.61	1021.69
2900.93	1008.15
2902.24	1004.61
2903.55	1001.07
2904.86	1014.53
2906.17	1020.99
2907.48	994.453
2908.78	1038.91
2910.09	1013.37
2911.4	1059.83
2912.71	999.294
2914.02	1030.75
2915.33	999.214
2916.63	1001.67
2917.94	1028.13
2919.25	1014.59
2920.56	1031.05
2921.86	999.514
2923.17	1013.97
2924.48	1028.43
2925.78	990.895
2927.09	1011.35
2928.39	1026.81
2929.7	994.275
2931	1015.74
2932.31	1013.2
2933.61	997.656
2934.92	999.116
2936.22	1005.58
2937.53	1006.04
2938.83	1022.5
2940.13	1011.96
2941.44	1013.42
2942.74	983.876
2944.04	1025.34
2945.35	977.797
2946.65	974.257
2947.95	950.717
2949.25	982.177
2950.55	1010.64
2951.86	968.097
2953.16	988.298
2954.46	995.001
2955.76	995.305
2957.06	986.291
2958.36	981.173
2959.66	954.286
2960.96	978.086
2962.26	959.387
2963.56	967.335
2964.86	946.693
2966.16	963.538
2967.46	955.692
2968.76	959.69
2970.05	939.992
2971.35	937.068
2972.65	953.197
2973.95	975.845
2975.24	958.034
2976.54	930.5
2977.84	954.473
2979.14	942.014
2980.43	931.036
2981.73	952.298
2983.02	928.265
2984.32	950.931
2985.62	941.919
2986.91	920.122
2988.21	929.628
2989.5	958.582
2990.8	936.45
2992.09	922.96
2993.39	921.915
2994.68	927.425
2995.97	922.655
2997.27	930.687
2998.56	940.751
2999.85	926.513
3001.15	921.219
3002.44	912.361
3003.73	949.014
3005.02	921.135
3006.32	904.148
3007.61	924.422
3008.9	907.069
3010.19	928.146
3011.48	919.77
3012.77	923.252
3014.06	914.486
3015.35	910.276
3016.64	917.774
3017.93	917.818
3019.22	908.073
3020.51	911.323
3021.8	910.102
3023.09	895.883
3024.38	921.543
3025.67	902.144
3026.96	917.132
3028.25	920.494
3029.53	910.369
3030.82	911.595
3032.11	912.598
3033.4	904.189
3034.68	902.444
3035.97	905.747
3037.26	896.667
3038.54	900.701
3039.83	898.073
3041.12	897.573
3042.4	894.383
3043.69	881.67
3044.97	892.831
3046.26	896.005
3047.54	904.504
3048.83	874.748
3050.11	883.839
3051.4	898.534
3052.68	900.956
3053.96	903.155
3055.25	898.358
3056.53	890.4
3057.81	884.115
3059.1	895.614
3060.38	879.566
3061.66	895.368
3062.94	903.729
3064.23	908.23
3065.51	897.714
3066.79	897.154
3068.07	882.406
3069.35	884.508
3070.63	882.603
3071.91	894.311
3073.19	869.553
3074.47	909.21
3075.75	899.368
3077.03	873.195
3078.31	878.724
3079.59	883.871
3080.87	899.718
3082.15	901.834
3082.23	901.766
3083.52	881.596
3084.8	899.427
3086.08	889.257
3087.37	891.088
3088.65	868.919
3089.94	876.749
3091.22	880.58
3092.5	900.411
3093.79	887.241
3095.07	885.072
3096.35	895.902
3097.63	878.733
3098.92	870.564
3100.2	876.394
3101.48	886.225
3102.76	890.056
3104.04	878.886
3105.32	887.717
3106.6	891.547
3107.88	861.378
3109.16	867.209
3110.44	875.039
3111.72	852.87
3113	896.7
3114.28	864.531
3115.56	898.362
3116.84	876.192
3118.12	878.023
3119.4	879.854
3120.67	870.684
3121.95	883.515
3123.23	906.345
3124.51	889.176
3125.79	871.007
3127.06	865.837
3128.34	839.668
3129.62	874.499
3130.89	872.329
3132.17	885.16
3133.44	898.99
3134.72	851.821
3136	853.652
3137.27	873.482
3138.55	879.313
3139.82	891.143
3141.1	877.974
3142.37	887.805
3143.65	850.635
3144.92	860.466
3146.19	864.297
3147.47	874.127
3148.74	871.958
3150.01	877.788
3151.29	874.619
3152.56	868.45
3153.83	882.28
3155.1	872.111
3156.38	857.942
3157.65	877.772
3158.92	857.603
3160.19	871.433
3161.46	878.264
3162.73	907.095
3164	883.925
3165.28	875.756
3166.54	869.586
3167.81	845.417
3169.09	868.248
3170.35	890.078
3171.62	889.909
3172.89	877.74
3174.16	872.57
3175.43	869.401
3176.7	881.231
3177.97	881.062
3179.24	877.893
3180.5	876.723
3181.77	872.554
3183.04	866.385
3184.31	858.215
3185.57	869.046
3186.84	864.876
3188.11	853.707
3189.38	870.538
3190.64	863.368
3191.91	864.199
3193.17	868.029
3194.44	869.86
3195.7	842.691
3196.97	876.521
3198.23	853.352
3199.5	857.182
3200.76	865.013
3202.03	865.844
3203.29	855.674
3204.55	847.505
3205.82	873.336
3207.08	838.166
3208.35	846.997
3209.61	867.828
3210.87	844.658
3212.13	876.489
3213.4	846.319
3214.66	863.15
3215.92	847.981
3217.18	843.811
3218.44	850.642
3219.7	843.472
3220.97	853.303
3222.23	837.134
3223.49	835.964
3224.75	847.795
3226.01	862.625
3227.27	847.456
3228.53	831.287
3229.79	848.117
3231.05	846.948
3232.31	866.779
3233.56	829.609
3234.82	847.44
3236.08	850.271
3237.34	814.101
3238.6	809.932
3239.86	848.762
3241.11	844.593
3242.37	825.424
3243.63	822.254
3244.88	836.085
3246.14	831.915
3247.4	834.746
3248.65	830.577
3249.91	850.407
3251.17	837.238
3252.42	839.069
3253.68	826.899
3254.93	821.73
3256.19	837.56
3257.44	833.391
3258.7	833.222
3259.95	862.052
3261.21	832.883
3262.46	829.714
3263.71	846.544
3264.97	810.375
3266.22	817.205
3267.47	838.036
3268.73	872.867
3269.98	829.697
3271.23	845.528
3272.48	825.358
3273.74	827.189
3274.99	864.02
3276.24	859.85
3277.49	856.681
3278.74	833.512
3279.99	836.342
3281.24	850.173
3282.49	829.003
3283.74	824.834
3284.99	853.665
3286.24	843.495
3287.49	836.326
3288.74	846.156
3289.99	836.987
3291.24	837.818
3292.49	854.648
3293.74	845.479
3294.99	847.31
3296.23	855.14
3297.48	838.971
3298.73	838.801
3299.98	834.632
3301.23	825.463
3302.47	815.293
3303.72	853.124
3304.97	849.955
3306.21	830.785
3307.46	864.616
3308.71	857.446
3309.95	870.277
3311.2	851.108
3312.44	853.938
3313.69	846.769
3314.93	842.599
3316.18	837.43
3317.42	845.261
3318.67	872.091
3319.91	834.922
3321.15	834.753
3322.4	844.583
3323.64	855.414
3324.88	837.244
3326.13	859.075
3327.37	830.906
3328.61	819.736
3329.86	830.567
3331.1	840.398
3332.34	844.228
3333.58	836.059
3334.82	825.889
3336.07	832.72
3337.31	838.551
3338.55	834.381
3339.79	824.212
3341.03	805.042
3342.27	820.873
3343.51	835.704
3344.75	823.534
3345.99	820.365
3347.23	823.196
3348.47	830.026
3349.71	849.857
3350.95	853.687
3352.18	826.518
3353.42	814.349
3354.66	803.179
3355.9	821.01
3357.14	818.841
3358.38	824.671
3359.61	813.502
3360.85	816.332
3362.09	830.163
3363.32	801.994
3364.56	818.824
3365.8	820.655
3367.03	814.485
3368.27	835.316
3369.5	814.147
3370.74	808.977
3371.98	806.808
3373.21	774.639
3374.45	812.469
3375.68	807.3
3376.91	807.13
3378.15	798.961
3379.38	809.792
3380.62	814.622
3381.85	800.453
3383.08	809.284
3384.32	795.114
3385.55	800.945
3386.78	792.775
3388.02	805.606
3389.25	796.437
3390.48	805.267
3391.71	809.098
3392.94	803.928
3394.17	790.759
3395.41	778.59
3396.64	810.42
3397.87	804.251
3399.1	790.082
3400.33	822.912
3401.56	797.743
3402.79	818.573
3404.02	791.404
3405.25	798.235
3406.48	809.065
3407.71	811.896
3408.94	796.727
3410.17	814.557
3411.4	790.388
3412.62	787.218
3413.85	807.049
3415.08	800.88
3416.31	807.71
3417.54	789.541
3418.76	817.371
3419.99	803.202
3421.22	808.033
3422.44	800.863
3423.67	818.694
3424.9	785.525
3426.12	790.355
3427.35	807.186
3428.57	808.016
3429.8	819.847
3431.02	801.678
3432.25	804.508
3433.48	805.339
3434.7	776.17
3435.92	818
3437.15	799.831
3438.37	811.661
3439.6	781.492
3440.82	798.323
3442.04	793.153
3443.27	775.984
3444.49	810.814
3445.71	796.645
3446.94	817.476
3448.16	799.306
3449.38	822.137
3450.6	816.968
3451.82	838.798
3453.05	820.629
3454.27	803.459
3455.49	793.29
3456.71	798.121
3457.93	787.951
3459.15	799.782
3460.37	789.613
3461.59	824.443
3462.81	822.274
3464.03	824.104
3465.25	807.935
3466.47	804.766
3467.69	784.596
3468.91	804.427
3470.13	826.257
3471.34	821.088
3472.56	799.919
3473.78	792.749
3475	792.58
3476.22	798.411
3477.43	787.241
3478.65	767.072
3479.87	800.902
3481.08	836.733
3482.3	767.564
3483.52	780.394
3484.73	812.225
3485.95	820.056
3487.17	797.886
3488.38	763.717
3489.6	793.547
3490.81	793.378
3492.03	790.209
3493.24	792.039
3494.46	771.87
3495.67	788.7
3496.89	778.531
3498.1	770.362
3499.31	769.192
3500.53	787.023
3501.74	779.854
3502.95	804.684
3504.17	777.515
3505.38	770.345
3506.59	777.176
3507.8	768.007
3509.02	770.837
3510.23	777.668
3511.44	751.499
3512.65	748.329
3513.86	779.16
3515.07	756.99
3516.29	770.821
3517.5	773.652
3518.71	771.482
3519.92	756.313
3521.13	770.143
3522.34	756.974
3523.55	746.805
3524.76	757.635
3525.96	786.466
3527.17	761.297
3528.38	765.127
3529.59	768.958
3530.8	756.788
3532.01	757.619
3533.22	762.45
3534.42	752.28
3535.63	762.111
3536.84	763.942
3538.05	765.772
3539.25	754.603
3540.46	758.433
3541.67	740.264
3542.87	775.095
3544.08	743.925
3545.29	741.756
3546.49	753.587
3547.7	740.417
3548.9	727.248
3550.11	746.078
3551.31	755.909
3552.52	760.74
3553.72	766.57
3554.93	756.401
3556.13	774.231
3557.34	748.062
3558.54	746.893
3559.74	746.723
3560.95	761.554
3562.15	759.385
3563.35	765.215
3564.56	752.046
3565.76	756.876
3566.96	750.707
3568.16	732.538
3569.36	755.368
3570.57	734.199
3571.77	732.03
3572.97	764.86
3574.17	752.691
3575.37	767.521
3576.57	758.352
3577.77	730.183
3578.97	743.013
3580.17	737.844
3581.37	737.674
3582.57	767.505
3583.77	749.336
3584.97	745.166
3586.17	743.997
3587.37	752.828
3588.57	764.658
3589.77	769.489
3590.97	745.319
3592.17	760.15
3593.36	728.981
3594.56	748.811
3595.76	746.642
3596.96	745.473
3598.15	755.303
3599.35	753.134
3600.55	754.964
3601.74	740.795
3602.94	746.626
3604.14	745.456
3605.33	743.287
3606.53	736.117
3607.72	754.948
3608.92	751.779
3610.11	753.609
3611.31	748.44
3612.5	757.271
3613.7	745.101
3614.89	745.932
3616.09	756.762
3617.28	759.593
3618.47	767.424
3619.67	726.254
3620.86	725.085
3622.05	764.916
3623.25	764.746
3624.44	750.577
3625.63	740.407
3626.82	727.238
3628.02	722.069
3629.21	741.899
3630.4	753.73
3631.59	724.56
3632.78	761.391
3633.98	719.222
3635.17	752.052
3636.36	723.883
3637.55	725.714
3638.74	735.544
3639.93	745.375
3641.12	749.205
3642.31	707.036
3643.5	750.867
3644.69	745.697
3645.88	735.528
3647.06	734.359
3648.25	746.189
3649.44	748.02
3650.63	732.85
3651.82	727.681
3653.01	747.512
3654.2	751.342
3655.38	703.173
3656.57	706.003
3657.76	719.834
3658.94	715.665
3660.13	723.495
3661.32	707.326
3662.5	710.156
3663.69	726.987
3664.88	703.818
3666.06	708.648
3667.25	735.479
3668.43	727.31
3669.62	737.14
3670.8	713.971
3671.99	698.802
3673.17	736.632
3674.36	705.463
3675.54	723.293
3676.73	740.124
3677.91	710.955
3679.09	695.785
3680.28	703.616
3681.46	723.446
3682.64	692.277
3683.82	696.108
3685.01	700.938
3686.19	694.769
3687.37	716.6
3688.55	688.43
3689.74	692.261
3690.92	706.091
3692.1	677.922
3693.28	681.753
3694.46	700.583
3695.64	733.414
3696.82	743.245
3698	758.075
3699.18	752.906
3700.36	709.736
3701.54	677.567
3702.72	700.398
3703.9	701.228
3705.08	687.059
3706.26	681.889
3707.44	682.72
3708.62	710.551
3709.8	696.381
3710.98	676.212
3712.15	688.043
3713.33	701.873
3714.51	703.704
3715.69	690.534
3716.86	690.365
3718.04	678.196
3719.22	677.026
3720.4	694.857
3721.57	704.688
3722.75	688.518
3723.92	716.349
3725.1	671.179
3726.28	695.01
3727.45	708.841
3728.63	718.671
3729.8	715.502
3730.98	708.332
3732.15	692.163
3733.33	697.994
3734.5	705.824
3735.68	700.655
3736.85	694.486
3738.02	705.316
3739.2	712.147
3740.37	667.977
3741.54	693.808
3742.72	721.639
3743.89	690.469
3745.06	684.3
3746.23	701.13
3747.41	687.961
3748.58	717.792
3749.75	687.622
3750.92	707.453
3752.09	692.284
3753.27	708.114
3754.44	691.945
3755.61	683.775
3756.78	688.606
3757.95	711.437
3759.12	682.267
3760.29	698.098
3761.46	701.929
3762.63	703.759
3763.8	683.59
3764.97	695.42
3766.14	672.251
3767.3	711.082
3768.47	688.912
3769.64	680.743
3770.81	712.573
3771.98	687.404
3773.15	688.235
3774.32	703.065
3775.48	689.896
3776.65	685.727
3777.82	661.557
3778.99	686.388
3780.15	708.218
3781.32	657.049
3782.48	679.88
3783.65	682.71
3784.82	698.541
3785.98	703.372
3787.15	688.202
3788.31	678.033
3789.48	702.863
3790.64	695.694
3791.81	687.525
3792.97	683.355
3794.14	689.186
3795.3	675.016
3796.47	686.847
3797.63	669.678
3798.79	687.508
3799.96	680.339
3801.12	669.17
3802.28	681
3803.45	672.831
3804.61	665.661
3805.77	690.492
3806.93	648.323
3808.1	678.153
3809.26	679.984
3810.42	669.815
3811.58	662.645
3812.74	656.476
3813.9	644.306
3815.07	646.137
3816.23	665.968
3817.39	669.798
3818.55	661.629
3819.71	667.459
3820.87	656.29
3822.03	674.121
3823.19	669.951
3824.35	649.782
3825.51	641.613
3826.67	640.443
3827.82	662.274
3828.98	662.104
3830.14	666.935
3831.3	648.766
3832.46	639.596
3833.62	667.427
3834.77	648.258
3835.93	651.088
3837.09	645.919
3838.25	627.749
3839.4	640.58
3840.56	653.411
3841.72	626.241
3842.87	658.072
3844.03	660.902
3845.19	646.733
3846.34	638.564
3847.5	652.394
3848.65	645.225
3849.81	636.056
3850.96	625.886
3852.12	630.717
3853.27	621.547
3854.43	614.378
3855.58	622.209
3856.73	643.039
3857.89	621.87
3859.04	630.701
3860.2	646.531
3861.35	633.362
3862.5	626.192
3863.66	633.023
3864.81	633.854
3865.96	651.684
3867.11	652.515
3868.27	647.345
3869.42	643.176
3870.57	632.007
3871.72	636.837
3872.87	615.668
3874.02	650.499
3875.18	663.329
3876.33	641.16
3877.48	619.99
3878.63	618.821
3879.78	626.652
3880.93	630.482
3882.08	654.313
3883.23	633.144
3884.38	652.974
3885.53	640.805
3886.68	658.635
3887.82	641.466
3888.97	657.297
3890.12	619.127
3891.27	644.958
3892.42	638.788
3893.57	637.619
3894.72	655.45
3895.86	659.28
3897.01	644.111
3898.16	634.942
3899.3	633.772
3900.45	639.603
3901.6	627.433
3902.74	634.264
3903.89	631.095
3905.04	660.925
3906.18	639.756
3907.33	638.587
3908.47	639.417
3909.62	627.248
3910.76	612.078
3911.91	637.909
3913.05	634.74
3914.2	637.57
3915.34	629.401
3916.49	650.231
3917.63	638.062
3918.78	646.893
3919.92	639.723
3921.06	626.554
3922.21	644.385
3923.35	634.215
3924.49	621.046
3925.64	635.876
3926.78	655.707
3927.92	633.538
3929.06	622.368
3930.2	612.199
3931.35	653.03
3932.49	628.86
3933.63	635.691
3934.77	624.521
3935.91	641.352
3937.05	634.183
3938.19	641.013
3939.33	632.844
3940.47	616.674
3941.61	641.505
3942.75	607.336
3943.89	615.166
3945.03	624.997
3946.17	598.828
3947.31	616.658
3948.45	606.489
3949.59	615.319
3950.73	638.15
3951.87	607.981
3953.01	621.811
3954.14	617.642
3955.28	626.473
3956.42	581.303
3957.56	613.134
3958.69	631.964
3959.83	603.795
3960.97	624.626
3962.1	605.456
3963.24	615.287
3964.38	622.117
3965.51	608.948
3966.65	605.779
3967.79	600.609
3968.92	622.44
3970.06	602.271
3971.19	608.101
3972.33	615.932
3973.46	611.762
3974.6	610.593
3975.73	612.424
3976.87	595.254
3978	563.085
3979.13	580.916
3980.27	601.746
3981.4	610.577
3982.53	585.407
3983.67	592.238
3984.8	620.069
3985.93	604.899
3987.07	605.73
3988.2	588.56
3989.33	614.391
3990.46	586.222
3991.6	622.052
3992.73	587.883
3993.86	579.714
3994.99	598.544
3996.12	570.375
3997.25	578.205
3998.38	590.036
3999.51	590.867
