#Acq. time (s)=	10
#Accumulations=	1
#Range (cm-¹)=	200...3000
#Windows=	3
#Autofocus=	Off
#AutoExposure=	Off
#Spike filter=	Off
#Delay time (s)=	0
#Binning=	1
#Readout mode=	Signal
#DeNoise=	Off
#ICS correction=	Off
#Dark correction=	Off
#Inst. Process=	Off
#Instrument=	LabRAM HR Evol
#Detector=	Syncerity OE
#Objective=	x100_VIS
#Grating=	600 (500nm)
#ND Filter=	0.1%
#Laser=	633nm_Edge
#Hole=	100.021
#Range=	Visible
#Project=	Omar
#Sample=	03-07-23
#Site=	papal
#Title=	leaf_100x
#Remark=	
#Date=	03.07.2023 17:16
#Acquired=	03.07.2023 17:16:17
201.713	170
202.98	192
204.247	188
205.513	212
206.778	190
208.045	200
209.311	188
210.576	196
211.84	196
213.106	200
214.371	200
215.636	196
216.899	188
218.164	174
219.428	216
220.692	214
221.955	204
223.219	204
224.482	212
225.744	210
227.007	200
228.27	218
229.531	216
230.794	214
232.055	204
233.317	218
234.579	216
235.839	232
237.1	210
238.362	226
239.621	244
240.882	242
242.141	226
243.402	240
244.661	228
245.921	232
247.179	224
248.439	254
249.698	242
250.956	240
252.215	224
253.473	244
254.731	228
255.988	250
257.246	258
258.503	254
259.761	276
261.017	252
262.273	264
263.53	258
264.786	258
266.042	256
267.298	252
268.554	254
269.809	250
271.063	274
272.319	274
273.573	272
274.828	262
276.082	260
277.336	282
278.591	292
279.844	278
281.097	272
282.351	294
283.603	296
284.855	282
286.109	286
287.361	292
288.613	280
289.866	312
291.117	292
292.368	302
293.62	312
294.871	312
296.121	304
297.372	308
298.623	312
299.873	294
301.123	296
302.372	304
303.622	314
304.872	290
306.121	310
307.37	320
308.618	320
309.866	300
311.116	350
312.364	326
313.611	344
314.859	344
316.106	344
317.353	332
318.6	358
319.848	334
321.095	354
322.341	344
323.587	364
324.833	336
326.079	370
327.324	358
328.569	346
329.814	346
331.059	368
332.304	382
333.548	358
334.792	374
336.037	374
337.28	382
338.524	384
339.767	368
341.011	394
342.254	386
343.497	396
344.739	394
345.982	426
347.224	394
348.466	406
349.708	386
350.95	408
352.191	396
353.432	430
354.673	412
355.914	406
357.155	426
358.394	422
359.634	408
360.874	434
362.114	428
363.354	426
364.593	448
365.832	446
367.07	456
368.309	456
369.548	426
370.786	450
372.024	452
373.261	424
374.499	460
375.736	460
376.974	468
378.211	448
379.447	448
380.684	492
381.92	468
383.157	476
384.392	460
385.628	480
386.864	476
388.098	478
389.333	504
390.569	486
391.802	492
393.037	500
394.272	498
395.505	460
396.739	490
397.973	506
399.206	498
400.44	510
401.673	538
402.905	524
404.138	510
405.37	520
406.602	544
407.835	530
409.066	540
410.298	536
411.528	542
412.76	572
413.99	558
415.221	554
416.451	560
417.682	594
418.911	584
420.142	568
421.371	592
422.601	586
423.83	588
425.059	610
426.288	588
427.517	596
428.745	572
429.974	564
431.201	628
432.43	630
433.657	618
434.883	590
436.111	618
437.338	600
438.565	650
439.791	606
441.017	640
442.244	622
443.469	630
444.695	652
445.921	652
447.146	650
448.37	646
449.596	692
450.821	670
452.045	664
453.27	682
454.493	642
455.717	678
456.94	678
458.165	674
459.387	656
460.61	662
461.833	676
463.056	718
464.278	700
465.5	712
466.722	724
467.945	712
469.166	676
470.387	724
471.608	702
472.829	732
474.049	742
475.271	744
476.491	750
477.711	728
478.931	734
480.15	742
481.37	736
482.589	748
483.808	798
485.027	752
486.247	764
487.465	766
488.683	800
489.901	796
491.119	784
492.337	786
493.554	794
494.771	786
495.988	806
497.205	796
498.422	770
499.638	806
500.854	826
502.07	808
503.286	840
504.502	812
505.717	814
506.933	870
508.148	846
509.363	824
510.577	842
511.792	834
513.005	860
514.219	844
515.433	872
516.647	862
517.86	820
519.073	856
520.287	876
521.5	892
522.711	888
523.924	908
525.136	880
526.348	920
527.56	900
528.772	958
529.982	894
531.194	884
532.405	932
533.616	942
534.825	984
536.036	942
537.246	920
538.457	960
539.665	944
540.875	934
542.085	972
543.294	986
544.502	980
545.712	980
546.92	978
548.128	968
549.336	978
550.545	998
551.751	994
552.959	998
554.167	990
555.373	1018
556.581	1024
557.788	1016
558.994	1024
560.2	1018
561.406	1050
562.612	988
563.817	1040
565.023	1020
566.229	1066
567.433	1078
568.639	1076
569.843	1048
571.048	1082
572.251	1062
573.456	1062
574.659	1122
575.863	1074
577.066	1142
578.27	1116
579.472	1136
580.676	1128
581.878	1130
583.081	1132
584.283	1154
585.484	1180
586.687	1176
587.888	1236
589.09	1202
590.291	1202
591.493	1204
592.693	1200
593.893	1168
595.094	1214
596.294	1226
597.494	1232
598.694	1258
599.894	1244
601.093	1244
602.293	1262
603.491	1274
604.69	1270
605.889	1300
607.087	1302
608.285	1312
609.483	1322
610.682	1306
611.879	1350
613.076	1348
614.273	1380
615.471	1376
616.667	1328
617.864	1386
619.06	1398
620.256	1380
621.453	1376
622.648	1392
623.844	1382
625.039	1420
626.234	1376
627.429	1468
628.625	1440
629.819	1484
631.013	1460
632.208	1440
633.401	1474
634.595	1456
635.789	1508
636.982	1508
638.175	1524
639.369	1522
640.562	1582
641.755	1558
642.947	1538
644.139	1554
645.331	1594
646.523	1608
647.715	1650
648.906	1604
650.097	1602
651.288	1648
652.479	1654
653.67	1622
654.86	1622
656.051	1668
657.241	1662
658.429	1672
659.619	1642
660.808	1728
661.998	1686
663.187	1674
664.376	1704
665.565	1700
666.753	1752
667.942	1754
669.13	1722
670.317	1776
671.505	1776
672.692	1784
673.88	1808
675.067	1842
676.254	1876
677.44	1878
678.627	1866
679.813	1792
681	1870
682.184	1908
683.37	1836
684.556	1894
685.742	1912
686.926	1896
688.111	1906
689.296	1924
690.481	1920
691.664	1998
692.849	1966
694.033	2020
695.216	1986
696.4	1976
697.584	1994
698.766	1984
699.949	2076
701.133	2062
702.314	2044
703.497	2088
704.678	2070
705.861	2090
707.043	2172
708.224	2102
709.406	2128
710.586	2142
711.768	2144
712.949	2276
714.129	2184
715.31	2232
716.489	2228
717.67	2242
718.849	2272
720.029	2304
721.208	2260
722.388	2338
723.566	2284
724.746	2352
725.924	2302
727.103	2396
728.28	2332
729.458	2404
730.636	2398
731.814	2432
732.992	2386
734.168	2424
735.345	2436
736.523	2514
737.699	2512
738.876	2550
740.052	2514
741.227	2582
742.404	2596
743.579	2514
744.754	2538
745.931	2614
747.105	2600
748.28	2654
749.455	2622
750.629	2678
751.803	2688
752.977	2724
754.152	2792
755.325	2728
756.499	2748
757.672	2746
758.846	2796
760.018	2816
761.191	2838
762.363	2830
763.535	2846
764.708	2808
765.88	2872
767.052	2902
768.223	2922
769.394	2910
770.565	2992
771.737	2960
772.908	2972
774.078	3050
775.249	2982
776.419	3028
777.589	3004
778.758	3080
779.928	3118
781.097	3140
782.266	3160
783.435	3144
784.604	3200
785.773	3138
786.941	3192
788.11	3216
789.278	3274
790.446	3300
791.613	3310
792.781	3314
793.948	3374
795.115	3342
796.282	3390
797.449	3340
798.616	3458
799.782	3402
800.948	3468
802.115	3418
803.28	3414
804.446	3520
805.612	3556
806.777	3572
807.941	3632
809.106	3606
810.271	3656
811.435	3598
812.6	3648
813.764	3752
814.927	3794
816.091	3776
817.254	3740
818.418	3798
819.581	3874
820.743	3880
821.906	3980
823.069	3936
824.232	3942
825.393	3944
826.555	3978
827.717	4046
828.879	3996
830.039	4054
831.201	4152
832.362	4154
833.522	4166
834.683	4246
835.844	4210
837.003	4206
838.164	4256
839.324	4278
840.483	4296
841.643	4296
842.801	4418
843.961	4372
845.12	4408
846.278	4424
847.437	4528
848.594	4510
849.753	4638
850.91	4544
852.069	4622
853.227	4712
854.383	4774
855.541	4692
856.697	4764
857.855	4798
859.011	4818
860.168	4844
861.323	4832
862.48	4888
863.635	4898
864.79	4908
865.946	4980
867.101	4982
868.257	4970
869.411	5110
870.567	5172
871.721	5044
872.874	5230
874.029	5178
875.183	5230
876.336	5156
877.49	5234
878.643	5332
879.796	5356
880.95	5262
882.102	5404
883.254	5352
884.407	5494
885.559	5414
886.711	5384
887.862	5494
889.015	5512
890.166	5562
891.317	5576
892.467	5588
893.619	5662
894.77	5596
895.92	5782
897.07	5702
898.221	5668
899.371	5722
900.52	5794
901.669	5866
902.819	5850
903.968	5874
905.116	5904
906.266	5960
907.415	5934
908.563	5974
909.711	5952
910.859	6058
912.007	6104
913.154	6164
914.301	6188
915.449	6190
916.596	6246
917.742	6230
918.889	6282
920.036	6372
921.183	6274
922.329	6402
923.475	6402
924.621	6482
925.765	6522
926.911	6546
928.056	6550
929.201	6588
930.346	6672
931.49	6692
932.635	6810
933.779	6734
934.924	6792
936.068	6928
937.211	6980
938.355	6940
939.498	6980
940.64	7000
941.784	7100
942.926	7104
944.069	7234
945.212	7232
946.354	7236
947.495	7310
948.637	7216
949.779	7420
950.921	7322
952.062	7416
953.202	7460
954.344	7506
955.484	7622
956.625	7544
957.765	7596
958.905	7706
960.045	7752
961.184	7826
962.324	7768
963.464	7876
964.604	7826
965.742	7876
966.881	7908
968.02	8090
969.158	8038
970.296	8110
971.434	8196
972.572	8118
973.71	8192
974.847	8192
975.985	8278
977.121	8332
978.259	8364
979.396	8382
980.532	8462
981.669	8550
982.804	8490
983.941	8622
985.076	8804
986.212	8626
987.347	8724
988.483	8748
989.617	8880
990.753	8844
991.887	8890
993.022	8832
994.156	8918
995.29	8948
996.424	9056
997.558	9024
998.692	9210
999.825	9274
1000.96	9270
1002.09	9262
1003.22	9368
1004.36	9358
1005.49	9380
1006.62	9360
1007.75	9442
1008.89	9476
1010.02	9608
1011.15	9620
1012.28	9718
1013.41	9792
1014.54	9708
1015.67	9704
1016.8	9816
1017.93	9892
1019.07	10052
1020.19	9942
1021.32	10162
1022.45	10198
1023.58	10078
1024.71	10282
1025.84	10378
1026.97	10478
1028.1	10388
1029.23	10466
1030.36	10492
1031.49	10578
1032.61	10658
1033.74	10832
1034.87	10648
1036	10858
1037.12	10872
1038.25	10980
1039.38	11086
1040.5	11148
1041.63	11132
1042.76	11208
1043.88	11062
1045.01	11302
1046.14	11202
1047.26	11338
1048.39	11582
1049.51	11430
1050.64	11624
1051.76	11682
1052.89	11584
1054.01	11732
1055.14	11834
1056.26	11818
1057.38	11866
1058.51	12012
1059.63	11910
1060.75	11954
1061.88	12111
1063	12268
1064.12	12212
1065.25	12288
1066.37	12302
1067.49	12452
1068.61	12314
1069.73	12388
1070.86	12484
1071.98	12552
1073.1	12600
1074.22	12592
1075.34	12690
1076.46	12682
1077.58	12788
1078.7	12838
1079.82	12730
1080.94	12776
1082.06	13002
1083.18	12854
1084.3	12970
1085.42	13046
1086.54	13074
1087.66	13194
1088.78	13224
1089.9	13156
1091.02	13264
1092.14	13170
1093.25	13214
1094.37	13288
1095.49	13436
1096.61	13426
1097.72	13620
1098.84	13460
1099.96	13576
1101.08	13620
1102.19	13622
1103.31	13714
1104.43	13658
1105.54	13688
1106.66	13704
1107.77	13934
1108.89	13750
1110	13930
1111.12	13942
1112.23	13940
1113.35	13956
1114.46	14282
1115.58	14082
1116.69	14206
1117.81	14136
1118.92	14254
1120.03	14222
1121.15	14410
1122.26	14242
1123.37	14384
1124.49	14342
1125.6	14534
1126.71	14532
1127.83	14660
1128.94	14646
1130.05	14624
1131.16	14784
1132.27	14748
1133.39	14902
1134.5	14810
1135.61	14896
1136.72	15054
1137.83	14894
1138.94	15112
1140.05	15104
1141.16	15158
1142.27	15032
1143.38	15288
1144.49	15162
1145.6	15290
1146.71	15290
1147.82	15474
1148.93	15364
1150.04	15474
1151.15	15498
1152.26	15434
1153.36	15600
1154.47	15680
1155.58	15526
1156.69	15778
1157.8	15640
1158.9	15776
1160.01	15636
1161.12	15814
1162.22	15736
1163.33	15728
1164.44	15806
1165.54	15782
1166.65	15854
1167.76	15818
1168.86	15936
1169.97	15822
1171.07	15896
1172.18	15964
1173.28	15962
1174.39	15838
1175.49	16096
1176.6	15866
1177.7	15940
1178.81	15956
1179.91	15982
1181.02	15888
1182.12	15820
1183.22	15974
1184.33	15962
1185.43	15952
1186.53	15982
1187.63	15916
1188.74	15918
1189.84	15908
1190.94	15828
1192.04	15966
1193.15	15924
1194.25	15826
1195.35	15874
1196.45	15842
1197.55	15684
1198.65	15822
1199.75	15814
1200.85	15704
1201.95	15810
1203.05	15864
1204.16	15814
1205.25	15560
1206.35	15532
1207.45	15740
1208.55	15664
1209.65	15630
1210.75	15358
1211.85	15434
1212.95	15338
1214.05	15608
1215.15	15378
1216.24	15370
1217.34	15292
1218.44	15516
1219.54	15324
1220.64	15278
1221.73	15326
1222.83	15208
1223.93	15192
1225.02	15258
1226.12	15212
1227.22	15172
1228.31	15180
1229.41	15062
1230.5	14980
1231.6	15034
1232.7	14900
1233.79	15002
1234.89	14802
1235.98	14844
1237.08	14968
1238.17	14812
1239.26	14894
1240.36	14798
1241.45	14742
1242.55	14730
1243.64	14702
1244.73	14628
1245.83	14678
1246.92	14632
1248.01	14602
1249.11	14610
1250.2	14580
1251.29	14580
1252.38	14368
1253.48	14462
1254.57	14318
1255.66	14388
1256.75	14284
1257.84	14218
1258.93	14196
1260.03	14094
1261.12	14146
1262.21	14048
1263.3	14022
1264.39	13936
1265.48	14068
1266.57	13846
1267.66	13982
1268.75	13790
1269.84	13858
1270.93	13842
1272.02	13852
1273.11	13722
1274.19	13748
1275.28	13518
1276.37	13638
1277.46	13670
1278.55	13468
1279.64	13446
1280.72	13366
1281.81	13404
1282.9	13232
1283.98	13152.3
1285.07	13228.2
1286.16	13040.8
1287.25	13281.8
1288.33	13032
1289.42	12948
1290.5	12955.5
1291.59	12887.3
1292.68	12922.8
1293.76	12803.4
1294.85	12690.3
1295.93	12733.4
1297.02	12620.8
1298.1	12394.1
1299.19	12514.7
1300.27	12340.5
1301.36	12237.5
1302.44	12225.7
1303.53	12202.4
1304.61	12210.1
1305.69	11996
1306.78	11984.5
1307.86	11877.5
1308.94	11764.6
1310.03	11874.9
1311.11	11753.1
1312.19	11625.2
1313.27	11622.4
1314.36	11564.6
1315.44	11520.4
1316.52	11348.1
1317.6	11340.2
1318.68	11286.7
1319.77	11236.5
1320.85	11181.1
1321.93	11161.9
1323.01	11144
1324.09	11053.8
1325.17	11019.4
1326.25	10960.7
1327.33	10886.8
1328.41	10736.6
1329.49	10721
1330.57	10631
1331.65	10551.3
1332.73	10488
1333.81	10470.3
1334.89	10381.3
1335.97	10528.5
1337.04	10332.9
1338.12	10347
1339.2	10255.9
1340.28	10199.9
1341.36	10189.8
1342.44	10003.6
1343.51	9966.87
1344.59	9955.71
1345.67	9805.09
1346.75	9858.44
1347.82	9772.75
1348.9	9781.79
1349.98	9684.9
1351.05	9680
1352.13	9484.88
1353.2	9477.84
1354.28	9472.77
1355.36	9454.53
1356.43	9359.36
1357.51	9299.39
1358.58	9250.67
1359.66	9231.61
1360.73	9114.63
1361.81	9231.62
1362.88	9118.45
1363.96	9063.14
1365.03	8933.61
1366.1	9029.99
1367.18	8849.25
1368.25	8916.29
1369.33	8847.71
1370.4	8813.72
1371.47	8788.64
1372.54	8752.37
1373.62	8647.77
1374.69	8576.58
1375.76	8499.48
1376.83	8522.96
1377.91	8474.08
1378.98	8402.96
1380.05	8297.01
1381.12	8276.01
1382.19	8335.24
1383.26	8296.8
1384.34	8208.06
1385.41	8123.09
1386.48	8039.12
1387.55	8010.81
1388.62	8024.74
1389.69	7940.15
1390.76	7906.23
1391.83	7835.89
1392.9	7766.02
1393.02	7754
1394.1	7892
1395.17	7894
1396.25	7788
1397.32	7810
1398.4	7810
1399.47	7750
1400.55	7656
1401.62	7620
1402.69	7686
1403.77	7540
1404.84	7578
1405.91	7580
1406.99	7556
1408.06	7502
1409.13	7478
1410.2	7468
1411.27	7352
1412.35	7358
1413.42	7310
1414.49	7248
1415.56	7330
1416.63	7246
1417.7	7246
1418.78	7162
1419.85	7118
1420.92	7108
1421.99	7188
1423.06	7072
1424.13	7098
1425.2	7046
1426.27	7006
1427.34	6976
1428.41	6978
1429.48	6934
1430.55	6908
1431.61	6858
1432.68	6914
1433.75	6842
1434.82	6906
1435.89	6800
1436.96	6730
1438.02	6800
1439.09	6708
1440.16	6762
1441.23	6702
1442.3	6732
1443.36	6698
1444.43	6582
1445.5	6508
1446.56	6598
1447.63	6546
1448.7	6576
1449.76	6506
1450.83	6498
1451.89	6494
1452.96	6410
1454.02	6380
1455.09	6518
1456.15	6340
1457.22	6392
1458.28	6358
1459.35	6342
1460.41	6354
1461.48	6248
1462.54	6320
1463.61	6334
1464.67	6248
1465.73	6154
1466.8	6238
1467.86	6248
1468.92	6282
1469.98	6186
1471.05	6192
1472.11	6156
1473.17	6072
1474.24	6118
1475.3	6088
1476.36	5978
1477.42	6024
1478.48	5922
1479.54	6046
1480.6	6018
1481.67	5898
1482.73	5934
1483.79	5922
1484.85	5984
1485.91	5986
1486.97	5880
1488.03	5882
1489.09	5844
1490.15	5778
1491.21	5814
1492.27	5798
1493.33	5842
1494.38	5812
1495.44	5706
1496.5	5768
1497.56	5698
1498.62	5704
1499.68	5686
1500.74	5634
1501.79	5646
1502.85	5664
1503.91	5740
1504.97	5610
1506.02	5612
1507.08	5576
1508.14	5514
1509.2	5606
1510.25	5596
1511.31	5528
1512.36	5460
1513.42	5494
1514.48	5438
1515.53	5458
1516.59	5316
1517.64	5484
1518.7	5398
1519.75	5324
1520.81	5294
1521.86	5408
1522.92	5292
1523.97	5324
1525.02	5328
1526.08	5272
1527.13	5194
1528.19	5266
1529.24	5148
1530.29	5210
1531.35	5262
1532.4	5184
1533.45	5128
1534.51	5174
1535.56	5048
1536.61	5046
1537.66	5062
1538.72	5088
1539.77	4992
1540.82	5128
1541.87	5072
1542.92	5094
1543.97	5026
1545.02	5018
1546.08	5010
1547.13	4924
1548.18	4926
1549.23	4922
1550.28	4894
1551.33	4930
1552.38	4980
1553.43	4960
1554.48	4908
1555.53	4848
1556.57	4828
1557.62	4888
1558.67	4734
1559.72	4812
1560.77	4762
1561.82	4840
1562.87	4770
1563.92	4838
1564.96	4716
1566.01	4694
1567.06	4784
1568.11	4676
1569.15	4772
1570.2	4770
1571.25	4662
1572.29	4670
1573.34	4674
1574.39	4676
1575.43	4694
1576.48	4630
1577.53	4604
1578.57	4612
1579.62	4644
1580.66	4676
1581.71	4632
1582.75	4640
1583.8	4640
1584.84	4610
1585.89	4612
1586.93	4508
1587.98	4620
1589.02	4636
1590.06	4560
1591.11	4492
1592.15	4524
1593.2	4548
1594.24	4550
1595.28	4516
1596.33	4502
1597.37	4524
1598.41	4548
1599.45	4524
1600.5	4478
1601.54	4488
1602.58	4478
1603.62	4464
1604.66	4446
1605.7	4512
1606.75	4490
1607.79	4366
1608.83	4378
1609.87	4452
1610.91	4358
1611.95	4402
1612.99	4470
1614.03	4414
1615.07	4390
1616.11	4404
1617.15	4360
1618.19	4382
1619.23	4394
1620.27	4402
1621.31	4276
1622.35	4262
1623.39	4288
1624.43	4350
1625.46	4328
1626.5	4378
1627.54	4294
1628.58	4388
1629.62	4306
1630.65	4276
1631.69	4286
1632.73	4242
1633.77	4334
1634.8	4260
1635.84	4242
1636.88	4284
1637.91	4288
1638.95	4278
1639.99	4242
1641.02	4246
1642.06	4256
1643.09	4178
1644.13	4184
1645.16	4206
1646.2	4184
1647.23	4136
1648.27	4220
1649.3	4180
1650.34	4184
1651.37	4226
1652.41	4126
1653.44	4154
1654.47	4156
1655.51	4106
1656.54	4086
1657.57	4150
1658.61	4110
1659.64	4108
1660.67	4184
1661.71	4098
1662.74	4122
1663.77	4084
1664.81	4076
1665.84	4052
1666.87	4094
1667.9	4132
1668.93	4134
1669.96	4088
1671	4092
1672.03	4068
1673.06	4004
1674.09	4092
1675.12	4022
1676.15	3952
1677.18	4044
1678.21	4026
1679.24	3968
1680.27	4004
1681.3	3982
1682.33	3968
1683.36	3944
1684.39	3940
1685.42	4030
1686.45	3952
1687.47	3964
1688.5	3976
1689.53	3864
1690.56	3894
1691.59	3966
1692.62	3874
1693.64	3866
1694.67	3936
1695.7	3864
1696.73	3824
1697.75	3874
1698.78	3900
1699.81	3768
1700.83	3820
1701.86	3880
1702.89	3856
1703.91	3836
1704.94	3872
1705.97	3872
1706.99	3836
1708.02	3896
1709.04	3854
1710.07	3796
1711.09	3862
1712.12	3798
1713.14	3820
1714.17	3816
1715.19	3810
1716.22	3742
1717.24	3770
1718.26	3800
1719.29	3780
1720.31	3780
1721.33	3776
1722.36	3694
1723.38	3740
1724.4	3820
1725.43	3714
1726.45	3738
1727.47	3732
1728.49	3748
1729.52	3746
1730.54	3748
1731.56	3752
1732.58	3726
1733.6	3740
1734.63	3708
1735.65	3706
1736.67	3746
1737.69	3726
1738.71	3774
1739.73	3694
1740.75	3704
1741.77	3706
1742.79	3602
1743.81	3728
1744.83	3724
1745.85	3786
1746.87	3744
1747.89	3674
1748.91	3648
1749.93	3686
1750.95	3762
1751.97	3744
1752.98	3672
1754	3730
1755.02	3682
1756.04	3710
1757.06	3654
1758.07	3748
1759.09	3692
1760.11	3656
1761.13	3694
1762.14	3688
1763.16	3638
1764.18	3734
1765.19	3698
1766.21	3640
1767.23	3706
1768.24	3628
1769.26	3704
1770.28	3656
1771.29	3694
1772.31	3676
1773.32	3742
1774.34	3680
1775.35	3790
1776.37	3588
1777.38	3720
1778.4	3698
1779.41	3710
1780.43	3698
1781.44	3668
1782.45	3620
1783.47	3640
1784.48	3610
1785.49	3670
1786.51	3690
1787.52	3688
1788.53	3738
1789.55	3690
1790.56	3740
1791.57	3660
1792.58	3620
1793.6	3676
1794.61	3602
1795.62	3668
1796.63	3670
1797.64	3642
1798.66	3674
1799.67	3692
1800.68	3624
1801.69	3626
1802.7	3588
1803.71	3628
1804.72	3648
1805.73	3610
1806.74	3594
1807.75	3688
1808.76	3584
1809.77	3596
1810.78	3628
1811.79	3616
1812.8	3548
1813.81	3560
1814.82	3580
1815.83	3588
1816.84	3614
1817.84	3676
1818.85	3538
1819.86	3580
1820.87	3586
1821.88	3538
1822.88	3510
1823.89	3556
1824.9	3560
1825.91	3568
1826.91	3574
1827.92	3564
1828.93	3604
1829.93	3588
1830.94	3528
1831.95	3570
1832.95	3618
1833.96	3584
1834.97	3528
1835.97	3578
1836.98	3572
1837.98	3526
1838.99	3508
1839.99	3532
1841	3626
1842	3530
1843.01	3504
1844.01	3570
1845.02	3478
1846.02	3428
1847.02	3548
1848.03	3518
1849.03	3552
1850.03	3472
1851.04	3482
1852.04	3512
1853.04	3538
1854.05	3462
1855.05	3610
1856.05	3520
1857.05	3522
1858.06	3526
1859.06	3542
1860.06	3468
1861.06	3434
1862.06	3452
1863.07	3474
1864.07	3522
1865.07	3440
1866.07	3478
1867.07	3452
1868.07	3476
1869.07	3452
1870.07	3480
1871.07	3480
1872.07	3496
1873.07	3448
1874.07	3548
1875.07	3440
1876.07	3470
1877.07	3478
1878.07	3452
1879.07	3442
1880.07	3404
1881.07	3426
1882.07	3454
1883.06	3400
1884.06	3424
1885.06	3468
1886.06	3492
1887.06	3474
1888.05	3508
1889.05	3386
1890.05	3428
1891.05	3382
1892.04	3482
1893.04	3496
1894.04	3466
1895.03	3464
1896.03	3464
1897.03	3404
1898.02	3432
1899.02	3378
1900.01	3476
1901.01	3404
1902	3412
1903	3522
1903.99	3444
1904.99	3456
1905.98	3414
1906.98	3476
1907.97	3444
1908.97	3422
1909.96	3422
1910.96	3380
1911.95	3396
1912.94	3428
1913.94	3422
1914.93	3448
1915.93	3378
1916.92	3454
1917.91	3514
1918.9	3434
1919.9	3370
1920.89	3438
1921.88	3410
1922.87	3380
1923.87	3432
1924.86	3484
1925.85	3436
1926.84	3354
1927.83	3366
1928.82	3430
1929.82	3470
1930.81	3458
1931.8	3448
1932.79	3386
1933.78	3322
1934.77	3456
1935.76	3366
1936.75	3396
1937.74	3368
1938.73	3406
1939.72	3422
1940.71	3462
1941.7	3432
1942.69	3350
1943.68	3496
1944.67	3446
1945.65	3322
1946.64	3388
1947.63	3422
1948.62	3428
1949.61	3378
1950.6	3310
1951.58	3482
1952.57	3366
1953.56	3298
1954.55	3392
1955.53	3422
1956.52	3344
1957.51	3406
1958.5	3372
1959.48	3382
1960.47	3274
1961.45	3342
1962.44	3318
1963.43	3332
1964.41	3336
1965.4	3266
1966.38	3330
1967.37	3280
1968.35	3346
1969.34	3306
1970.32	3280
1971.31	3314
1972.29	3332
1973.28	3332
1974.26	3358
1975.25	3304
1976.23	3230
1977.22	3340
1978.2	3312
1979.18	3288
1980.17	3252
1981.15	3254
1982.13	3350
1983.12	3348
1984.1	3336
1985.08	3276
1986.06	3338
1987.05	3254
1988.03	3302
1989.01	3268
1989.99	3260
1990.97	3322
1991.96	3222
1992.94	3308
1993.92	3286
1994.9	3278
1995.88	3256
1996.86	3340
1997.84	3330
1998.82	3308
1999.8	3334
2000.78	3352
2001.76	3216
2002.74	3326
2003.72	3228
2004.7	3316
2005.68	3248
2006.66	3276
2007.64	3232
2008.62	3330
2009.6	3290
2010.58	3286
2011.56	3232
2012.54	3282
2013.51	3222
2014.49	3326
2015.47	3282
2016.45	3184
2017.43	3214
2018.4	3190
2019.38	3304
2020.36	3252
2021.34	3290
2022.31	3242
2023.29	3238
2024.27	3264
2025.24	3322
2026.22	3210
2027.2	3250
2028.17	3264
2029.15	3278
2030.12	3218
2031.1	3214
2032.07	3180
2033.05	3242
2034.03	3206
2035	3202
2035.98	3234
2036.95	3154
2037.93	3218
2038.9	3158
2039.87	3246
2040.85	3212
2041.82	3212
2042.8	3154
2043.77	3222
2044.74	3150
2045.72	3218
2046.69	3124
2047.66	3162
2048.64	3204
2049.61	3246
2050.58	3258
2051.55	3246
2052.53	3184
2053.5	3156
2054.47	3192
2055.44	3108
2056.41	3170
2057.39	3206
2058.36	3208
2059.33	3166
2060.3	3184
2061.27	3166
2062.24	3200
2063.21	3150
2064.18	3216
2065.15	3238
2066.12	3188
2067.09	3224
2068.06	3190
2069.03	3206
2070	3196
2070.97	3206
2071.94	3120
2072.91	3200
2073.88	3198
2074.85	3164
2075.82	3258
2076.79	3174
2077.76	3176
2078.73	3144
2079.69	3178
2080.66	3206
2081.63	3140
2082.6	3188
2083.56	3108
2084.53	3210
2085.5	3144
2086.47	3156
2087.43	3170
2088.4	3124
2089.37	3098
2090.33	3160
2091.3	3144
2092.27	3092
2093.23	3152
2094.2	3164
2095.17	3170
2096.13	3130
2097.1	3144
2098.06	3192
2099.03	3196
2099.99	3132
2100.96	3156
2101.92	3100
2102.89	3140
2103.85	3142
2104.82	3106
2105.78	3174
2106.74	3086
2107.71	3104
2108.67	3104
2109.64	3190
2110.6	3192
2111.56	3076
2112.53	3120
2113.49	3064
2114.45	3124
2115.41	3102
2116.38	3068
2117.34	3116
2118.3	3122
2119.26	3154
2120.23	3122
2121.19	3108
2122.15	3128
2123.11	3060
2124.07	3060
2125.03	3044
2126	3134
2126.96	3072
2127.92	3146
2128.88	3108
2129.84	3066
2130.8	3072
2131.76	3080
2132.72	3166
2133.68	3132
2134.64	3120
2135.6	3058
2136.56	3076
2137.52	3074
2138.48	3092
2139.44	3076
2140.4	3158
2141.35	3026
2142.31	3094
2143.27	3118
2144.23	3076
2145.19	3028
2146.15	3006
2147.1	3000
2148.06	3040
2149.02	3050
2149.98	3056
2150.94	3022
2151.89	3048
2152.85	3004
2153.81	3080
2154.76	3036
2155.72	3070
2156.68	3004
2157.63	3014
2158.59	3062
2159.55	2978
2160.5	2984
2161.46	3038
2162.41	3014
2163.37	3066
2164.32	3006
2165.28	2986
2166.23	2984
2167.19	3036
2168.14	2976
2169.1	2976
2170.05	2972
2171.01	3024
2171.96	3004
2172.91	2980
2173.87	2978
2174.82	2964
2175.78	2994
2176.73	2968
2177.68	2948
2178.64	2968
2179.59	2960
2180.54	2984
2181.49	2952
2182.45	2966
2183.4	3030
2184.35	2942
2185.3	2970
2186.26	2966
2187.21	2984
2188.16	2958
2189.11	2970
2190.06	3020
2191.01	2934
2191.96	2862
2192.92	2890
2193.87	2984
2194.82	2938
2195.77	2982
2196.72	2960
2197.67	2918
2198.62	2944
2199.57	2834
2200.52	2932
2201.47	2846
2202.42	2890
2203.37	2960
2204.32	2878
2205.27	2900
2206.22	2888
2207.16	2942
2208.11	2876
2209.06	2840
2210.01	2884
2210.96	2876
2211.91	2902
2212.85	2812
2213.8	2910
2214.75	2842
2215.7	2906
2216.64	2916
2217.59	2916
2218.54	2850
2219.49	2846
2220.43	2936
2221.38	2970
2222.33	2922
2223.27	2871.48
2224.22	2846.03
2225.16	2873.41
2226.11	2809.68
2227.06	2877.35
2228	2788.47
2228.95	2823.97
2229.89	2861.82
2230.84	2887.99
2231.78	2825.12
2232.73	2879.2
2233.67	2859.21
2234.62	2872
2235.56	2809.72
2236.51	2819.44
2237.45	2783.05
2238.4	2813.65
2239.34	2774.54
2240.28	2820.37
2241.23	2835.03
2242.17	2829.9
2243.11	2845.85
2244.06	2819.09
2245	2840.96
2245.94	2809.77
2246.89	2780.02
2247.83	2775.51
2248.77	2801.12
2249.71	2788.6
2250.66	2787.11
2251.6	2758.33
2252.54	2800.5
2253.48	2777.24
2254.42	2827.32
2255.37	2817.61
2256.31	2755.16
2257.25	2774.14
2258.19	2771.21
2259.13	2777.98
2260.07	2775.94
2261.01	2816.31
2261.95	2765.93
2262.89	2742.51
2263.83	2790.42
2264.77	2787.29
2265.71	2786.94
2266.65	2723.96
2267.59	2759.31
2268.53	2778.95
2269.47	2772.14
2270.41	2721.86
2271.35	2695.83
2272.29	2679.52
2273.23	2711.49
2274.17	2727
2275.1	2728.54
2276.04	2673.31
2276.98	2682.45
2277.92	2703.13
2278.86	2673.31
2279.8	2679.97
2280.73	2672.89
2281.67	2667.21
2282.61	2656.18
2283.55	2687.44
2284.48	2665.38
2285.42	2670.15
2286.36	2647.78
2287.29	2659.81
2288.23	2677.21
2289.17	2677.41
2290.1	2628.3
2291.04	2607.85
2291.98	2657.96
2292.91	2579.04
2293.85	2598.54
2294.78	2585.7
2295.72	2594.09
2296.65	2575.91
2297.59	2567.42
2298.52	2593.72
2299.46	2599.7
2300.39	2579.15
2301.33	2558.81
2302.26	2565.55
2303.2	2581.9
2304.13	2602.62
2305.06	2550.54
2306	2545.15
2306.93	2572.99
2307.87	2570.43
2308.8	2571.67
2309.73	2594.55
2310.67	2572.5
2311.6	2568.65
2312.53	2563.13
2313.46	2531.38
2314.4	2529.85
2315.33	2523.5
2316.26	2514.62
2316.69	2520
2317.62	2480
2318.56	2514
2319.5	2482
2320.43	2490
2321.37	2504
2322.31	2432
2323.24	2482
2324.18	2500
2325.12	2480
2326.05	2450
2326.99	2456
2327.92	2488
2328.86	2458
2329.79	2452
2330.73	2468
2331.66	2476
2332.6	2418
2333.53	2442
2334.47	2514
2335.4	2428
2336.34	2392
2337.27	2522
2338.2	2450
2339.14	2502
2340.07	2472
2341.01	2388
2341.94	2426
2342.87	2450
2343.81	2476
2344.74	2392
2345.67	2440
2346.6	2426
2347.54	2404
2348.47	2416
2349.4	2362
2350.33	2380
2351.27	2468
2352.2	2390
2353.13	2428
2354.06	2366
2354.99	2382
2355.93	2372
2356.86	2390
2357.79	2422
2358.72	2374
2359.65	2420
2360.58	2374
2361.51	2354
2362.44	2348
2363.37	2402
2364.3	2344
2365.23	2334
2366.16	2362
2367.09	2294
2368.02	2344
2368.95	2370
2369.88	2356
2370.81	2322
2371.74	2304
2372.67	2294
2373.6	2364
2374.52	2310
2375.45	2332
2376.38	2324
2377.31	2356
2378.24	2336
2379.17	2278
2380.09	2278
2381.02	2266
2381.95	2216
2382.88	2300
2383.8	2240
2384.73	2320
2385.66	2270
2386.58	2296
2387.51	2274
2388.44	2266
2389.36	2264
2390.29	2300
2391.22	2226
2392.14	2250
2393.07	2186
2393.99	2252
2394.92	2302
2395.85	2182
2396.77	2200
2397.7	2234
2398.62	2194
2399.55	2212
2400.47	2244
2401.4	2214
2402.32	2208
2403.25	2176
2404.17	2228
2405.09	2196
2406.02	2164
2406.94	2166
2407.86	2196
2408.79	2174
2409.71	2100
2410.63	2160
2411.56	2144
2412.48	2194
2413.4	2146
2414.33	2166
2415.25	2142
2416.17	2090
2417.09	2092
2418.02	2200
2418.94	2108
2419.86	2110
2420.78	2090
2421.7	2104
2422.63	2126
2423.55	2094
2424.47	2022
2425.39	2066
2426.31	2122
2427.23	2088
2428.15	2092
2429.07	2002
2429.99	2040
2430.91	2100
2431.83	2116
2432.75	2052
2433.67	2038
2434.59	2070
2435.51	1996
2436.43	2080
2437.35	2044
2438.27	2094
2439.19	2026
2440.11	2060
2441.03	2038
2441.95	1984
2442.86	2032
2443.78	1974
2444.7	2010
2445.62	1996
2446.54	1994
2447.46	1974
2448.37	2016
2449.29	1944
2450.21	1966
2451.13	2042
2452.04	1974
2452.96	2018
2453.88	1968
2454.79	2016
2455.71	1942
2456.63	1932
2457.54	1956
2458.46	1962
2459.38	1934
2460.29	1928
2461.21	1918
2462.12	1918
2463.04	1866
2463.95	1946
2464.87	1922
2465.78	1922
2466.7	1908
2467.61	1886
2468.53	1896
2469.44	1860
2470.36	1912
2471.27	1864
2472.19	1840
2473.1	1814
2474.01	1834
2474.93	1876
2475.84	1830
2476.76	1816
2477.67	1824
2478.58	1808
2479.5	1830
2480.41	1804
2481.32	1810
2482.23	1852
2483.15	1804
2484.06	1854
2484.97	1822
2485.88	1838
2486.8	1768
2487.71	1770
2488.62	1784
2489.53	1776
2490.44	1804
2491.35	1786
2492.26	1778
2493.18	1762
2494.09	1776
2495	1744
2495.91	1778
2496.82	1754
2497.73	1720
2498.64	1762
2499.55	1692
2500.46	1726
2501.37	1686
2502.28	1742
2503.19	1724
2504.1	1704
2505.01	1710
2505.92	1708
2506.83	1708
2507.74	1620
2508.65	1712
2509.55	1718
2510.46	1670
2511.37	1730
2512.28	1616
2513.19	1652
2514.09	1652
2515	1646
2515.91	1658
2516.82	1664
2517.73	1666
2518.63	1606
2519.54	1620
2520.45	1686
2521.35	1640
2522.26	1638
2523.17	1638
2524.07	1608
2524.98	1574
2525.89	1638
2526.79	1610
2527.7	1608
2528.6	1614
2529.51	1606
2530.42	1578
2531.32	1588
2532.23	1602
2533.13	1588
2534.04	1580
2534.94	1572
2535.85	1544
2536.75	1578
2537.66	1526
2538.56	1574
2539.47	1486
2540.37	1530
2541.27	1554
2542.18	1554
2543.08	1554
2543.98	1546
2544.89	1548
2545.79	1566
2546.7	1568
2547.6	1538
2548.5	1554
2549.4	1532
2550.31	1468
2551.21	1488
2552.11	1530
2553.01	1488
2553.92	1452
2554.82	1474
2555.72	1544
2556.62	1502
2557.52	1482
2558.42	1436
2559.33	1456
2560.23	1502
2561.13	1432
2562.03	1478
2562.93	1456
2563.83	1448
2564.73	1420
2565.63	1470
2566.53	1524
2567.43	1410
2568.33	1424
2569.23	1420
2570.13	1400
2571.03	1408
2571.93	1416
2572.83	1418
2573.73	1428
2574.63	1428
2575.53	1442
2576.43	1412
2577.33	1408
2578.22	1396
2579.12	1416
2580.02	1364
2580.92	1378
2581.82	1348
2582.72	1394
2583.61	1358
2584.51	1376
2585.41	1396
2586.31	1376
2587.2	1358
2588.1	1364
2589	1364
2589.89	1334
2590.79	1368
2591.69	1316
2592.58	1344
2593.48	1412
2594.38	1348
2595.27	1342
2596.17	1294
2597.06	1362
2597.96	1342
2598.86	1372
2599.75	1298
2600.65	1270
2601.54	1296
2602.44	1312
2603.33	1318
2604.23	1302
2605.12	1318
2606.02	1268
2606.91	1238
2607.81	1256
2608.7	1270
2609.59	1286
2610.49	1274
2611.38	1298
2612.27	1276
2613.17	1280
2614.06	1258
2614.95	1280
2615.85	1238
2616.74	1266
2617.63	1236
2618.53	1266
2619.42	1254
2620.31	1270
2621.2	1260
2622.1	1226
2622.99	1258
2623.88	1184
2624.77	1232
2625.66	1242
2626.55	1210
2627.45	1184
2628.34	1216
2629.23	1170
2630.12	1238
2631.01	1190
2631.9	1176
2632.79	1176
2633.68	1222
2634.57	1218
2635.46	1160
2636.35	1214
2637.24	1204
2638.13	1190
2639.02	1152
2639.91	1172
2640.8	1180
2641.69	1182
2642.58	1130
2643.47	1158
2644.36	1162
2645.25	1154
2646.14	1106
2647.02	1168
2647.91	1152
2648.8	1126
2649.69	1190
2650.58	1108
2651.46	1108
2652.35	1134
2653.24	1094
2654.13	1108
2655.01	1116
2655.9	1110
2656.79	1122
2657.68	1150
2658.56	1120
2659.45	1070
2660.34	1068
2661.22	1108
2662.11	1098
2662.99	1054
2663.88	1098
2664.77	1094
2665.65	1062
2666.54	1084
2667.42	1024
2668.31	1042
2669.2	1054
2670.08	1078
2670.96	1104
2671.85	1062
2672.73	1054
2673.62	1050
2674.5	1076
2675.39	1036
2676.27	1070
2677.16	1046
2678.04	1028
2678.93	1028
2679.81	1022
2680.69	1038
2681.58	1028
2682.46	1074
2683.34	992
2684.23	1002
2685.11	996
2685.99	1018
2686.87	1028
2687.76	1006
2688.64	996
2689.52	1030
2690.4	978
2691.28	1006
2692.17	984
2693.05	984
2693.93	966
2694.81	982
2695.69	982
2696.57	944
2697.46	960
2698.34	992
2699.22	970
2700.1	938
2700.98	970
2701.86	970
2702.74	990
2703.62	978
2704.5	988
2705.38	950
2706.26	974
2707.14	954
2708.02	944
2708.9	906
2709.78	908
2710.66	962
2711.54	930
2712.42	940
2713.3	916
2714.17	904
2715.05	934
2715.93	914
2716.81	946
2717.69	912
2718.57	922
2719.44	890
2720.32	910
2721.2	894
2722.08	914
2722.95	910
2723.83	886
2724.71	918
2725.59	900
2726.46	876
2727.34	934
2728.22	896
2729.09	884
2729.97	918
2730.85	852
2731.72	878
2732.6	834
2733.47	844
2734.35	878
2735.23	856
2736.1	880
2736.98	860
2737.85	828
2738.73	828
2739.6	880
2740.48	828
2741.35	842
2742.23	862
2743.1	838
2743.98	882
2744.85	810
2745.72	814
2746.6	816
2747.47	838
2748.35	800
2749.22	816
2750.09	786
2750.97	792
2751.84	828
2752.71	810
2753.59	804
2754.46	776
2755.33	796
2756.2	806
2757.08	774
2757.95	780
2758.82	792
2759.69	758
2760.57	800
2761.44	744
2762.31	756
2763.18	798
2764.05	778
2764.92	764
2765.79	770
2766.67	786
2767.54	782
2768.41	766
2769.28	774
2770.15	784
2771.02	752
2771.89	732
2772.76	750
2773.63	744
2774.5	730
2775.37	734
2776.24	722
2777.11	732
2777.98	784
2778.85	742
2779.72	724
2780.59	718
2781.46	714
2782.32	704
2783.19	680
2784.06	714
2784.93	726
2785.8	748
2786.67	718
2787.53	702
2788.4	706
2789.27	698
2790.14	690
2791.01	682
2791.87	668
2792.74	706
2793.61	708
2794.47	680
2795.34	674
2796.21	704
2797.07	712
2797.94	668
2798.81	660
2799.67	678
2800.54	688
2801.41	662
2802.27	692
2803.14	672
2804	676
2804.87	660
2805.74	678
2806.6	674
2807.47	640
2808.33	648
2809.2	652
2810.06	658
2810.93	676
2811.79	662
2812.65	624
2813.52	656
2814.38	644
2815.25	654
2816.11	626
2816.98	644
2817.84	620
2818.7	606
2819.56	640
2820.43	608
2821.29	608
2822.16	650
2823.02	622
2823.88	626
2824.74	614
2825.61	628
2826.47	586
2827.33	596
2828.19	602
2829.05	616
2829.92	616
2830.78	580
2831.64	602
2832.5	604
2833.36	600
2834.23	574
2835.09	620
2835.95	572
2836.81	592
2837.67	574
2838.53	568
2839.39	580
2840.25	578
2841.11	556
2841.97	562
2842.83	544
2843.69	608
2844.55	574
2845.41	556
2846.27	582
2847.13	554
2847.99	564
2848.85	542
2849.71	580
2850.57	572
2851.43	542
2852.28	548
2853.14	556
2854	552
2854.86	520
2855.72	526
2856.58	546
2857.43	526
2858.29	538
2859.15	536
2860.01	512
2860.86	514
2861.72	548
2862.58	510
2863.44	538
2864.29	508
2865.15	528
2866.01	542
2866.86	522
2867.72	534
2868.58	510
2869.43	490
2870.29	526
2871.14	492
2872	506
2872.86	500
2873.71	507
2874.57	514
2875.42	514
2876.28	482
2877.13	506
2877.99	496
2878.84	492
2879.7	480
2880.55	476
2881.41	482
2882.26	492
2883.11	492
2883.97	490
2884.82	488
2885.68	458
2886.53	498
2887.39	470
2888.24	494
2889.09	504
2889.94	480
2890.8	502
2891.65	482
2892.5	490
2893.36	464
2894.21	474
2895.06	480
2895.91	460
2896.77	476
2897.62	482
2898.47	442
2899.32	448
2900.17	474
2901.03	448
2901.88	466
2902.73	448
2903.58	420
2904.43	438
2905.28	458
2906.13	452
2906.98	462
2907.84	434
2908.69	430
2909.54	438
2910.39	436
2911.24	442
2912.09	446
2912.94	456
2913.79	428
2914.64	430
2915.49	440
2916.34	442
2917.19	442
2918.03	440
2918.88	456
2919.73	438
2920.58	436
2921.43	432
2922.28	420
2923.13	418
2923.98	440
2924.82	426
2925.67	408
2926.52	446
2927.37	414
2928.22	400
2929.06	430
2929.91	408
2930.76	438
2931.61	434
2932.45	432
2933.3	412
2934.15	420
2934.99	390
2935.84	390
2936.69	408
2937.53	384
2938.38	422
2939.23	414
2940.07	390
2940.92	378
2941.76	412
2942.61	398
2943.46	398
2944.3	402
2945.15	386
2945.99	386
2946.84	380
2947.68	400
2948.53	396
2949.37	392
2950.22	370
2951.06	394
2951.9	376
2952.75	404
2953.59	376
2954.44	384
2955.28	392
2956.12	376
2956.97	376
2957.81	376
2958.65	388
2959.5	380
2960.34	380
2961.18	388
2962.03	360
2962.87	382
2963.71	358
2964.56	384
2965.4	380
2966.24	384
2967.08	364
2967.92	372
2968.77	356
2969.61	360
2970.45	362
2971.29	346
2972.13	342
2972.97	372
2973.82	364
2974.66	348
2975.5	340
2976.34	340
2977.18	362
2978.02	342
2978.86	360
2979.7	362
2980.54	354
2981.38	360
2982.22	368
2983.06	362
2983.9	342
2984.74	330
2985.58	354
2986.42	362
2987.26	332
2988.1	336
2988.94	338
2989.78	342
2990.61	348
2991.45	348
2992.29	354
2993.13	328
2993.97	346
2994.81	322
2995.64	334
2996.48	316
2997.32	346
2998.16	312
2999	338
2999.83	318
