#Acq. time (s)=	10
#Accumulations=	1
#Range (cm-¹)=	200...3000
#Windows=	3
#Autofocus=	Off
#AutoExposure=	Off
#Spike filter=	Off
#Delay time (s)=	0
#Binning=	1
#Readout mode=	Signal
#DeNoise=	Off
#ICS correction=	Off
#Dark correction=	Off
#Inst. Process=	Off
#Instrument=	LabRAM HR Evol
#Detector=	Syncerity OE
#Objective=	x100_VIS
#Grating=	600 (500nm)
#ND Filter=	0.1%
#Laser=	633nm_Edge
#Hole=	100.021
#Range=	Visible
#Project=	Omar
#Sample=	03-07-23
#Site=	papal
#Title=	leaf_100x
#Remark=	
#Date=	03.07.2023 17:21
#Acquired=	03.07.2023 17:21:16
201.713	118
202.98	112
204.247	112
205.513	122
206.778	124
208.045	142
209.311	112
210.576	118
211.84	124
213.106	118
214.371	124
215.636	120
216.899	118
218.164	132
219.428	132
220.692	126
221.955	130
223.219	150
224.482	130
225.744	122
227.007	134
228.27	140
229.531	130
230.794	154
232.055	120
233.317	136
234.579	136
235.839	128
237.1	162
238.362	150
239.621	152
240.882	144
242.141	140
243.402	146
244.661	136
245.921	154
247.179	154
248.439	168
249.698	140
250.956	136
252.215	144
253.473	164
254.731	160
255.988	156
257.246	160
258.503	154
259.761	164
261.017	142
262.273	166
263.53	158
264.786	158
266.042	172
267.298	150
268.554	174
269.809	168
271.063	168
272.319	164
273.573	174
274.828	168
276.082	160
277.336	174
278.591	182
279.844	170
281.097	162
282.351	178
283.603	174
284.855	172
286.109	166
287.361	180
288.613	180
289.866	170
291.117	200
292.368	190
293.62	188
294.871	192
296.121	176
297.372	198
298.623	204
299.873	206
301.123	220
302.372	214
303.622	184
304.872	196
306.121	196
307.37	198
308.618	198
309.866	210
311.116	182
312.364	214
313.611	198
314.859	202
316.106	190
317.353	206
318.6	214
319.848	212
321.095	202
322.341	218
323.587	214
324.833	224
326.079	220
327.324	216
328.569	206
329.814	240
331.059	230
332.304	246
333.548	216
334.792	216
336.037	228
337.28	240
338.524	236
339.767	222
341.011	228
342.254	244
343.497	224
344.739	232
345.982	250
347.224	254
348.466	236
349.708	242
350.95	250
352.191	248
353.432	258
354.673	252
355.914	240
357.155	260
358.394	250
359.634	272
360.874	246
362.114	264
363.354	266
364.593	256
365.832	280
367.07	266
368.309	276
369.548	260
370.786	256
372.024	278
373.261	276
374.499	286
375.736	278
376.974	274
378.211	288
379.447	286
380.684	272
381.92	290
383.157	272
384.392	288
385.628	278
386.864	276
388.098	274
389.333	304
390.569	284
391.802	298
393.037	296
394.272	284
395.505	300
396.739	300
397.973	298
399.206	298
400.44	332
401.673	282
402.905	288
404.138	336
405.37	324
406.602	308
407.835	332
409.066	306
410.298	318
411.528	318
412.76	322
413.99	328
415.221	338
416.451	328
417.682	348
418.911	344
420.142	334
421.371	350
422.601	342
423.83	344
425.059	334
426.288	348
427.517	366
428.745	352
429.974	354
431.201	366
432.43	382
433.657	350
434.883	388
436.111	372
437.338	400
438.565	380
439.791	360
441.017	370
442.244	384
443.469	390
444.695	370
445.921	382
447.146	388
448.37	394
449.596	394
450.821	392
452.045	394
453.27	418
454.493	368
455.717	372
456.94	394
458.165	398
459.387	394
460.61	380
461.833	392
463.056	406
464.278	414
465.5	428
466.722	398
467.945	422
469.166	444
470.387	442
471.608	410
472.829	424
474.049	460
475.271	432
476.491	434
477.711	412
478.931	418
480.15	444
481.37	450
482.589	454
483.808	446
485.027	430
486.247	450
487.465	438
488.683	450
489.901	446
491.119	478
492.337	476
493.554	484
494.771	466
495.988	462
497.205	486
498.422	474
499.638	508
500.854	494
502.07	488
503.286	502
504.502	488
505.717	482
506.933	496
508.148	494
509.363	478
510.577	492
511.792	528
513.005	500
514.219	514
515.433	506
516.647	502
517.86	524
519.073	488
520.287	488
521.5	506
522.711	512
523.924	534
525.136	540
526.348	544
527.56	560
528.772	536
529.982	542
531.194	524
532.405	540
533.616	544
534.825	544
536.036	534
537.246	534
538.457	530
539.665	554
540.875	538
542.085	566
543.294	582
544.502	564
545.712	560
546.92	536
548.128	540
549.336	572
550.545	570
551.751	572
552.959	598
554.167	568
555.373	594
556.581	602
557.788	584
558.994	572
560.2	586
561.406	596
562.612	606
563.817	590
565.023	616
566.229	594
567.433	582
568.639	630
569.843	620
571.048	610
572.251	646
573.456	630
574.659	646
575.863	664
577.066	620
578.27	656
579.472	630
580.676	646
581.878	678
583.081	654
584.283	644
585.484	662
586.687	654
587.888	656
589.09	644
590.291	656
591.493	674
592.693	714
593.893	656
595.094	692
596.294	710
597.494	686
598.694	694
599.894	700
601.093	712
602.293	716
603.491	688
604.69	742
605.889	752
607.087	754
608.285	750
609.483	740
610.682	766
611.879	780
613.076	740
614.273	770
615.471	758
616.667	758
617.864	778
619.06	768
620.256	788
621.453	776
622.648	776
623.844	780
625.039	818
626.234	808
627.429	834
628.625	818
629.819	828
631.013	838
632.208	848
633.401	842
634.595	844
635.789	844
636.982	834
638.175	924
639.369	898
640.562	896
641.755	880
642.947	864
644.139	884
645.331	888
646.523	946
647.715	936
648.906	880
650.097	958
651.288	946
652.479	948
653.67	946
654.86	910
656.051	940
657.241	960
658.429	942
659.619	958
660.808	976
661.998	936
663.187	958
664.376	974
665.565	1024
666.753	1024
667.942	1020
669.13	1026
670.317	1024
671.505	1004
672.692	996
673.88	1006
675.067	1028
676.254	1038
677.44	1046
678.627	1030
679.813	1052
681	1046
682.184	1074
683.37	1126
684.556	1078
685.742	1056
686.926	1074
688.111	1062
689.296	1060
690.481	1066
691.664	1102
692.849	1112
694.033	1102
695.216	1166
696.4	1124
697.584	1124
698.766	1144
699.949	1168
701.133	1138
702.314	1180
703.497	1202
704.678	1166
705.861	1170
707.043	1214
708.224	1234
709.406	1226
710.586	1214
711.768	1170
712.949	1246
714.129	1270
715.31	1212
716.489	1252
717.67	1298
718.849	1268
720.029	1278
721.208	1292
722.388	1314
723.566	1282
724.746	1308
725.924	1362
727.103	1344
728.28	1316
729.458	1322
730.636	1346
731.814	1340
732.992	1370
734.168	1374
735.345	1412
736.523	1414
737.699	1414
738.876	1416
740.052	1436
741.227	1426
742.404	1396
743.579	1420
744.754	1458
745.931	1432
747.105	1422
748.28	1474
749.455	1470
750.629	1520
751.803	1506
752.977	1486
754.152	1520
755.325	1504
756.499	1544
757.672	1574
758.846	1528
760.018	1536
761.191	1558
762.363	1584
763.535	1622
764.708	1578
765.88	1588
767.052	1636
768.223	1608
769.394	1632
770.565	1676
771.737	1618
772.908	1668
774.078	1700
775.249	1714
776.419	1684
777.589	1732
778.758	1744
779.928	1704
781.097	1712
782.266	1728
783.435	1730
784.604	1782
785.773	1744
786.941	1758
788.11	1814
789.278	1800
790.446	1814
791.613	1844
792.781	1816
793.948	1860
795.115	1824
796.282	1890
797.449	1860
798.616	1866
799.782	1892
800.948	1890
802.115	1936
803.28	1922
804.446	1944
805.612	1982
806.777	1958
807.941	1966
809.106	1980
810.271	1992
811.435	2040
812.6	2062
813.764	2002
814.927	2116
816.091	2012
817.254	2052
818.418	2112
819.581	2096
820.743	2134
821.906	2132
823.069	2138
824.232	2190
825.393	2214
826.555	2178
827.717	2180
828.879	2256
830.039	2260
831.201	2234
832.362	2326
833.522	2262
834.683	2278
835.844	2350
837.003	2288
838.164	2316
839.324	2322
840.483	2410
841.643	2392
842.801	2418
843.961	2454
845.12	2440
846.278	2476
847.437	2464
848.594	2460
849.753	2482
850.91	2558
852.069	2546
853.227	2500
854.383	2546
855.541	2538
856.697	2638
857.855	2512
859.011	2524
860.168	2672
861.323	2620
862.48	2742
863.635	2638
864.79	2714
865.946	2690
867.101	2642
868.257	2708
869.411	2736
870.567	2750
871.721	2718
872.874	2756
874.029	2750
875.183	2810
876.336	2808
877.49	2794
878.643	2774
879.796	2856
880.95	2890
882.102	2856
883.254	2866
884.407	2884
885.559	2950
886.711	3022
887.862	2914
889.015	2970
890.166	2966
891.317	2978
892.467	3010
893.619	3020
894.77	3028
895.92	3062
897.07	3094
898.221	3078
899.371	3168
900.52	3078
901.669	3140
902.819	3108
903.968	3170
905.116	3206
906.266	3182
907.415	3206
908.563	3208
909.711	3192
910.859	3252
912.007	3328
913.154	3306
914.301	3304
915.449	3312
916.596	3338
917.742	3350
918.889	3352
920.036	3488
921.183	3350
922.329	3540
923.475	3496
924.621	3412
925.765	3536
926.911	3512
928.056	3542
929.201	3482
930.346	3566
931.49	3596
932.635	3586
933.779	3580
934.924	3642
936.068	3678
937.211	3696
938.355	3766
939.498	3702
940.64	3736
941.784	3764
942.926	3766
944.069	3694
945.212	3842
946.354	3816
947.495	3864
948.637	3910
949.779	3986
950.921	3938
952.062	3928
953.202	3954
954.344	4084
955.484	4056
956.625	4040
957.765	4102
958.905	4072
960.045	4124
961.184	4164
962.324	4214
963.464	4238
964.604	4212
965.742	4240
966.881	4226
968.02	4204
969.158	4358
970.296	4332
971.434	4338
972.572	4282
973.71	4394
974.847	4490
975.985	4418
977.121	4440
978.259	4452
979.396	4524
980.532	4454
981.669	4530
982.804	4540
983.941	4516
985.076	4596
986.212	4652
987.347	4600
988.483	4562
989.617	4616
990.753	4674
991.887	4692
993.022	4716
994.156	4764
995.29	4804
996.424	4808
997.558	4838
998.692	4836
999.825	4896
1000.96	4868
1002.09	4942
1003.22	4970
1004.36	4998
1005.49	4970
1006.62	5000
1007.75	5048
1008.89	5020
1010.02	5088
1011.15	5120
1012.28	5136
1013.41	5256
1014.54	5096
1015.67	5182
1016.8	5158
1017.93	5220
1019.07	5276
1020.19	5328
1021.32	5424
1022.45	5372
1023.58	5360
1024.71	5456
1025.84	5512
1026.97	5452
1028.1	5478
1029.23	5458
1030.36	5516
1031.49	5594
1032.61	5576
1033.74	5604
1034.87	5644
1036	5768
1037.12	5802
1038.25	5794
1039.38	5872
1040.5	5848
1041.63	5876
1042.76	5838
1043.88	5870
1045.01	6004
1046.14	6012
1047.26	5968
1048.39	6060
1049.51	6022
1050.64	6164
1051.76	6102
1052.89	6198
1054.01	6184
1055.14	6168
1056.26	6156
1057.38	6244
1058.51	6248
1059.63	6376
1060.75	6332
1061.88	6416
1063	6500
1064.12	6402
1065.25	6460
1066.37	6504
1067.49	6554
1068.61	6610
1069.73	6534
1070.86	6572
1071.98	6576
1073.1	6588
1074.22	6554
1075.34	6640
1076.46	6680
1077.58	6698
1078.7	6806
1079.82	6788
1080.94	6730
1082.06	6816
1083.18	6834
1084.3	6742
1085.42	6910
1086.54	6908
1087.66	6848
1088.78	6910
1089.9	6906
1091.02	6954
1092.14	7002
1093.25	7034
1094.37	7086
1095.49	7050
1096.61	7074
1097.72	7062
1098.84	7096
1099.96	7134
1101.08	7232
1102.19	7238
1103.31	7048
1104.43	7098
1105.54	7182
1106.66	7304
1107.77	7320
1108.89	7340
1110	7368
1111.12	7336
1112.23	7250
1113.35	7436
1114.46	7450
1115.58	7468
1116.69	7472
1117.81	7408
1118.92	7516
1120.03	7506
1121.15	7464
1122.26	7504
1123.37	7618
1124.49	7618
1125.6	7646
1126.71	7630
1127.83	7676
1128.94	7716
1130.05	7754
1131.16	7842
1132.27	7758
1133.39	7774
1134.5	7844
1135.61	7926
1136.72	7934
1137.83	7878
1138.94	7956
1140.05	7948
1141.16	7968
1142.27	7942
1143.38	8058
1144.49	8206
1145.6	8278
1146.71	8284
1147.82	8210
1148.93	8142
1150.04	8160
1151.15	8104
1152.26	8128
1153.36	8140
1154.47	8128
1155.58	8328
1156.69	8284
1157.8	8238
1158.9	8450
1160.01	8466
1161.12	8352
1162.22	8398
1163.33	8376
1164.44	8392
1165.54	8474
1166.65	8340
1167.76	8408
1168.86	8464
1169.97	8468
1171.07	8448
1172.18	8478
1173.28	8484
1174.39	8524
1175.49	8604
1176.6	8624
1177.7	8508
1178.81	8618
1179.91	8386
1181.02	8652
1182.12	8524
1183.22	8508
1184.33	8622
1185.43	8506
1186.53	8558
1187.63	8510
1188.74	8548
1189.84	8516
1190.94	8630
1192.04	8614
1193.15	8516
1194.25	8468
1195.35	8452
1196.45	8474
1197.55	8578
1198.65	8560
1199.75	8426
1200.85	8482
1201.95	8498
1203.05	8400
1204.16	8520
1205.25	8406
1206.35	8456
1207.45	8456
1208.55	8422
1209.65	8382
1210.75	8376
1211.85	8484
1212.95	8378
1214.05	8410
1215.15	8410
1216.24	8322
1217.34	8378
1218.44	8320
1219.54	8222
1220.64	8316
1221.73	8372
1222.83	8250
1223.93	8352
1225.02	8220
1226.12	8390
1227.22	8302
1228.31	8248
1229.41	8336
1230.5	8148
1231.6	8222
1232.7	8288
1233.79	8216
1234.89	8078
1235.98	8198
1237.08	8250
1238.17	8072
1239.26	8230
1240.36	8144
1241.45	8042
1242.55	7988
1243.64	8004
1244.73	8054
1245.83	8126
1246.92	8022
1248.01	7978
1249.11	8074
1250.2	8108
1251.29	8026
1252.38	8002
1253.48	7990
1254.57	7988
1255.66	7892
1256.75	7864
1257.84	7918
1258.93	7908
1260.03	7878
1261.12	7906
1262.21	7834
1263.3	7874
1264.39	7824
1265.48	7880
1266.57	7796
1267.66	7722
1268.75	7694
1269.84	7744
1270.93	7676
1272.02	7684
1273.11	7716
1274.19	7702
1275.28	7640
1276.37	7674
1277.46	7602
1278.55	7480
1279.64	7646
1280.72	7468
1281.81	7598
1282.9	7558
1283.98	7463.89
1285.07	7438.53
1286.16	7508.28
1287.25	7384.06
1288.33	7401.04
1289.42	7437.87
1290.5	7339
1291.59	7303.55
1292.68	7320.32
1293.76	7242.68
1294.85	7166.93
1295.93	7168.68
1297.02	7132.38
1298.1	7090.06
1299.19	7019.69
1300.27	7123.27
1301.36	7026.26
1302.44	6991.78
1303.53	6973.22
1304.61	6907.36
1305.69	7004.58
1306.78	6839.68
1307.86	6889.05
1308.94	6791.87
1310.03	6867.3
1311.11	6767.59
1312.19	6728.23
1313.27	6754.29
1314.36	6647.75
1315.44	6647.93
1316.52	6588.14
1317.6	6612.7
1318.68	6499.4
1319.77	6571.88
1320.85	6535.28
1321.93	6501.99
1323.01	6470.52
1324.09	6428.03
1325.17	6408.03
1326.25	6440.1
1327.33	6305.2
1328.41	6323.34
1329.49	6280.98
1330.57	6240.33
1331.65	6138.04
1332.73	6222.66
1333.81	6193.51
1334.89	6106.79
1335.97	6110.64
1337.04	6063.28
1338.12	6014.06
1339.2	6028.68
1340.28	5972.88
1341.36	6002.56
1342.44	5936.23
1343.51	5972.62
1344.59	5880.91
1345.67	5861.23
1346.75	5850.11
1347.82	5837.74
1348.9	5751.83
1349.98	5755.56
1351.05	5680.2
1352.13	5723.13
1353.2	5706.97
1354.28	5665.39
1355.36	5671.62
1356.43	5606.45
1357.51	5588.8
1358.58	5563.64
1359.66	5586.48
1360.73	5473.75
1361.81	5458.91
1362.88	5471.38
1363.96	5373.45
1365.03	5390.55
1366.1	5401.62
1367.18	5421.85
1368.25	5338.52
1369.33	5307.47
1370.4	5310.15
1371.47	5260.98
1372.54	5209.95
1373.62	5227.2
1374.69	5181.02
1375.76	5146.77
1376.83	5120.28
1377.91	5140.79
1378.98	5113.12
1380.05	5067.62
1381.12	5145.7
1382.19	5064.87
1383.26	5065.88
1384.34	5029.71
1385.41	5044.14
1386.48	5010.54
1387.55	4959.06
1388.62	4919.69
1389.69	4859.48
1390.76	4878.83
1391.83	4883.76
1392.9	4830.37
1393.02	4822
1394.1	4828
1395.17	4820
1396.25	4660
1397.32	4796
1398.4	4756
1399.47	4820
1400.55	4758
1401.62	4726
1402.69	4742
1403.77	4698
1404.84	4680
1405.91	4616
1406.99	4658
1408.06	4638
1409.13	4668
1410.2	4610
1411.27	4522
1412.35	4534
1413.42	4546
1414.49	4494
1415.56	4508
1416.63	4560
1417.7	4472
1418.78	4446
1419.85	4452
1420.92	4402
1421.99	4388
1423.06	4364
1424.13	4436
1425.2	4362
1426.27	4348
1427.34	4398
1428.41	4360
1429.48	4290
1430.55	4324
1431.61	4228
1432.68	4282
1433.75	4252
1434.82	4256
1435.89	4232
1436.96	4180
1438.02	4196
1439.09	4214
1440.16	4236
1441.23	4124
1442.3	4182
1443.36	4150
1444.43	4134
1445.5	4164
1446.56	4150
1447.63	4102
1448.7	4054
1449.76	4030
1450.83	4060
1451.89	3994
1452.96	4012
1454.02	4022
1455.09	4012
1456.15	4048
1457.22	3872
1458.28	3888
1459.35	4002
1460.41	4006
1461.48	3940
1462.54	3936
1463.61	3902
1464.67	3946
1465.73	3902
1466.8	3906
1467.86	3874
1468.92	3906
1469.98	3830
1471.05	3926
1472.11	3868
1473.17	3810
1474.24	3886
1475.3	3870
1476.36	3900
1477.42	3808
1478.48	3844
1479.54	3768
1480.6	3748
1481.67	3750
1482.73	3790
1483.79	3736
1484.85	3724
1485.91	3740
1486.97	3730
1488.03	3680
1489.09	3656
1490.15	3694
1491.21	3728
1492.27	3708
1493.33	3662
1494.38	3630
1495.44	3650
1496.5	3606
1497.56	3622
1498.62	3654
1499.68	3566
1500.74	3610
1501.79	3564
1502.85	3566
1503.91	3562
1504.97	3534
1506.02	3518
1507.08	3496
1508.14	3510
1509.2	3544
1510.25	3512
1511.31	3526
1512.36	3478
1513.42	3456
1514.48	3456
1515.53	3524
1516.59	3408
1517.64	3390
1518.7	3392
1519.75	3388
1520.81	3392
1521.86	3374
1522.92	3404
1523.97	3380
1525.02	3344
1526.08	3394
1527.13	3374
1528.19	3366
1529.24	3374
1530.29	3318
1531.35	3372
1532.4	3310
1533.45	3306
1534.51	3292
1535.56	3274
1536.61	3306
1537.66	3282
1538.72	3266
1539.77	3184
1540.82	3270
1541.87	3182
1542.92	3208
1543.97	3178
1545.02	3220
1546.08	3242
1547.13	3194
1548.18	3180
1549.23	3192
1550.28	3132
1551.33	3110
1552.38	3078
1553.43	3148
1554.48	3112
1555.53	3134
1556.57	3042
1557.62	3122
1558.67	3122
1559.72	3142
1560.77	3120
1561.82	3042
1562.87	3126
1563.92	3084
1564.96	3082
1566.01	3104
1567.06	3070
1568.11	3036
1569.15	3094
1570.2	3042
1571.25	3014
1572.29	2994
1573.34	3024
1574.39	3044
1575.43	3016
1576.48	3006
1577.53	3024
1578.57	3050
1579.62	3024
1580.66	2978
1581.71	3022
1582.75	2998
1583.8	2924
1584.84	3030
1585.89	2928
1586.93	2996
1587.98	2982
1589.02	2978
1590.06	2912
1591.11	2858
1592.15	2942
1593.2	2950
1594.24	2906
1595.28	2904
1596.33	2916
1597.37	2928
1598.41	2828
1599.45	2886
1600.5	2932
1601.54	2918
1602.58	2864
1603.62	2932
1604.66	2856
1605.7	2878
1606.75	2834
1607.79	2882
1608.83	2870
1609.87	2872
1610.91	2872
1611.95	2844
1612.99	2782
1614.03	2870
1615.07	2828
1616.11	2854
1617.15	2820
1618.19	2848
1619.23	2854
1620.27	2892
1621.31	2836
1622.35	2812
1623.39	2868
1624.43	2832
1625.46	2826
1626.5	2726
1627.54	2832
1628.58	2782
1629.62	2756
1630.65	2786
1631.69	2804
1632.73	2706
1633.77	2744
1634.8	2798
1635.84	2784
1636.88	2684
1637.91	2796
1638.95	2800
1639.99	2768
1641.02	2772
1642.06	2706
1643.09	2742
1644.13	2756
1645.16	2760
1646.2	2756
1647.23	2712
1648.27	2678
1649.3	2730
1650.34	2716
1651.37	2668
1652.41	2702
1653.44	2794
1654.47	2660
1655.51	2740
1656.54	2724
1657.57	2664
1658.61	2718
1659.64	2756
1660.67	2650
1661.71	2734
1662.74	2718
1663.77	2636
1664.81	2688
1665.84	2604
1666.87	2582
1667.9	2620
1668.93	2616
1669.96	2608
1671	2662
1672.03	2622
1673.06	2564
1674.09	2578
1675.12	2640
1676.15	2626
1677.18	2612
1678.21	2678
1679.24	2566
1680.27	2592
1681.3	2586
1682.33	2554
1683.36	2536
1684.39	2604
1685.42	2564
1686.45	2564
1687.47	2618
1688.5	2610
1689.53	2530
1690.56	2506
1691.59	2556
1692.62	2592
1693.64	2582
1694.67	2552
1695.7	2498
1696.73	2590
1697.75	2548
1698.78	2556
1699.81	2504
1700.83	2580
1701.86	2524
1702.89	2570
1703.91	2558
1704.94	2456
1705.97	2514
1706.99	2506
1708.02	2510
1709.04	2532
1710.07	2486
1711.09	2480
1712.12	2458
1713.14	2474
1714.17	2516
1715.19	2554
1716.22	2458
1717.24	2536
1718.26	2530
1719.29	2418
1720.31	2498
1721.33	2488
1722.36	2488
1723.38	2484
1724.4	2460
1725.43	2502
1726.45	2464
1727.47	2498
1728.49	2478
1729.52	2384
1730.54	2506
1731.56	2468
1732.58	2474
1733.6	2464
1734.63	2456
1735.65	2446
1736.67	2422
1737.69	2504
1738.71	2444
1739.73	2412
1740.75	2482
1741.77	2508
1742.79	2494
1743.81	2420
1744.83	2414
1745.85	2446
1746.87	2414
1747.89	2424
1748.91	2458
1749.93	2424
1750.95	2416
1751.97	2418
1752.98	2364
1754	2496
1755.02	2398
1756.04	2462
1757.06	2396
1758.07	2496
1759.09	2434
1760.11	2470
1761.13	2454
1762.14	2476
1763.16	2460
1764.18	2460
1765.19	2384
1766.21	2410
1767.23	2420
1768.24	2418
1769.26	2430
1770.28	2360
1771.29	2430
1772.31	2438
1773.32	2400
1774.34	2448
1775.35	2440
1776.37	2400
1777.38	2398
1778.4	2400
1779.41	2380
1780.43	2438
1781.44	2388
1782.45	2352
1783.47	2408
1784.48	2422
1785.49	2376
1786.51	2412
1787.52	2390
1788.53	2380
1789.55	2374
1790.56	2358
1791.57	2378
1792.58	2468
1793.6	2344
1794.61	2452
1795.62	2392
1796.63	2350
1797.64	2422
1798.66	2432
1799.67	2430
1800.68	2382
1801.69	2322
1802.7	2392
1803.71	2428
1804.72	2396
1805.73	2414
1806.74	2314
1807.75	2400
1808.76	2390
1809.77	2376
1810.78	2426
1811.79	2366
1812.8	2350
1813.81	2380
1814.82	2334
1815.83	2372
1816.84	2382
1817.84	2358
1818.85	2356
1819.86	2314
1820.87	2378
1821.88	2332
1822.88	2334
1823.89	2358
1824.9	2356
1825.91	2334
1826.91	2374
1827.92	2318
1828.93	2364
1829.93	2366
1830.94	2338
1831.95	2354
1832.95	2340
1833.96	2382
1834.97	2388
1835.97	2310
1836.98	2396
1837.98	2338
1838.99	2322
1839.99	2398
1841	2270
1842	2306
1843.01	2326
1844.01	2274
1845.02	2308
1846.02	2314
1847.02	2332
1848.03	2340
1849.03	2336
1850.03	2366
1851.04	2268
1852.04	2338
1853.04	2316
1854.05	2306
1855.05	2302
1856.05	2284
1857.05	2288
1858.06	2292
1859.06	2332
1860.06	2276
1861.06	2318
1862.06	2258
1863.07	2256
1864.07	2334
1865.07	2312
1866.07	2300
1867.07	2274
1868.07	2260
1869.07	2330
1870.07	2290
1871.07	2272
1872.07	2304
1873.07	2316
1874.07	2288
1875.07	2316
1876.07	2306
1877.07	2306
1878.07	2340
1879.07	2310
1880.07	2340
1881.07	2342
1882.07	2236
1883.06	2288
1884.06	2264
1885.06	2264
1886.06	2238
1887.06	2308
1888.05	2290
1889.05	2264
1890.05	2262
1891.05	2304
1892.04	2296
1893.04	2284
1894.04	2310
1895.03	2268
1896.03	2214
1897.03	2262
1898.02	2298
1899.02	2272
1900.01	2300
1901.01	2266
1902	2236
1903	2238
1903.99	2318
1904.99	2308
1905.98	2292
1906.98	2268
1907.97	2262
1908.97	2298
1909.96	2320
1910.96	2302
1911.95	2308
1912.94	2310
1913.94	2240
1914.93	2256
1915.93	2278
1916.92	2282
1917.91	2284
1918.9	2246
1919.9	2324
1920.89	2252
1921.88	2252
1922.87	2282
1923.87	2326
1924.86	2274
1925.85	2254
1926.84	2236
1927.83	2226
1928.82	2216
1929.82	2206
1930.81	2224
1931.8	2194
1932.79	2282
1933.78	2282
1934.77	2288
1935.76	2278
1936.75	2244
1937.74	2332
1938.73	2210
1939.72	2270
1940.71	2232
1941.7	2272
1942.69	2230
1943.68	2244
1944.67	2270
1945.65	2202
1946.64	2242
1947.63	2264
1948.62	2204
1949.61	2242
1950.6	2274
1951.58	2218
1952.57	2208
1953.56	2234
1954.55	2256
1955.53	2256
1956.52	2232
1957.51	2152
1958.5	2230
1959.48	2212
1960.47	2214
1961.45	2182
1962.44	2162
1963.43	2200
1964.41	2226
1965.4	2254
1966.38	2200
1967.37	2268
1968.35	2218
1969.34	2172
1970.32	2190
1971.31	2220
1972.29	2172
1973.28	2190
1974.26	2162
1975.25	2230
1976.23	2206
1977.22	2146
1978.2	2156
1979.18	2184
1980.17	2202
1981.15	2224
1982.13	2236
1983.12	2218
1984.1	2182
1985.08	2230
1986.06	2234
1987.05	2176
1988.03	2154
1989.01	2174
1989.99	2156
1990.97	2168
1991.96	2258
1992.94	2242
1993.92	2216
1994.9	2218
1995.88	2142
1996.86	2120
1997.84	2200
1998.82	2132
1999.8	2184
2000.78	2178
2001.76	2182
2002.74	2156
2003.72	2166
2004.7	2178
2005.68	2154
2006.66	2160
2007.64	2156
2008.62	2136
2009.6	2140
2010.58	2136
2011.56	2154
2012.54	2186
2013.51	2128
2014.49	2182
2015.47	2136
2016.45	2120
2017.43	2200
2018.4	2138
2019.38	2204
2020.36	2164
2021.34	2144
2022.31	2164
2023.29	2182
2024.27	2138
2025.24	2138
2026.22	2158
2027.2	2152
2028.17	2150
2029.15	2148
2030.12	2182
2031.1	2154
2032.07	2100
2033.05	2168
2034.03	2136
2035	2156
2035.98	2146
2036.95	2100
2037.93	2158
2038.9	2124
2039.87	2138
2040.85	2146
2041.82	2126
2042.8	2120
2043.77	2102
2044.74	2136
2045.72	2140
2046.69	2102
2047.66	2108
2048.64	2112
2049.61	2134
2050.58	2084
2051.55	2104
2052.53	2138
2053.5	2186
2054.47	2144
2055.44	2072
2056.41	2122
2057.39	2122
2058.36	2080
2059.33	2052
2060.3	2154
2061.27	2124
2062.24	2128
2063.21	2084
2064.18	2118
2065.15	2126
2066.12	2148
2067.09	2110
2068.06	2096
2069.03	2152
2070	2102
2070.97	2138
2071.94	2118
2072.91	2116
2073.88	2098
2074.85	2106
2075.82	2070
2076.79	2054
2077.76	2102
2078.73	2044
2079.69	2114
2080.66	2102
2081.63	2050
2082.6	2044
2083.56	2078
2084.53	2118
2085.5	2092
2086.47	2032
2087.43	2068
2088.4	2022
2089.37	2100
2090.33	2108
2091.3	2096
2092.27	2068
2093.23	2062
2094.2	2074
2095.17	2128
2096.13	2034
2097.1	2040
2098.06	2138
2099.03	2064
2099.99	2104
2100.96	2090
2101.92	2052
2102.89	2134
2103.85	2034
2104.82	2060
2105.78	2054
2106.74	2056
2107.71	2084
2108.67	2106
2109.64	2078
2110.6	2058
2111.56	2044
2112.53	2110
2113.49	2094
2114.45	2100
2115.41	2032
2116.38	2074
2117.34	2088
2118.3	2058
2119.26	2068
2120.23	2078
2121.19	2056
2122.15	2078
2123.11	2050
2124.07	2020
2125.03	2030
2126	2048
2126.96	2104
2127.92	2066
2128.88	2006
2129.84	2094
2130.8	2040
2131.76	2090
2132.72	2016
2133.68	2060
2134.64	2076
2135.6	2002
2136.56	2072
2137.52	2018
2138.48	1966
2139.44	1978
2140.4	2052
2141.35	1980
2142.31	2020
2143.27	2014
2144.23	2048
2145.19	2062
2146.15	2022
2147.1	2010
2148.06	2084
2149.02	2004
2149.98	2016
2150.94	2016
2151.89	2062
2152.85	2016
2153.81	2028
2154.76	2010
2155.72	2016
2156.68	1990
2157.63	2022
2158.59	1930
2159.55	2076
2160.5	2028
2161.46	1996
2162.41	1978
2163.37	2000
2164.32	2056
2165.28	2020
2166.23	2010
2167.19	2016
2168.14	1972
2169.1	1962
2170.05	1990
2171.01	1930
2171.96	2000
2172.91	1982
2173.87	2032
2174.82	2040
2175.78	2008
2176.73	1932
2177.68	1972
2178.64	1938
2179.59	1998
2180.54	1950
2181.49	1946
2182.45	1990
2183.4	1974
2184.35	1980
2185.3	2042
2186.26	1958
2187.21	1954
2188.16	2000
2189.11	1952
2190.06	1948
2191.01	1962
2191.96	1964
2192.92	2002
2193.87	1926
2194.82	1976
2195.77	1938
2196.72	1950
2197.67	1910
2198.62	1910
2199.57	1940
2200.52	1852
2201.47	1904
2202.42	1964
2203.37	1900
2204.32	1912
2205.27	2010
2206.22	1954
2207.16	1936
2208.11	1932
2209.06	1904
2210.01	1886
2210.96	1904
2211.91	1958
2212.85	1890
2213.8	1886
2214.75	1892
2215.7	1882
2216.64	1926
2217.59	1926
2218.54	1914
2219.49	1928
2220.43	1906
2221.38	1902
2222.33	1944
2223.27	1873.73
2224.22	1872.76
2225.16	1890.19
2226.11	1918.05
2227.06	1841.42
2228	1916.37
2228.95	1873.57
2229.89	1908.78
2230.84	1917.67
2231.78	1866.59
2232.73	1922.51
2233.67	1880.27
2234.62	1842
2235.56	1879.7
2236.51	1884.61
2237.45	1850.82
2238.4	1909.97
2239.34	1925.04
2240.28	1845.06
2241.23	1900.77
2242.17	1827.03
2243.11	1856.85
2244.06	1830.29
2245	1852.65
2245.94	1879.9
2246.89	1893.76
2247.83	1857.6
2248.77	1841.31
2249.71	1875.42
2250.66	1831.41
2251.6	1845
2252.54	1829.74
2253.48	1841.47
2254.42	1860.07
2255.37	1804.38
2256.31	1789.19
2257.25	1832.77
2258.19	1844.32
2259.13	1819.88
2260.07	1798.68
2261.01	1803.12
2261.95	1849.37
2262.89	1842.69
2263.83	1820.35
2264.77	1832.46
2265.71	1804.42
2266.65	1830.62
2267.59	1816.02
2268.53	1819.74
2269.47	1808.77
2270.41	1772.71
2271.35	1756.68
2272.29	1781.7
2273.23	1795.36
2274.17	1785.94
2275.1	1785.33
2276.04	1777.23
2276.98	1768.04
2277.92	1789.02
2278.86	1792.76
2279.8	1790.25
2280.73	1771.47
2281.67	1775.85
2282.61	1757.49
2283.55	1789.67
2284.48	1745.12
2285.42	1755.42
2286.36	1729.59
2287.29	1742.68
2288.23	1748.47
2289.17	1766.08
2290.1	1763.34
2291.04	1743.05
2291.98	1736.99
2292.91	1759.3
2293.85	1753.84
2294.78	1735.17
2295.72	1759.8
2296.65	1755.63
2297.59	1746.2
2298.52	1727.14
2299.46	1723.76
2300.39	1721.9
2301.33	1739.29
2302.26	1725.59
2303.2	1713.62
2304.13	1705.82
2305.06	1708.5
2306	1699.61
2306.93	1718.82
2307.87	1724.66
2308.8	1710.16
2309.73	1709.18
2310.67	1677.84
2311.6	1677.5
2312.53	1694.79
2313.46	1683.83
2314.4	1654.78
2315.33	1649.98
2316.26	1680.46
2316.69	1700
2317.62	1654
2318.56	1670
2319.5	1642
2320.43	1624
2321.37	1672
2322.31	1658
2323.24	1674
2324.18	1638
2325.12	1658
2326.05	1690
2326.99	1622
2327.92	1640
2328.86	1674
2329.79	1580
2330.73	1590
2331.66	1646
2332.6	1624
2333.53	1604
2334.47	1678
2335.4	1618
2336.34	1626
2337.27	1628
2338.2	1634
2339.14	1620
2340.07	1602
2341.01	1588
2341.94	1672
2342.87	1658
2343.81	1634
2344.74	1612
2345.67	1620
2346.6	1612
2347.54	1606
2348.47	1642
2349.4	1594
2350.33	1604
2351.27	1568
2352.2	1626
2353.13	1628
2354.06	1596
2354.99	1578
2355.93	1604
2356.86	1532
2357.79	1586
2358.72	1604
2359.65	1588
2360.58	1560
2361.51	1528
2362.44	1540
2363.37	1562
2364.3	1590
2365.23	1584
2366.16	1564
2367.09	1540
2368.02	1564
2368.95	1570
2369.88	1600
2370.81	1510
2371.74	1490
2372.67	1522
2373.6	1528
2374.52	1512
2375.45	1556
2376.38	1544
2377.31	1502
2378.24	1518
2379.17	1538
2380.09	1500
2381.02	1482
2381.95	1476
2382.88	1494
2383.8	1528
2384.73	1522
2385.66	1534
2386.58	1500
2387.51	1534
2388.44	1522
2389.36	1550
2390.29	1516
2391.22	1462
2392.14	1502
2393.07	1486
2393.99	1464
2394.92	1528
2395.85	1504
2396.77	1466
2397.7	1506
2398.62	1492
2399.55	1430
2400.47	1448
2401.4	1422
2402.32	1420
2403.25	1460
2404.17	1474
2405.09	1480
2406.02	1472
2406.94	1428
2407.86	1398
2408.79	1390
2409.71	1466
2410.63	1418
2411.56	1394
2412.48	1458
2413.4	1406
2414.33	1402
2415.25	1394
2416.17	1368
2417.09	1406
2418.02	1396
2418.94	1390
2419.86	1434
2420.78	1402
2421.7	1428
2422.63	1388
2423.55	1366
2424.47	1362
2425.39	1388
2426.31	1348
2427.23	1400
2428.15	1368
2429.07	1374
2429.99	1388
2430.91	1360
2431.83	1372
2432.75	1356
2433.67	1354
2434.59	1382
2435.51	1374
2436.43	1374
2437.35	1366
2438.27	1312
2439.19	1378
2440.11	1370
2441.03	1326
2441.95	1330
2442.86	1336
2443.78	1316
2444.7	1376
2445.62	1340
2446.54	1330
2447.46	1316
2448.37	1328
2449.29	1270
2450.21	1312
2451.13	1326
2452.04	1288
2452.96	1360
2453.88	1290
2454.79	1322
2455.71	1364
2456.63	1306
2457.54	1272
2458.46	1298
2459.38	1266
2460.29	1264
2461.21	1286
2462.12	1244
2463.04	1278
2463.95	1328
2464.87	1276
2465.78	1320
2466.7	1296
2467.61	1242
2468.53	1226
2469.44	1266
2470.36	1306
2471.27	1244
2472.19	1282
2473.1	1256
2474.01	1264
2474.93	1264
2475.84	1202
2476.76	1214
2477.67	1218
2478.58	1234
2479.5	1242
2480.41	1204
2481.32	1190
2482.23	1226
2483.15	1182
2484.06	1196
2484.97	1174
2485.88	1192
2486.8	1218
2487.71	1220
2488.62	1184
2489.53	1190
2490.44	1184
2491.35	1200
2492.26	1184
2493.18	1158
2494.09	1192
2495	1168
2495.91	1174
2496.82	1176
2497.73	1154
2498.64	1188
2499.55	1144
2500.46	1156
2501.37	1118
2502.28	1136
2503.19	1102
2504.1	1172
2505.01	1118
2505.92	1138
2506.83	1144
2507.74	1138
2508.65	1128
2509.55	1158
2510.46	1114
2511.37	1128
2512.28	1178
2513.19	1120
2514.09	1136
2515	1122
2515.91	1116
2516.82	1134
2517.73	1070
2518.63	1068
2519.54	1116
2520.45	1136
2521.35	1072
2522.26	1094
2523.17	1090
2524.07	1082
2524.98	1090
2525.89	1068
2526.79	1056
2527.7	1100
2528.6	1094
2529.51	1088
2530.42	1064
2531.32	1064
2532.23	1078
2533.13	1046
2534.04	1052
2534.94	1054
2535.85	1080
2536.75	1054
2537.66	1028
2538.56	1070
2539.47	1020
2540.37	1032
2541.27	1044
2542.18	1056
2543.08	1020
2543.98	1006
2544.89	1016
2545.79	1016
2546.7	1012
2547.6	1048
2548.5	1042
2549.4	986
2550.31	1010
2551.21	992
2552.11	1000
2553.01	1002
2553.92	956
2554.82	970
2555.72	1006
2556.62	1008
2557.52	994
2558.42	978
2559.33	996
2560.23	964
2561.13	1002
2562.03	980
2562.93	980
2563.83	970
2564.73	964
2565.63	982
2566.53	966
2567.43	996
2568.33	990
2569.23	982
2570.13	976
2571.03	876
2571.93	934
2572.83	930
2573.73	942
2574.63	920
2575.53	962
2576.43	948
2577.33	940
2578.22	972
2579.12	920
2580.02	934
2580.92	888
2581.82	938
2582.72	892
2583.61	938
2584.51	940
2585.41	902
2586.31	948
2587.2	892
2588.1	896
2589	912
2589.89	894
2590.79	930
2591.69	866
2592.58	900
2593.48	892
2594.38	874
2595.27	886
2596.17	880
2597.06	882
2597.96	874
2598.86	848
2599.75	868
2600.65	900
2601.54	860
2602.44	898
2603.33	886
2604.23	890
2605.12	838
2606.02	884
2606.91	854
2607.81	910
2608.7	864
2609.59	864
2610.49	818
2611.38	830
2612.27	834
2613.17	874
2614.06	824
2614.95	840
2615.85	828
2616.74	862
2617.63	826
2618.53	832
2619.42	798
2620.31	820
2621.2	814
2622.1	852
2622.99	812
2623.88	844
2624.77	778
2625.66	796
2626.55	814
2627.45	826
2628.34	780
2629.23	820
2630.12	802
2631.01	810
2631.9	826
2632.79	790
2633.68	800
2634.57	776
2635.46	778
2636.35	768
2637.24	776
2638.13	806
2639.02	798
2639.91	790
2640.8	748
2641.69	778
2642.58	766
2643.47	760
2644.36	766
2645.25	774
2646.14	780
2647.02	774
2647.91	738
2648.8	750
2649.69	728
2650.58	724
2651.46	754
2652.35	734
2653.24	738
2654.13	754
2655.01	732
2655.9	764
2656.79	794
2657.68	736
2658.56	716
2659.45	758
2660.34	750
2661.22	726
2662.11	756
2662.99	722
2663.88	734
2664.77	716
2665.65	732
2666.54	692
2667.42	746
2668.31	724
2669.2	712
2670.08	698
2670.96	692
2671.85	710
2672.73	716
2673.62	728
2674.5	734
2675.39	698
2676.27	694
2677.16	716
2678.04	698
2678.93	694
2679.81	702
2680.69	684
2681.58	706
2682.46	684
2683.34	710
2684.23	712
2685.11	666
2685.99	698
2686.87	672
2687.76	662
2688.64	674
2689.52	668
2690.4	666
2691.28	674
2692.17	674
2693.05	660
2693.93	676
2694.81	630
2695.69	674
2696.57	672
2697.46	656
2698.34	660
2699.22	644
2700.1	654
2700.98	662
2701.86	672
2702.74	654
2703.62	660
2704.5	642
2705.38	646
2706.26	646
2707.14	626
2708.02	652
2708.9	628
2709.78	626
2710.66	668
2711.54	596
2712.42	622
2713.3	636
2714.17	618
2715.05	626
2715.93	616
2716.81	646
2717.69	614
2718.57	608
2719.44	606
2720.32	580
2721.2	592
2722.08	584
2722.95	620
2723.83	596
2724.71	584
2725.59	606
2726.46	584
2727.34	580
2728.22	592
2729.09	574
2729.97	610
2730.85	574
2731.72	582
2732.6	572
2733.47	606
2734.35	590
2735.23	550
2736.1	586
2736.98	584
2737.85	570
2738.73	586
2739.6	568
2740.48	566
2741.35	548
2742.23	566
2743.1	582
2743.98	536
2744.85	580
2745.72	550
2746.6	528
2747.47	530
2748.35	578
2749.22	534
2750.09	542
2750.97	564
2751.84	540
2752.71	556
2753.59	530
2754.46	516
2755.33	538
2756.2	540
2757.08	554
2757.95	508
2758.82	552
2759.69	524
2760.57	530
2761.44	534
2762.31	514
2763.18	516
2764.05	520
2764.92	514
2765.79	496
2766.67	524
2767.54	500
2768.41	506
2769.28	512
2770.15	524
2771.02	504
2771.89	512
2772.76	466
2773.63	500
2774.5	502
2775.37	506
2776.24	504
2777.11	472
2777.98	478
2778.85	502
2779.72	484
2780.59	486
2781.46	500
2782.32	456
2783.19	506
2784.06	464
2784.93	468
2785.8	470
2786.67	486
2787.53	486
2788.4	476
2789.27	474
2790.14	490
2791.01	474
2791.87	440
2792.74	470
2793.61	488
2794.47	480
2795.34	478
2796.21	466
2797.07	460
2797.94	440
2798.81	456
2799.67	472
2800.54	450
2801.41	444
2802.27	438
2803.14	448
2804	448
2804.87	428
2805.74	472
2806.6	480
2807.47	448
2808.33	448
2809.2	472
2810.06	432
2810.93	444
2811.79	444
2812.65	470
2813.52	438
2814.38	458
2815.25	436
2816.11	436
2816.98	454
2817.84	412
2818.7	424
2819.56	430
2820.43	416
2821.29	430
2822.16	410
2823.02	400
2823.88	414
2824.74	414
2825.61	404
2826.47	422
2827.33	402
2828.19	426
2829.05	396
2829.92	366
2830.78	422
2831.64	420
2832.5	390
2833.36	402
2834.23	396
2835.09	392
2835.95	410
2836.81	422
2837.67	398
2838.53	384
2839.39	386
2840.25	378
2841.11	384
2841.97	394
2842.83	396
2843.69	372
2844.55	396
2845.41	390
2846.27	392
2847.13	382
2847.99	398
2848.85	374
2849.71	374
2850.57	372
2851.43	398
2852.28	382
2853.14	346
2854	370
2854.86	380
2855.72	380
2856.58	366
2857.43	364
2858.29	358
2859.15	378
2860.01	374
2860.86	364
2861.72	362
2862.58	338
2863.44	370
2864.29	370
2865.15	352
2866.01	352
2866.86	368
2867.72	330
2868.58	358
2869.43	340
2870.29	336
2871.14	362
2872	358
2872.86	352
2873.71	343
2874.57	334
2875.42	350
2876.28	356
2877.13	334
2877.99	352
2878.84	356
2879.7	336
2880.55	324
2881.41	350
2882.26	334
2883.11	336
2883.97	328
2884.82	316
2885.68	320
2886.53	348
2887.39	316
2888.24	338
2889.09	318
2889.94	336
2890.8	320
2891.65	338
2892.5	332
2893.36	324
2894.21	314
2895.06	302
2895.91	332
2896.77	314
2897.62	312
2898.47	328
2899.32	302
2900.17	332
2901.03	312
2901.88	308
2902.73	312
2903.58	326
2904.43	338
2905.28	314
2906.13	302
2906.98	320
2907.84	316
2908.69	330
2909.54	302
2910.39	296
2911.24	302
2912.09	316
2912.94	298
2913.79	300
2914.64	334
2915.49	286
2916.34	294
2917.19	322
2918.03	304
2918.88	294
2919.73	294
2920.58	308
2921.43	298
2922.28	296
2923.13	304
2923.98	298
2924.82	280
2925.67	290
2926.52	290
2927.37	282
2928.22	296
2929.06	284
2929.91	296
2930.76	280
2931.61	298
2932.45	278
2933.3	272
2934.15	276
2934.99	286
2935.84	268
2936.69	284
2937.53	286
2938.38	276
2939.23	274
2940.07	284
2940.92	296
2941.76	272
2942.61	266
2943.46	284
2944.3	278
2945.15	274
2945.99	276
2946.84	290
2947.68	296
2948.53	272
2949.37	264
2950.22	284
2951.06	262
2951.9	276
2952.75	278
2953.59	256
2954.44	266
2955.28	270
2956.12	262
2956.97	258
2957.81	274
2958.65	258
2959.5	244
2960.34	260
2961.18	260
2962.03	234
2962.87	250
2963.71	248
2964.56	260
2965.4	258
2966.24	254
2967.08	256
2967.92	272
2968.77	242
2969.61	260
2970.45	264
2971.29	254
2972.13	246
2972.97	248
2973.82	242
2974.66	254
2975.5	258
2976.34	226
2977.18	238
2978.02	246
2978.86	236
2979.7	248
2980.54	242
2981.38	244
2982.22	254
2983.06	242
2983.9	236
2984.74	242
2985.58	254
2986.42	250
2987.26	232
2988.1	250
2988.94	236
2989.78	228
2990.61	222
2991.45	228
2992.29	244
2993.13	232
2993.97	246
2994.81	260
2995.64	230
2996.48	228
2997.32	224
2998.16	218
2999	218
2999.83	242
