#Acq. time (s)=	10
#Accumulations=	1
#Range (cm-¹)=	200...3000
#Windows=	3
#Autofocus=	Off
#AutoExposure=	Off
#Spike filter=	Off
#Delay time (s)=	0
#Binning=	1
#Readout mode=	Signal
#DeNoise=	Off
#ICS correction=	Off
#Dark correction=	Off
#Inst. Process=	Off
#Instrument=	LabRAM HR Evol
#Detector=	Syncerity OE
#Objective=	x100_VIS
#Grating=	600 (500nm)
#ND Filter=	0.1%
#Laser=	633nm_Edge
#Hole=	100.021
#Range=	Visible
#Project=	Omar
#Sample=	03-07-23
#Site=	papal
#Title=	leaf_100x
#Remark=	
#Date=	03.07.2023 17:17
#Acquired=	03.07.2023 17:17:13
201.713	162
202.98	148
204.247	164
205.513	176
206.778	178
208.045	168
209.311	168
210.576	172
211.84	176
213.106	166
214.371	158
215.636	180
216.899	190
218.164	178
219.428	194
220.692	168
221.955	178
223.219	190
224.482	178
225.744	182
227.007	184
228.27	184
229.531	196
230.794	182
232.055	188
233.317	202
234.579	208
235.839	188
237.1	216
238.362	196
239.621	190
240.882	200
242.141	190
243.402	210
244.661	210
245.921	214
247.179	206
248.439	204
249.698	214
250.956	220
252.215	234
253.473	216
254.731	230
255.988	226
257.246	226
258.503	222
259.761	234
261.017	204
262.273	232
263.53	238
264.786	238
266.042	226
267.298	222
268.554	246
269.809	226
271.063	234
272.319	224
273.573	238
274.828	246
276.082	248
277.336	262
278.591	242
279.844	242
281.097	246
282.351	250
283.603	248
284.855	260
286.109	266
287.361	246
288.613	270
289.866	254
291.117	250
292.368	270
293.62	262
294.871	266
296.121	276
297.372	262
298.623	280
299.873	270
301.123	268
302.372	276
303.622	282
304.872	282
306.121	286
307.37	306
308.618	284
309.866	276
311.116	302
312.364	288
313.611	310
314.859	302
316.106	306
317.353	318
318.6	304
319.848	296
321.095	304
322.341	294
323.587	314
324.833	308
326.079	340
327.324	324
328.569	316
329.814	330
331.059	324
332.304	334
333.548	312
334.792	316
336.037	346
337.28	328
338.524	326
339.767	358
341.011	342
342.254	352
343.497	328
344.739	348
345.982	340
347.224	334
348.466	346
349.708	348
350.95	348
352.191	362
353.432	356
354.673	378
355.914	356
357.155	366
358.394	382
359.634	386
360.874	378
362.114	384
363.354	402
364.593	372
365.832	406
367.07	420
368.309	386
369.548	380
370.786	404
372.024	404
373.261	404
374.499	406
375.736	404
376.974	396
378.211	394
379.447	428
380.684	394
381.92	436
383.157	402
384.392	418
385.628	438
386.864	398
388.098	444
389.333	450
390.569	430
391.802	424
393.037	440
394.272	464
395.505	452
396.739	444
397.973	458
399.206	438
400.44	444
401.673	480
402.905	460
404.138	454
405.37	454
406.602	498
407.835	452
409.066	468
410.298	470
411.528	494
412.76	526
413.99	460
415.221	506
416.451	488
417.682	498
418.911	488
420.142	502
421.371	506
422.601	518
423.83	514
425.059	522
426.288	518
427.517	520
428.745	558
429.974	540
431.201	520
432.43	560
433.657	540
434.883	542
436.111	538
437.338	552
438.565	538
439.791	574
441.017	544
442.244	562
443.469	590
444.695	564
445.921	558
447.146	570
448.37	566
449.596	586
450.821	594
452.045	552
453.27	600
454.493	596
455.717	584
456.94	582
458.165	582
459.387	612
460.61	638
461.833	588
463.056	622
464.278	634
465.5	626
466.722	572
467.945	618
469.166	590
470.387	612
471.608	602
472.829	634
474.049	652
475.271	630
476.491	634
477.711	622
478.931	658
480.15	648
481.37	676
482.589	662
483.808	640
485.027	652
486.247	684
487.465	652
488.683	702
489.901	706
491.119	688
492.337	700
493.554	704
494.771	744
495.988	700
497.205	734
498.422	694
499.638	716
500.854	740
502.07	714
503.286	742
504.502	754
505.717	718
506.933	762
508.148	740
509.363	746
510.577	722
511.792	722
513.005	772
514.219	750
515.433	764
516.647	762
517.86	764
519.073	780
520.287	782
521.5	782
522.711	762
523.924	778
525.136	800
526.348	776
527.56	814
528.772	824
529.982	768
531.194	846
532.405	830
533.616	816
534.825	818
536.036	848
537.246	828
538.457	820
539.665	848
540.875	808
542.085	848
543.294	844
544.502	870
545.712	870
546.92	874
548.128	850
549.336	868
550.545	832
551.751	870
552.959	882
554.167	900
555.373	864
556.581	870
557.788	886
558.994	924
560.2	926
561.406	918
562.612	900
563.817	890
565.023	936
566.229	948
567.433	918
568.639	956
569.843	950
571.048	928
572.251	998
573.456	976
574.659	978
575.863	1000
577.066	958
578.27	958
579.472	992
580.676	992
581.878	1054
583.081	1026
584.283	1008
585.484	1014
586.687	1080
587.888	1050
589.09	1022
590.291	1024
591.493	1054
592.693	1062
593.893	1038
595.094	1024
596.294	1040
597.494	1086
598.694	1076
599.894	1080
601.093	1100
602.293	1112
603.491	1118
604.69	1136
605.889	1094
607.087	1178
608.285	1118
609.483	1134
610.682	1150
611.879	1180
613.076	1182
614.273	1170
615.471	1202
616.667	1202
617.864	1190
619.06	1198
620.256	1220
621.453	1218
622.648	1216
623.844	1236
625.039	1220
626.234	1254
627.429	1264
628.625	1264
629.819	1296
631.013	1332
632.208	1278
633.401	1358
634.595	1300
635.789	1286
636.982	1310
638.175	1302
639.369	1342
640.562	1338
641.755	1338
642.947	1336
644.139	1408
645.331	1366
646.523	1424
647.715	1402
648.906	1404
650.097	1432
651.288	1430
652.479	1464
653.67	1422
654.86	1486
656.051	1476
657.241	1454
658.429	1466
659.619	1422
660.808	1510
661.998	1500
663.187	1542
664.376	1500
665.565	1520
666.753	1470
667.942	1536
669.13	1518
670.317	1572
671.505	1626
672.692	1570
673.88	1546
675.067	1582
676.254	1566
677.44	1634
678.627	1598
679.813	1674
681	1648
682.184	1554
683.37	1696
684.556	1656
685.742	1652
686.926	1638
688.111	1686
689.296	1630
690.481	1696
691.664	1720
692.849	1696
694.033	1670
695.216	1764
696.4	1762
697.584	1764
698.766	1794
699.949	1706
701.133	1866
702.314	1804
703.497	1818
704.678	1814
705.861	1850
707.043	1862
708.224	1872
709.406	1858
710.586	1884
711.768	1916
712.949	1946
714.129	1986
715.31	1920
716.489	1938
717.67	1920
718.849	1962
720.029	1974
721.208	2034
722.388	2002
723.566	2036
724.746	2080
725.924	2000
727.103	2072
728.28	2064
729.458	2076
730.636	2114
731.814	2112
732.992	2134
734.168	2104
735.345	2144
736.523	2162
737.699	2192
738.876	2186
740.052	2226
741.227	2208
742.404	2260
743.579	2262
744.754	2248
745.931	2270
747.105	2322
748.28	2276
749.455	2334
750.629	2302
751.803	2364
752.977	2430
754.152	2464
755.325	2374
756.499	2418
757.672	2440
758.846	2436
760.018	2476
761.191	2498
762.363	2488
763.535	2434
764.708	2532
765.88	2446
767.052	2560
768.223	2566
769.394	2536
770.565	2536
771.737	2584
772.908	2642
774.078	2534
775.249	2620
776.419	2588
777.589	2620
778.758	2692
779.928	2678
781.097	2752
782.266	2670
783.435	2738
784.604	2774
785.773	2770
786.941	2820
788.11	2802
789.278	2814
790.446	2816
791.613	2848
792.781	2872
793.948	2866
795.115	2874
796.282	2960
797.449	3024
798.616	2970
799.782	2974
800.948	2974
802.115	2978
803.28	3052
804.446	3096
805.612	3112
806.777	3110
807.941	3084
809.106	3124
810.271	3168
811.435	3198
812.6	3242
813.764	3188
814.927	3252
816.091	3266
817.254	3302
818.418	3302
819.581	3326
820.743	3430
821.906	3392
823.069	3388
824.232	3428
825.393	3484
826.555	3528
827.717	3530
828.879	3546
830.039	3592
831.201	3504
832.362	3570
833.522	3690
834.683	3670
835.844	3674
837.003	3660
838.164	3712
839.324	3762
840.483	3760
841.643	3768
842.801	3806
843.961	3834
845.12	3846
846.278	3872
847.437	3954
848.594	3906
849.753	3888
850.91	3924
852.069	3948
853.227	4028
854.383	4096
855.541	4062
856.697	4074
857.855	4132
859.011	4114
860.168	4132
861.323	4230
862.48	4208
863.635	4316
864.79	4262
865.946	4320
867.101	4386
868.257	4368
869.411	4366
870.567	4416
871.721	4400
872.874	4414
874.029	4500
875.183	4488
876.336	4530
877.49	4572
878.643	4524
879.796	4530
880.95	4634
882.102	4624
883.254	4604
884.407	4678
885.559	4672
886.711	4724
887.862	4770
889.015	4802
890.166	4852
891.317	4846
892.467	4856
893.619	4878
894.77	4902
895.92	4916
897.07	4980
898.221	5028
899.371	5004
900.52	5052
901.669	4962
902.819	5094
903.968	5070
905.116	5050
906.266	5118
907.415	5210
908.563	5262
909.711	5210
910.859	5274
912.007	5284
913.154	5338
914.301	5330
915.449	5366
916.596	5364
917.742	5438
918.889	5432
920.036	5478
921.183	5494
922.329	5524
923.475	5612
924.621	5568
925.765	5654
926.911	5674
928.056	5672
929.201	5758
930.346	5808
931.49	5736
932.635	5802
933.779	5948
934.924	5836
936.068	5958
937.211	5916
938.355	6022
939.498	5998
940.64	6112
941.784	6136
942.926	6164
944.069	6106
945.212	6158
946.354	6200
947.495	6266
948.637	6320
949.779	6372
950.921	6386
952.062	6474
953.202	6414
954.344	6434
955.484	6506
956.625	6572
957.765	6584
958.905	6620
960.045	6594
961.184	6718
962.324	6756
963.464	6766
964.604	6856
965.742	6814
966.881	6910
968.02	7012
969.158	6942
970.296	6860
971.434	7014
972.572	7018
973.71	7064
974.847	7130
975.985	7146
977.121	7184
978.259	7276
979.396	7218
980.532	7326
981.669	7448
982.804	7298
983.941	7378
985.076	7536
986.212	7454
987.347	7438
988.483	7534
989.617	7514
990.753	7640
991.887	7632
993.022	7670
994.156	7700
995.29	7672
996.424	7844
997.558	7792
998.692	7960
999.825	7834
1000.96	7882
1002.09	8032
1003.22	8034
1004.36	8040
1005.49	8066
1006.62	8166
1007.75	8092
1008.89	8128
1010.02	8212
1011.15	8410
1012.28	8334
1013.41	8286
1014.54	8410
1015.67	8546
1016.8	8496
1017.93	8550
1019.07	8448
1020.19	8602
1021.32	8718
1022.45	8740
1023.58	8842
1024.71	8864
1025.84	9006
1026.97	8982
1028.1	8882
1029.23	9054
1030.36	9122
1031.49	9048
1032.61	9136
1033.74	9146
1034.87	9368
1036	9400
1037.12	9434
1038.25	9336
1039.38	9372
1040.5	9480
1041.63	9548
1042.76	9640
1043.88	9622
1045.01	9694
1046.14	9808
1047.26	9790
1048.39	9830
1049.51	9844
1050.64	9862
1051.76	9884
1052.89	10026
1054.01	10214
1055.14	10068
1056.26	10138
1057.38	10288
1058.51	10294
1059.63	10418
1060.75	10348
1061.88	10387
1063	10426
1064.12	10448
1065.25	10692
1066.37	10594
1067.49	10660
1068.61	10642
1069.73	10830
1070.86	10818
1071.98	10636
1073.1	10754
1074.22	10798
1075.34	10976
1076.46	10842
1077.58	11108
1078.7	11042
1079.82	11002
1080.94	11080
1082.06	11108
1083.18	11156
1084.3	11088
1085.42	11160
1086.54	11196
1087.66	11348
1088.78	11242
1089.9	11374
1091.02	11384
1092.14	11370
1093.25	11378
1094.37	11414
1095.49	11506
1096.61	11550
1097.72	11552
1098.84	11612
1099.96	11800
1101.08	11716
1102.19	11692
1103.31	11880
1104.43	11742
1105.54	11854
1106.66	11824
1107.77	11814
1108.89	11882
1110	12044
1111.12	11952
1112.23	12044
1113.35	12016
1114.46	12108
1115.58	12090
1116.69	12300
1117.81	12172
1118.92	12194
1120.03	12506
1121.15	12340
1122.26	12316
1123.37	12544
1124.49	12374
1125.6	12348
1126.71	12514
1127.83	12580
1128.94	12594
1130.05	12486
1131.16	12666
1132.27	12686
1133.39	12898
1134.5	12854
1135.61	12776
1136.72	12796
1137.83	12752
1138.94	12858
1140.05	12998
1141.16	12826
1142.27	13004
1143.38	13090
1144.49	13110
1145.6	13190
1146.71	13166
1147.82	13282
1148.93	13354
1150.04	13224
1151.15	13266
1152.26	13276
1153.36	13274
1154.47	13334
1155.58	13372
1156.69	13310
1157.8	13482
1158.9	13568
1160.01	13548
1161.12	13484
1162.22	13544
1163.33	13584
1164.44	13698
1165.54	13626
1166.65	13666
1167.76	13612
1168.86	13692
1169.97	13622
1171.07	13718
1172.18	13692
1173.28	13732
1174.39	13796
1175.49	13742
1176.6	13926
1177.7	13862
1178.81	13576
1179.91	13638
1181.02	13684
1182.12	13786
1183.22	13782
1184.33	13818
1185.43	13832
1186.53	13800
1187.63	13684
1188.74	13660
1189.84	13676
1190.94	13722
1192.04	13752
1193.15	13680
1194.25	13658
1195.35	13762
1196.45	13716
1197.55	13644
1198.65	13602
1199.75	13606
1200.85	13606
1201.95	13632
1203.05	13528
1204.16	13562
1205.25	13712
1206.35	13422
1207.45	13616
1208.55	13442
1209.65	13512
1210.75	13568
1211.85	13534
1212.95	13364
1214.05	13460
1215.15	13290
1216.24	13394
1217.34	13330
1218.44	13294
1219.54	13310
1220.64	13328
1221.73	13254
1222.83	13144
1223.93	13322
1225.02	13196
1226.12	13216
1227.22	13106
1228.31	13042
1229.41	13092
1230.5	13108
1231.6	12880
1232.7	12980
1233.79	13044
1234.89	12930
1235.98	12782
1237.08	12948
1238.17	13008
1239.26	12840
1240.36	12856
1241.45	12804
1242.55	12770
1243.64	12824
1244.73	12660
1245.83	12552
1246.92	12700
1248.01	12550
1249.11	12632
1250.2	12456
1251.29	12556
1252.38	12510
1253.48	12568
1254.57	12386
1255.66	12412
1256.75	12562
1257.84	12412
1258.93	12330
1260.03	12374
1261.12	12356
1262.21	12204
1263.3	12300
1264.39	12168
1265.48	12196
1266.57	12232
1267.66	12188
1268.75	12100
1269.84	11998
1270.93	11940
1272.02	12072
1273.11	11816
1274.19	12102
1275.28	11844
1276.37	11810
1277.46	11940
1278.55	11842
1279.64	11768
1280.72	11706
1281.81	11690
1282.9	11624
1283.98	11566.8
1285.07	11631.2
1286.16	11434.7
1287.25	11433.4
1288.33	11376.5
1289.42	11355.5
1290.5	11283.5
1291.59	11378.2
1292.68	11115
1293.76	11154.5
1294.85	11142.1
1295.93	11104.4
1297.02	11064.3
1298.1	10948.4
1299.19	10955.3
1300.27	10834
1301.36	10778.9
1302.44	10533.9
1303.53	10736.8
1304.61	10573.7
1305.69	10579.6
1306.78	10475.7
1307.86	10389.6
1308.94	10310.9
1310.03	10245.5
1311.11	10353.4
1312.19	10261.4
1313.27	10166.5
1314.36	10166.3
1315.44	10065.1
1316.52	10080.7
1317.6	9999.08
1318.68	9989.25
1319.77	9801.1
1320.85	9824.27
1321.93	9815.41
1323.01	9712.71
1324.09	9636.9
1325.17	9651.69
1326.25	9672.09
1327.33	9609.13
1328.41	9454.38
1329.49	9407.97
1330.57	9438.79
1331.65	9349.84
1332.73	9242.75
1333.81	9214
1334.89	9178.57
1335.97	9163.71
1337.04	9132.42
1338.12	9065.01
1339.2	9024.82
1340.28	8924.47
1341.36	8893.55
1342.44	8785.92
1343.51	8770.67
1344.59	8724.57
1345.67	8818.07
1346.75	8618.19
1347.82	8559.45
1348.9	8546.57
1349.98	8563.94
1351.05	8510.73
1352.13	8413.3
1353.2	8398.6
1354.28	8403.13
1355.36	8352.63
1356.43	8283.57
1357.51	8288.8
1358.58	8215.06
1359.66	8107.75
1360.73	8080.71
1361.81	8059.04
1362.88	8069.85
1363.96	7943.78
1365.03	7919.94
1366.1	7868.2
1367.18	7903.88
1368.25	7825.66
1369.33	7765.55
1370.4	7788.65
1371.47	7762.7
1372.54	7704.29
1373.62	7633.9
1374.69	7623.28
1375.76	7555.14
1376.83	7528.98
1377.91	7498.73
1378.98	7420.75
1380.05	7456.36
1381.12	7367.5
1382.19	7338.23
1383.26	7240.17
1384.34	7341.13
1385.41	7216.92
1386.48	7217.35
1387.55	7124.38
1388.62	7024.24
1389.69	7025.58
1390.76	7060.91
1391.83	7075.77
1392.9	7070.61
1393.02	7068
1394.1	6978
1395.17	6914
1396.25	6918
1397.32	6874
1398.4	6884
1399.47	6784
1400.55	6790
1401.62	6798
1402.69	6828
1403.77	6694
1404.84	6662
1405.91	6778
1406.99	6668
1408.06	6594
1409.13	6592
1410.2	6626
1411.27	6606
1412.35	6468
1413.42	6466
1414.49	6530
1415.56	6440
1416.63	6494
1417.7	6374
1418.78	6370
1419.85	6284
1420.92	6414
1421.99	6232
1423.06	6208
1424.13	6334
1425.2	6290
1426.27	6290
1427.34	6268
1428.41	6244
1429.48	6168
1430.55	6098
1431.61	6082
1432.68	6078
1433.75	6034
1434.82	6048
1435.89	5962
1436.96	6018
1438.02	6082
1439.09	5990
1440.16	5978
1441.23	5870
1442.3	5956
1443.36	5872
1444.43	5792
1445.5	5830
1446.56	5908
1447.63	5806
1448.7	5844
1449.76	5670
1450.83	5800
1451.89	5776
1452.96	5682
1454.02	5768
1455.09	5720
1456.15	5694
1457.22	5738
1458.28	5698
1459.35	5542
1460.41	5672
1461.48	5588
1462.54	5576
1463.61	5568
1464.67	5604
1465.73	5612
1466.8	5516
1467.86	5638
1468.92	5602
1469.98	5420
1471.05	5516
1472.11	5552
1473.17	5394
1474.24	5408
1475.3	5490
1476.36	5374
1477.42	5416
1478.48	5376
1479.54	5406
1480.6	5354
1481.67	5292
1482.73	5286
1483.79	5318
1484.85	5294
1485.91	5314
1486.97	5222
1488.03	5124
1489.09	5276
1490.15	5212
1491.21	5298
1492.27	5154
1493.33	5228
1494.38	5146
1495.44	5232
1496.5	5150
1497.56	5040
1498.62	5080
1499.68	5094
1500.74	5116
1501.79	5080
1502.85	4982
1503.91	5062
1504.97	5014
1506.02	4938
1507.08	4940
1508.14	5034
1509.2	4936
1510.25	4906
1511.31	5004
1512.36	4912
1513.42	4888
1514.48	4856
1515.53	4850
1516.59	4848
1517.64	4758
1518.7	4844
1519.75	4820
1520.81	4806
1521.86	4808
1522.92	4782
1523.97	4856
1525.02	4690
1526.08	4764
1527.13	4740
1528.19	4676
1529.24	4664
1530.29	4650
1531.35	4612
1532.4	4686
1533.45	4612
1534.51	4602
1535.56	4574
1536.61	4638
1537.66	4574
1538.72	4596
1539.77	4572
1540.82	4558
1541.87	4544
1542.92	4484
1543.97	4524
1545.02	4492
1546.08	4514
1547.13	4484
1548.18	4452
1549.23	4474
1550.28	4412
1551.33	4466
1552.38	4398
1553.43	4350
1554.48	4366
1555.53	4440
1556.57	4394
1557.62	4346
1558.67	4348
1559.72	4294
1560.77	4212
1561.82	4276
1562.87	4320
1563.92	4242
1564.96	4284
1566.01	4204
1567.06	4278
1568.11	4284
1569.15	4320
1570.2	4272
1571.25	4284
1572.29	4272
1573.34	4190
1574.39	4144
1575.43	4262
1576.48	4202
1577.53	4146
1578.57	4202
1579.62	4206
1580.66	4136
1581.71	4190
1582.75	4198
1583.8	4080
1584.84	4108
1585.89	4138
1586.93	4086
1587.98	4134
1589.02	4056
1590.06	4044
1591.11	4124
1592.15	4118
1593.2	3984
1594.24	4058
1595.28	4010
1596.33	3920
1597.37	4124
1598.41	4118
1599.45	4008
1600.5	4028
1601.54	4112
1602.58	4028
1603.62	4008
1604.66	3940
1605.7	4038
1606.75	4052
1607.79	3994
1608.83	4032
1609.87	3986
1610.91	3972
1611.95	4042
1612.99	4000
1614.03	3946
1615.07	3954
1616.11	4032
1617.15	4038
1618.19	3960
1619.23	3992
1620.27	3908
1621.31	3930
1622.35	3830
1623.39	3898
1624.43	3872
1625.46	3846
1626.5	3860
1627.54	3898
1628.58	3884
1629.62	3840
1630.65	3832
1631.69	3902
1632.73	3824
1633.77	3828
1634.8	3934
1635.84	3902
1636.88	3760
1637.91	3874
1638.95	3810
1639.99	3824
1641.02	3842
1642.06	3880
1643.09	3822
1644.13	3808
1645.16	3784
1646.2	3770
1647.23	3780
1648.27	3744
1649.3	3758
1650.34	3768
1651.37	3796
1652.41	3764
1653.44	3766
1654.47	3762
1655.51	3738
1656.54	3730
1657.57	3702
1658.61	3798
1659.64	3728
1660.67	3716
1661.71	3732
1662.74	3666
1663.77	3688
1664.81	3668
1665.84	3684
1666.87	3692
1667.9	3748
1668.93	3636
1669.96	3730
1671	3670
1672.03	3612
1673.06	3634
1674.09	3604
1675.12	3644
1676.15	3632
1677.18	3698
1678.21	3580
1679.24	3538
1680.27	3562
1681.3	3670
1682.33	3618
1683.36	3660
1684.39	3570
1685.42	3544
1686.45	3556
1687.47	3552
1688.5	3590
1689.53	3542
1690.56	3518
1691.59	3574
1692.62	3500
1693.64	3500
1694.67	3524
1695.7	3524
1696.73	3484
1697.75	3520
1698.78	3476
1699.81	3546
1700.83	3450
1701.86	3438
1702.89	3500
1703.91	3462
1704.94	3470
1705.97	3450
1706.99	3468
1708.02	3414
1709.04	3514
1710.07	3464
1711.09	3534
1712.12	3424
1713.14	3430
1714.17	3414
1715.19	3512
1716.22	3422
1717.24	3448
1718.26	3476
1719.29	3420
1720.31	3446
1721.33	3392
1722.36	3446
1723.38	3452
1724.4	3426
1725.43	3374
1726.45	3396
1727.47	3336
1728.49	3392
1729.52	3344
1730.54	3410
1731.56	3346
1732.58	3432
1733.6	3380
1734.63	3408
1735.65	3342
1736.67	3334
1737.69	3310
1738.71	3412
1739.73	3360
1740.75	3370
1741.77	3412
1742.79	3360
1743.81	3336
1744.83	3324
1745.85	3356
1746.87	3342
1747.89	3344
1748.91	3326
1749.93	3284
1750.95	3328
1751.97	3284
1752.98	3292
1754	3364
1755.02	3332
1756.04	3288
1757.06	3428
1758.07	3322
1759.09	3282
1760.11	3306
1761.13	3408
1762.14	3328
1763.16	3342
1764.18	3296
1765.19	3356
1766.21	3358
1767.23	3344
1768.24	3338
1769.26	3366
1770.28	3348
1771.29	3314
1772.31	3314
1773.32	3338
1774.34	3332
1775.35	3270
1776.37	3354
1777.38	3278
1778.4	3312
1779.41	3370
1780.43	3328
1781.44	3298
1782.45	3306
1783.47	3230
1784.48	3294
1785.49	3310
1786.51	3316
1787.52	3284
1788.53	3284
1789.55	3306
1790.56	3318
1791.57	3296
1792.58	3378
1793.6	3266
1794.61	3336
1795.62	3326
1796.63	3248
1797.64	3242
1798.66	3294
1799.67	3324
1800.68	3356
1801.69	3296
1802.7	3266
1803.71	3280
1804.72	3322
1805.73	3310
1806.74	3264
1807.75	3200
1808.76	3294
1809.77	3210
1810.78	3264
1811.79	3284
1812.8	3328
1813.81	3246
1814.82	3270
1815.83	3256
1816.84	3218
1817.84	3280
1818.85	3288
1819.86	3244
1820.87	3278
1821.88	3262
1822.88	3264
1823.89	3334
1824.9	3238
1825.91	3278
1826.91	3232
1827.92	3254
1828.93	3244
1829.93	3222
1830.94	3254
1831.95	3164
1832.95	3190
1833.96	3248
1834.97	3248
1835.97	3240
1836.98	3128
1837.98	3194
1838.99	3254
1839.99	3246
1841	3150
1842	3196
1843.01	3244
1844.01	3228
1845.02	3260
1846.02	3222
1847.02	3234
1848.03	3226
1849.03	3258
1850.03	3146
1851.04	3224
1852.04	3172
1853.04	3220
1854.05	3170
1855.05	3222
1856.05	3198
1857.05	3146
1858.06	3142
1859.06	3144
1860.06	3152
1861.06	3122
1862.06	3134
1863.07	3176
1864.07	3176
1865.07	3186
1866.07	3158
1867.07	3174
1868.07	3134
1869.07	3164
1870.07	3160
1871.07	3144
1872.07	3126
1873.07	3196
1874.07	3170
1875.07	3184
1876.07	3192
1877.07	3198
1878.07	3134
1879.07	3132
1880.07	3136
1881.07	3174
1882.07	3116
1883.06	3180
1884.06	3096
1885.06	3184
1886.06	3154
1887.06	3166
1888.05	3142
1889.05	3134
1890.05	3036
1891.05	3112
1892.04	3120
1893.04	3134
1894.04	3146
1895.03	3132
1896.03	3158
1897.03	3136
1898.02	3082
1899.02	3114
1900.01	3146
1901.01	3092
1902	3108
1903	3170
1903.99	3108
1904.99	3114
1905.98	3096
1906.98	3108
1907.97	3202
1908.97	3146
1909.96	3082
1910.96	3166
1911.95	3140
1912.94	3116
1913.94	3142
1914.93	3182
1915.93	3170
1916.92	3216
1917.91	3120
1918.9	3146
1919.9	3104
1920.89	3154
1921.88	3088
1922.87	3096
1923.87	3028
1924.86	3072
1925.85	3078
1926.84	3040
1927.83	3144
1928.82	3062
1929.82	3114
1930.81	3120
1931.8	3088
1932.79	3110
1933.78	3080
1934.77	3024
1935.76	3106
1936.75	3124
1937.74	3092
1938.73	3108
1939.72	3062
1940.71	3058
1941.7	3038
1942.69	3134
1943.68	3134
1944.67	3092
1945.65	3040
1946.64	3080
1947.63	3034
1948.62	3064
1949.61	3058
1950.6	3050
1951.58	3072
1952.57	3084
1953.56	3008
1954.55	3082
1955.53	3058
1956.52	3034
1957.51	3010
1958.5	3064
1959.48	2990
1960.47	3072
1961.45	3028
1962.44	3068
1963.43	3056
1964.41	3022
1965.4	3000
1966.38	3088
1967.37	3084
1968.35	2978
1969.34	3058
1970.32	3038
1971.31	2994
1972.29	3020
1973.28	2950
1974.26	3054
1975.25	2998
1976.23	2992
1977.22	3062
1978.2	3024
1979.18	2988
1980.17	2972
1981.15	3006
1982.13	3016
1983.12	2960
1984.1	3008
1985.08	3006
1986.06	3004
1987.05	3008
1988.03	3002
1989.01	3004
1989.99	2976
1990.97	2992
1991.96	2962
1992.94	2998
1993.92	3038
1994.9	2998
1995.88	3054
1996.86	3002
1997.84	2946
1998.82	2944
1999.8	3002
2000.78	2952
2001.76	3010
2002.74	3002
2003.72	2992
2004.7	2960
2005.68	3000
2006.66	2968
2007.64	3056
2008.62	2938
2009.6	3004
2010.58	2952
2011.56	2956
2012.54	3010
2013.51	2918
2014.49	2974
2015.47	2918
2016.45	2968
2017.43	2982
2018.4	2960
2019.38	2966
2020.36	2968
2021.34	2958
2022.31	2872
2023.29	2992
2024.27	2902
2025.24	2958
2026.22	2964
2027.2	2986
2028.17	2958
2029.15	2930
2030.12	2904
2031.1	2906
2032.07	2886
2033.05	2968
2034.03	2918
2035	2936
2035.98	2906
2036.95	2916
2037.93	2882
2038.9	2930
2039.87	2958
2040.85	2848
2041.82	2960
2042.8	2908
2043.77	2894
2044.74	2972
2045.72	2950
2046.69	2924
2047.66	2928
2048.64	2952
2049.61	2932
2050.58	2908
2051.55	2970
2052.53	2994
2053.5	2918
2054.47	2936
2055.44	2888
2056.41	2928
2057.39	2910
2058.36	2880
2059.33	2912
2060.3	2894
2061.27	2898
2062.24	2872
2063.21	2980
2064.18	2904
2065.15	2868
2066.12	2906
2067.09	2848
2068.06	2932
2069.03	2836
2070	2888
2070.97	2938
2071.94	2942
2072.91	2846
2073.88	2886
2074.85	2842
2075.82	2874
2076.79	2884
2077.76	2872
2078.73	2822
2079.69	2894
2080.66	2868
2081.63	2858
2082.6	2834
2083.56	2858
2084.53	2918
2085.5	2828
2086.47	2840
2087.43	2876
2088.4	2812
2089.37	2834
2090.33	2924
2091.3	2866
2092.27	2824
2093.23	2876
2094.2	2862
2095.17	2850
2096.13	2904
2097.1	2824
2098.06	2884
2099.03	2838
2099.99	2818
2100.96	2828
2101.92	2850
2102.89	2852
2103.85	2860
2104.82	2836
2105.78	2872
2106.74	2836
2107.71	2848
2108.67	2784
2109.64	2828
2110.6	2808
2111.56	2850
2112.53	2812
2113.49	2906
2114.45	2810
2115.41	2854
2116.38	2802
2117.34	2868
2118.3	2762
2119.26	2834
2120.23	2734
2121.19	2838
2122.15	2788
2123.11	2882
2124.07	2776
2125.03	2904
2126	2780
2126.96	2818
2127.92	2834
2128.88	2818
2129.84	2784
2130.8	2792
2131.76	2814
2132.72	2760
2133.68	2784
2134.64	2798
2135.6	2802
2136.56	2886
2137.52	2736
2138.48	2780
2139.44	2800
2140.4	2776
2141.35	2810
2142.31	2768
2143.27	2740
2144.23	2768
2145.19	2842
2146.15	2752
2147.1	2864
2148.06	2788
2149.02	2744
2149.98	2790
2150.94	2802
2151.89	2766
2152.85	2774
2153.81	2764
2154.76	2798
2155.72	2742
2156.68	2756
2157.63	2798
2158.59	2740
2159.55	2710
2160.5	2706
2161.46	2762
2162.41	2696
2163.37	2774
2164.32	2714
2165.28	2744
2166.23	2792
2167.19	2716
2168.14	2740
2169.1	2750
2170.05	2736
2171.01	2700
2171.96	2690
2172.91	2720
2173.87	2752
2174.82	2760
2175.78	2700
2176.73	2728
2177.68	2718
2178.64	2728
2179.59	2720
2180.54	2766
2181.49	2670
2182.45	2690
2183.4	2672
2184.35	2672
2185.3	2664
2186.26	2706
2187.21	2622
2188.16	2736
2189.11	2616
2190.06	2648
2191.01	2724
2191.96	2628
2192.92	2658
2193.87	2680
2194.82	2590
2195.77	2642
2196.72	2662
2197.67	2624
2198.62	2648
2199.57	2608
2200.52	2658
2201.47	2618
2202.42	2636
2203.37	2686
2204.32	2608
2205.27	2692
2206.22	2638
2207.16	2684
2208.11	2604
2209.06	2630
2210.01	2672
2210.96	2578
2211.91	2626
2212.85	2610
2213.8	2654
2214.75	2626
2215.7	2624
2216.64	2656
2217.59	2632
2218.54	2604
2219.49	2582
2220.43	2610
2221.38	2592
2222.33	2602
2223.27	2631.51
2224.22	2628.02
2225.16	2615.05
2226.11	2606.26
2227.06	2596.79
2228	2590.38
2228.95	2632.19
2229.89	2666.67
2230.84	2615.44
2231.78	2584.51
2232.73	2609.82
2233.67	2591.41
2234.62	2598.01
2235.56	2578.07
2236.51	2555.8
2237.45	2565.29
2238.4	2556.95
2239.34	2583.73
2240.28	2589.99
2241.23	2529.5
2242.17	2537.23
2243.11	2536.69
2244.06	2581.44
2245	2524.82
2245.94	2529.68
2246.89	2567.08
2247.83	2527.96
2248.77	2551.91
2249.71	2569.87
2250.66	2532.53
2251.6	2543.68
2252.54	2551.43
2253.48	2546.84
2254.42	2549.47
2255.37	2513.71
2256.31	2555.24
2257.25	2516.18
2258.19	2525.1
2259.13	2515.86
2260.07	2505.71
2261.01	2497.7
2261.95	2539.54
2262.89	2498.28
2263.83	2465.54
2264.77	2474.63
2265.71	2508.73
2266.65	2470.05
2267.59	2509.67
2268.53	2503.01
2269.47	2479.91
2270.41	2504.2
2271.35	2464.05
2272.29	2485.34
2273.23	2473.99
2274.17	2481.93
2275.1	2472.68
2276.04	2457.77
2276.98	2490.32
2277.92	2483.98
2278.86	2433.43
2279.8	2420.7
2280.73	2426.81
2281.67	2455.49
2282.61	2425.12
2283.55	2458.58
2284.48	2421.14
2285.42	2432.63
2286.36	2428.79
2287.29	2426.81
2288.23	2440.93
2289.17	2419.8
2290.1	2408.9
2291.04	2394.8
2291.98	2389.01
2292.91	2377.24
2293.85	2400.93
2294.78	2372.29
2295.72	2386.28
2296.65	2417.25
2297.59	2401.59
2298.52	2391.5
2299.46	2362.36
2300.39	2326.44
2301.33	2351.21
2302.26	2351.96
2303.2	2343.98
2304.13	2357.62
2305.06	2357.27
2306	2359.58
2306.93	2336.51
2307.87	2352.46
2308.8	2330.02
2309.73	2337.84
2310.67	2318.09
2311.6	2312.23
2312.53	2319.02
2313.46	2280.97
2314.4	2309.78
2315.33	2312.14
2316.26	2264.1
2316.69	2248
2317.62	2310
2318.56	2300
2319.5	2292
2320.43	2282
2321.37	2256
2322.31	2248
2323.24	2286
2324.18	2294
2325.12	2320
2326.05	2270
2326.99	2318
2327.92	2242
2328.86	2304
2329.79	2228
2330.73	2278
2331.66	2246
2332.6	2252
2333.53	2320
2334.47	2208
2335.4	2228
2336.34	2208
2337.27	2260
2338.2	2268
2339.14	2192
2340.07	2254
2341.01	2230
2341.94	2226
2342.87	2212
2343.81	2184
2344.74	2196
2345.67	2188
2346.6	2224
2347.54	2172
2348.47	2190
2349.4	2176
2350.33	2210
2351.27	2232
2352.2	2160
2353.13	2182
2354.06	2148
2354.99	2202
2355.93	2184
2356.86	2126
2357.79	2180
2358.72	2166
2359.65	2142
2360.58	2142
2361.51	2154
2362.44	2128
2363.37	2214
2364.3	2182
2365.23	2158
2366.16	2172
2367.09	2190
2368.02	2136
2368.95	2166
2369.88	2110
2370.81	2174
2371.74	2192
2372.67	2142
2373.6	2104
2374.52	2124
2375.45	2120
2376.38	2106
2377.31	2114
2378.24	2128
2379.17	2152
2380.09	2152
2381.02	2136
2381.95	2086
2382.88	2076
2383.8	2056
2384.73	2146
2385.66	2062
2386.58	2066
2387.51	2098
2388.44	2092
2389.36	2026
2390.29	2008
2391.22	2092
2392.14	2100
2393.07	2112
2393.99	2072
2394.92	2050
2395.85	2066
2396.77	2016
2397.7	2036
2398.62	2028
2399.55	2120
2400.47	2000
2401.4	1966
2402.32	1996
2403.25	1956
2404.17	1978
2405.09	1998
2406.02	2004
2406.94	2006
2407.86	1986
2408.79	2020
2409.71	2018
2410.63	2026
2411.56	1994
2412.48	1998
2413.4	1952
2414.33	1978
2415.25	1940
2416.17	1908
2417.09	1952
2418.02	1966
2418.94	1916
2419.86	1976
2420.78	1862
2421.7	1926
2422.63	1946
2423.55	1896
2424.47	1920
2425.39	1954
2426.31	1926
2427.23	1898
2428.15	1898
2429.07	1872
2429.99	1906
2430.91	1900
2431.83	1924
2432.75	1858
2433.67	1868
2434.59	1866
2435.51	1880
2436.43	1850
2437.35	1856
2438.27	1836
2439.19	1864
2440.11	1826
2441.03	1836
2441.95	1840
2442.86	1872
2443.78	1842
2444.7	1830
2445.62	1840
2446.54	1796
2447.46	1820
2448.37	1814
2449.29	1804
2450.21	1838
2451.13	1764
2452.04	1754
2452.96	1804
2453.88	1834
2454.79	1750
2455.71	1806
2456.63	1754
2457.54	1796
2458.46	1770
2459.38	1752
2460.29	1776
2461.21	1794
2462.12	1724
2463.04	1676
2463.95	1756
2464.87	1762
2465.78	1724
2466.7	1708
2467.61	1684
2468.53	1752
2469.44	1784
2470.36	1722
2471.27	1740
2472.19	1744
2473.1	1710
2474.01	1700
2474.93	1716
2475.84	1718
2476.76	1708
2477.67	1662
2478.58	1692
2479.5	1692
2480.41	1702
2481.32	1690
2482.23	1688
2483.15	1642
2484.06	1624
2484.97	1680
2485.88	1662
2486.8	1680
2487.71	1620
2488.62	1694
2489.53	1634
2490.44	1634
2491.35	1638
2492.26	1664
2493.18	1638
2494.09	1624
2495	1624
2495.91	1610
2496.82	1580
2497.73	1574
2498.64	1556
2499.55	1602
2500.46	1640
2501.37	1580
2502.28	1604
2503.19	1556
2504.1	1610
2505.01	1588
2505.92	1584
2506.83	1568
2507.74	1546
2508.65	1554
2509.55	1554
2510.46	1536
2511.37	1576
2512.28	1476
2513.19	1538
2514.09	1548
2515	1534
2515.91	1518
2516.82	1528
2517.73	1518
2518.63	1526
2519.54	1512
2520.45	1502
2521.35	1510
2522.26	1526
2523.17	1482
2524.07	1472
2524.98	1442
2525.89	1468
2526.79	1488
2527.7	1490
2528.6	1464
2529.51	1474
2530.42	1460
2531.32	1492
2532.23	1468
2533.13	1470
2534.04	1458
2534.94	1480
2535.85	1438
2536.75	1444
2537.66	1442
2538.56	1478
2539.47	1440
2540.37	1402
2541.27	1464
2542.18	1430
2543.08	1396
2543.98	1426
2544.89	1420
2545.79	1448
2546.7	1394
2547.6	1404
2548.5	1364
2549.4	1376
2550.31	1338
2551.21	1388
2552.11	1378
2553.01	1356
2553.92	1346
2554.82	1370
2555.72	1360
2556.62	1378
2557.52	1366
2558.42	1332
2559.33	1356
2560.23	1374
2561.13	1334
2562.03	1352
2562.93	1334
2563.83	1346
2564.73	1318
2565.63	1340
2566.53	1360
2567.43	1298
2568.33	1340
2569.23	1324
2570.13	1326
2571.03	1316
2571.93	1308
2572.83	1268
2573.73	1276
2574.63	1320
2575.53	1268
2576.43	1264
2577.33	1316
2578.22	1308
2579.12	1294
2580.02	1272
2580.92	1264
2581.82	1264
2582.72	1234
2583.61	1260
2584.51	1264
2585.41	1266
2586.31	1266
2587.2	1280
2588.1	1246
2589	1238
2589.89	1288
2590.79	1262
2591.69	1250
2592.58	1244
2593.48	1200
2594.38	1212
2595.27	1224
2596.17	1190
2597.06	1198
2597.96	1220
2598.86	1184
2599.75	1244
2600.65	1212
2601.54	1204
2602.44	1218
2603.33	1188
2604.23	1220
2605.12	1162
2606.02	1170
2606.91	1196
2607.81	1174
2608.7	1170
2609.59	1178
2610.49	1186
2611.38	1156
2612.27	1224
2613.17	1194
2614.06	1148
2614.95	1158
2615.85	1164
2616.74	1158
2617.63	1124
2618.53	1162
2619.42	1168
2620.31	1138
2621.2	1106
2622.1	1142
2622.99	1152
2623.88	1130
2624.77	1110
2625.66	1134
2626.55	1112
2627.45	1142
2628.34	1122
2629.23	1102
2630.12	1110
2631.01	1140
2631.9	1102
2632.79	1108
2633.68	1102
2634.57	1106
2635.46	1084
2636.35	1066
2637.24	1114
2638.13	1052
2639.02	1128
2639.91	1052
2640.8	1058
2641.69	1042
2642.58	1058
2643.47	1060
2644.36	1054
2645.25	1082
2646.14	1076
2647.02	1088
2647.91	1034
2648.8	1026
2649.69	1058
2650.58	1002
2651.46	1010
2652.35	1016
2653.24	1018
2654.13	1044
2655.01	1008
2655.9	1030
2656.79	1018
2657.68	1012
2658.56	984
2659.45	1020
2660.34	1016
2661.22	976
2662.11	998
2662.99	974
2663.88	998
2664.77	966
2665.65	1024
2666.54	948
2667.42	996
2668.31	962
2669.2	996
2670.08	972
2670.96	974
2671.85	986
2672.73	1018
2673.62	1022
2674.5	1016
2675.39	1000
2676.27	940
2677.16	940
2678.04	976
2678.93	952
2679.81	966
2680.69	958
2681.58	950
2682.46	924
2683.34	952
2684.23	928
2685.11	914
2685.99	936
2686.87	932
2687.76	902
2688.64	954
2689.52	952
2690.4	964
2691.28	910
2692.17	934
2693.05	912
2693.93	898
2694.81	938
2695.69	870
2696.57	878
2697.46	916
2698.34	928
2699.22	894
2700.1	902
2700.98	882
2701.86	896
2702.74	866
2703.62	890
2704.5	866
2705.38	874
2706.26	882
2707.14	874
2708.02	880
2708.9	860
2709.78	872
2710.66	864
2711.54	842
2712.42	858
2713.3	816
2714.17	854
2715.05	818
2715.93	854
2716.81	854
2717.69	826
2718.57	826
2719.44	822
2720.32	878
2721.2	832
2722.08	800
2722.95	860
2723.83	816
2724.71	804
2725.59	808
2726.46	826
2727.34	832
2728.22	806
2729.09	800
2729.97	842
2730.85	792
2731.72	762
2732.6	824
2733.47	830
2734.35	792
2735.23	774
2736.1	780
2736.98	740
2737.85	766
2738.73	806
2739.6	788
2740.48	786
2741.35	786
2742.23	784
2743.1	778
2743.98	724
2744.85	754
2745.72	756
2746.6	782
2747.47	776
2748.35	746
2749.22	736
2750.09	754
2750.97	774
2751.84	762
2752.71	766
2753.59	730
2754.46	722
2755.33	728
2756.2	730
2757.08	724
2757.95	732
2758.82	738
2759.69	758
2760.57	726
2761.44	710
2762.31	738
2763.18	728
2764.05	700
2764.92	722
2765.79	680
2766.67	700
2767.54	710
2768.41	696
2769.28	692
2770.15	704
2771.02	662
2771.89	686
2772.76	706
2773.63	688
2774.5	690
2775.37	648
2776.24	664
2777.11	654
2777.98	678
2778.85	700
2779.72	672
2780.59	648
2781.46	656
2782.32	698
2783.19	674
2784.06	628
2784.93	658
2785.8	650
2786.67	642
2787.53	660
2788.4	622
2789.27	640
2790.14	644
2791.01	612
2791.87	628
2792.74	634
2793.61	654
2794.47	646
2795.34	626
2796.21	622
2797.07	634
2797.94	666
2798.81	606
2799.67	608
2800.54	644
2801.41	626
2802.27	646
2803.14	640
2804	620
2804.87	612
2805.74	646
2806.6	590
2807.47	598
2808.33	614
2809.2	600
2810.06	568
2810.93	596
2811.79	590
2812.65	594
2813.52	606
2814.38	582
2815.25	570
2816.11	560
2816.98	556
2817.84	588
2818.7	566
2819.56	588
2820.43	604
2821.29	602
2822.16	598
2823.02	566
2823.88	570
2824.74	584
2825.61	546
2826.47	568
2827.33	566
2828.19	568
2829.05	580
2829.92	556
2830.78	556
2831.64	544
2832.5	590
2833.36	552
2834.23	540
2835.09	530
2835.95	538
2836.81	522
2837.67	534
2838.53	510
2839.39	540
2840.25	540
2841.11	532
2841.97	544
2842.83	502
2843.69	518
2844.55	544
2845.41	520
2846.27	534
2847.13	544
2847.99	524
2848.85	518
2849.71	496
2850.57	532
2851.43	522
2852.28	500
2853.14	474
2854	528
2854.86	486
2855.72	500
2856.58	508
2857.43	478
2858.29	516
2859.15	510
2860.01	490
2860.86	456
2861.72	490
2862.58	468
2863.44	500
2864.29	480
2865.15	502
2866.01	492
2866.86	496
2867.72	470
2868.58	448
2869.43	474
2870.29	466
2871.14	466
2872	462
2872.86	462
2873.71	460
2874.57	458
2875.42	498
2876.28	450
2877.13	464
2877.99	478
2878.84	448
2879.7	466
2880.55	458
2881.41	456
2882.26	434
2883.11	462
2883.97	438
2884.82	436
2885.68	448
2886.53	444
2887.39	420
2888.24	424
2889.09	450
2889.94	456
2890.8	440
2891.65	444
2892.5	420
2893.36	434
2894.21	420
2895.06	446
2895.91	438
2896.77	414
2897.62	408
2898.47	430
2899.32	432
2900.17	410
2901.03	428
2901.88	432
2902.73	408
2903.58	436
2904.43	412
2905.28	436
2906.13	424
2906.98	436
2907.84	396
2908.69	388
2909.54	418
2910.39	432
2911.24	434
2912.09	412
2912.94	404
2913.79	398
2914.64	394
2915.49	400
2916.34	398
2917.19	420
2918.03	418
2918.88	398
2919.73	414
2920.58	390
2921.43	400
2922.28	392
2923.13	392
2923.98	388
2924.82	410
2925.67	390
2926.52	404
2927.37	382
2928.22	398
2929.06	370
2929.91	396
2930.76	376
2931.61	394
2932.45	380
2933.3	376
2934.15	350
2934.99	370
2935.84	396
2936.69	384
2937.53	364
2938.38	374
2939.23	382
2940.07	392
2940.92	374
2941.76	362
2942.61	366
2943.46	360
2944.3	372
2945.15	384
2945.99	382
2946.84	352
2947.68	354
2948.53	354
2949.37	350
2950.22	370
2951.06	350
2951.9	358
2952.75	342
2953.59	346
2954.44	370
2955.28	350
2956.12	354
2956.97	354
2957.81	358
2958.65	328
2959.5	354
2960.34	364
2961.18	340
2962.03	342
2962.87	364
2963.71	336
2964.56	326
2965.4	350
2966.24	348
2967.08	332
2967.92	364
2968.77	338
2969.61	330
2970.45	334
2971.29	316
2972.13	334
2972.97	324
2973.82	340
2974.66	344
2975.5	334
2976.34	310
2977.18	336
2978.02	332
2978.86	314
2979.7	350
2980.54	340
2981.38	324
2982.22	340
2983.06	316
2983.9	322
2984.74	318
2985.58	310
2986.42	332
2987.26	296
2988.1	318
2988.94	318
2989.78	314
2990.61	314
2991.45	320
2992.29	306
2993.13	310
2993.97	308
2994.81	306
2995.64	304
2996.48	306
2997.32	314
2998.16	322
2999	326
2999.83	310
