#Acq. time (s)=	10
#Accumulations=	1
#Range (cm-¹)=	200...3000
#Windows=	3
#Autofocus=	Off
#AutoExposure=	Off
#Spike filter=	Off
#Delay time (s)=	0
#Binning=	1
#Readout mode=	Signal
#DeNoise=	Off
#ICS correction=	Off
#Dark correction=	Off
#Inst. Process=	Off
#Instrument=	LabRAM HR Evol
#Detector=	Syncerity OE
#Objective=	x100_VIS
#Grating=	600 (500nm)
#ND Filter=	0.1%
#Laser=	633nm_Edge
#Hole=	100.021
#Range=	Visible
#Project=	Omar
#Sample=	03-07-23
#Site=	papal
#Title=	leaf_100x
#Remark=	
#Date=	03.07.2023 17:19
#Acquired=	03.07.2023 17:19:25
201.713	146
202.98	148
204.247	156
205.513	150
206.778	150
208.045	154
209.311	156
210.576	156
211.84	146
213.106	166
214.371	152
215.636	162
216.899	154
218.164	144
219.428	154
220.692	156
221.955	162
223.219	168
224.482	178
225.744	170
227.007	162
228.27	184
229.531	184
230.794	174
232.055	178
233.317	174
234.579	168
235.839	176
237.1	178
238.362	192
239.621	200
240.882	168
242.141	180
243.402	174
244.661	180
245.921	174
247.179	196
248.439	172
249.698	182
250.956	188
252.215	202
253.473	182
254.731	180
255.988	198
257.246	198
258.503	190
259.761	202
261.017	192
262.273	204
263.53	182
264.786	194
266.042	184
267.298	204
268.554	216
269.809	216
271.063	198
272.319	208
273.573	212
274.828	206
276.082	222
277.336	206
278.591	208
279.844	208
281.097	216
282.351	228
283.603	226
284.855	206
286.109	206
287.361	234
288.613	242
289.866	234
291.117	224
292.368	218
293.62	234
294.871	214
296.121	238
297.372	252
298.623	222
299.873	240
301.123	222
302.372	248
303.622	242
304.872	254
306.121	252
307.37	262
308.618	252
309.866	242
311.116	270
312.364	266
313.611	260
314.859	250
316.106	264
317.353	274
318.6	254
319.848	262
321.095	276
322.341	264
323.587	298
324.833	276
326.079	254
327.324	278
328.569	300
329.814	288
331.059	284
332.304	298
333.548	292
334.792	256
336.037	298
337.28	280
338.524	304
339.767	278
341.011	290
342.254	306
343.497	304
344.739	298
345.982	312
347.224	326
348.466	304
349.708	292
350.95	316
352.191	316
353.432	280
354.673	320
355.914	322
357.155	330
358.394	342
359.634	344
360.874	320
362.114	346
363.354	332
364.593	312
365.832	332
367.07	348
368.309	344
369.548	348
370.786	332
372.024	350
373.261	378
374.499	360
375.736	348
376.974	358
378.211	354
379.447	358
380.684	346
381.92	394
383.157	360
384.392	344
385.628	360
386.864	362
388.098	370
389.333	342
390.569	378
391.802	410
393.037	388
394.272	388
395.505	404
396.739	376
397.973	378
399.206	400
400.44	414
401.673	408
402.905	430
404.138	382
405.37	398
406.602	412
407.835	400
409.066	422
410.298	436
411.528	416
412.76	412
413.99	430
415.221	428
416.451	440
417.682	428
418.911	416
420.142	434
421.371	414
422.601	438
423.83	450
425.059	444
426.288	466
427.517	454
428.745	490
429.974	472
431.201	430
432.43	452
433.657	480
434.883	484
436.111	476
437.338	472
438.565	488
439.791	502
441.017	500
442.244	508
443.469	516
444.695	456
445.921	502
447.146	504
448.37	516
449.596	494
450.821	506
452.045	484
453.27	538
454.493	532
455.717	492
456.94	524
458.165	502
459.387	528
460.61	516
461.833	524
463.056	488
464.278	514
465.5	548
466.722	536
467.945	536
469.166	572
470.387	550
471.608	526
472.829	568
474.049	522
475.271	566
476.491	548
477.711	604
478.931	590
480.15	600
481.37	570
482.589	554
483.808	592
485.027	596
486.247	570
487.465	566
488.683	610
489.901	600
491.119	606
492.337	600
493.554	596
494.771	608
495.988	634
497.205	624
498.422	656
499.638	604
500.854	642
502.07	606
503.286	654
504.502	640
505.717	626
506.933	646
508.148	646
509.363	638
510.577	658
511.792	658
513.005	642
514.219	656
515.433	654
516.647	654
517.86	666
519.073	676
520.287	702
521.5	672
522.711	664
523.924	658
525.136	672
526.348	674
527.56	708
528.772	688
529.982	696
531.194	684
532.405	694
533.616	716
534.825	710
536.036	712
537.246	692
538.457	716
539.665	730
540.875	708
542.085	730
543.294	742
544.502	740
545.712	702
546.92	750
548.128	752
549.336	756
550.545	800
551.751	750
552.959	768
554.167	740
555.373	782
556.581	786
557.788	762
558.994	772
560.2	786
561.406	802
562.612	806
563.817	796
565.023	858
566.229	796
567.433	822
568.639	786
569.843	852
571.048	838
572.251	798
573.456	800
574.659	836
575.863	840
577.066	840
578.27	836
579.472	890
580.676	876
581.878	886
583.081	898
584.283	854
585.484	882
586.687	864
587.888	842
589.09	874
590.291	886
591.493	924
592.693	904
593.893	910
595.094	944
596.294	932
597.494	910
598.694	948
599.894	928
601.093	946
602.293	938
603.491	940
604.69	930
605.889	952
607.087	956
608.285	1000
609.483	966
610.682	986
611.879	994
613.076	1042
614.273	1010
615.471	1006
616.667	1040
617.864	1060
619.06	1022
620.256	1034
621.453	1082
622.648	1064
623.844	1104
625.039	1052
626.234	1074
627.429	1076
628.625	1094
629.819	1090
631.013	1050
632.208	1094
633.401	1140
634.595	1180
635.789	1136
636.982	1146
638.175	1124
639.369	1176
640.562	1168
641.755	1108
642.947	1174
644.139	1178
645.331	1206
646.523	1156
647.715	1188
648.906	1230
650.097	1178
651.288	1194
652.479	1214
653.67	1234
654.86	1206
656.051	1230
657.241	1280
658.429	1230
659.619	1260
660.808	1256
661.998	1294
663.187	1288
664.376	1290
665.565	1268
666.753	1296
667.942	1298
669.13	1324
670.317	1332
671.505	1324
672.692	1376
673.88	1330
675.067	1348
676.254	1356
677.44	1416
678.627	1354
679.813	1380
681	1356
682.184	1370
683.37	1440
684.556	1442
685.742	1384
686.926	1412
688.111	1458
689.296	1402
690.481	1456
691.664	1456
692.849	1480
694.033	1490
695.216	1520
696.4	1442
697.584	1500
698.766	1478
699.949	1526
701.133	1532
702.314	1524
703.497	1504
704.678	1578
705.861	1564
707.043	1606
708.224	1556
709.406	1622
710.586	1610
711.768	1602
712.949	1582
714.129	1668
715.31	1640
716.489	1632
717.67	1590
718.849	1666
720.029	1650
721.208	1680
722.388	1666
723.566	1750
724.746	1754
725.924	1764
727.103	1750
728.28	1750
729.458	1748
730.636	1804
731.814	1776
732.992	1848
734.168	1862
735.345	1814
736.523	1876
737.699	1874
738.876	1878
740.052	1878
741.227	1884
742.404	1868
743.579	1906
744.754	1892
745.931	1942
747.105	1924
748.28	1954
749.455	1980
750.629	1958
751.803	1986
752.977	1990
754.152	1992
755.325	1978
756.499	2026
757.672	2090
758.846	2070
760.018	2042
761.191	2080
762.363	2126
763.535	2088
764.708	2118
765.88	2130
767.052	2136
768.223	2142
769.394	2154
770.565	2180
771.737	2188
772.908	2262
774.078	2222
775.249	2238
776.419	2238
777.589	2214
778.758	2308
779.928	2234
781.097	2240
782.266	2322
783.435	2346
784.604	2400
785.773	2330
786.941	2400
788.11	2332
789.278	2416
790.446	2364
791.613	2436
792.781	2438
793.948	2482
795.115	2432
796.282	2504
797.449	2486
798.616	2498
799.782	2558
800.948	2544
802.115	2536
803.28	2626
804.446	2606
805.612	2550
806.777	2566
807.941	2570
809.106	2702
810.271	2694
811.435	2696
812.6	2718
813.764	2754
814.927	2772
816.091	2754
817.254	2786
818.418	2774
819.581	2822
820.743	2808
821.906	2872
823.069	2882
824.232	2910
825.393	2934
826.555	2910
827.717	2980
828.879	2908
830.039	2908
831.201	3028
832.362	3004
833.522	2972
834.683	3030
835.844	3038
837.003	3106
838.164	3062
839.324	3194
840.483	3128
841.643	3142
842.801	3248
843.961	3222
845.12	3176
846.278	3262
847.437	3300
848.594	3300
849.753	3324
850.91	3362
852.069	3284
853.227	3402
854.383	3416
855.541	3318
856.697	3362
857.855	3474
859.011	3462
860.168	3508
861.323	3496
862.48	3578
863.635	3586
864.79	3564
865.946	3624
867.101	3660
868.257	3644
869.411	3692
870.567	3624
871.721	3788
872.874	3634
874.029	3634
875.183	3728
876.336	3774
877.49	3848
878.643	3868
879.796	3904
880.95	3832
882.102	3842
883.254	3806
884.407	3908
885.559	3884
886.711	3976
887.862	4012
889.015	3926
890.166	4048
891.317	4108
892.467	4020
893.619	4088
894.77	4098
895.92	4154
897.07	4094
898.221	4094
899.371	4154
900.52	4230
901.669	4230
902.819	4176
903.968	4200
905.116	4300
906.266	4270
907.415	4378
908.563	4282
909.711	4312
910.859	4362
912.007	4472
913.154	4490
914.301	4454
915.449	4596
916.596	4504
917.742	4474
918.889	4554
920.036	4634
921.183	4562
922.329	4618
923.475	4636
924.621	4622
925.765	4664
926.911	4772
928.056	4796
929.201	4754
930.346	4798
931.49	4922
932.635	4856
933.779	4858
934.924	4894
936.068	5000
937.211	4942
938.355	5018
939.498	5016
940.64	5056
941.784	5072
942.926	5112
944.069	5136
945.212	5130
946.354	5156
947.495	5278
948.637	5184
949.779	5248
950.921	5374
952.062	5394
953.202	5430
954.344	5352
955.484	5440
956.625	5482
957.765	5518
958.905	5508
960.045	5572
961.184	5548
962.324	5662
963.464	5594
964.604	5564
965.742	5746
966.881	5696
968.02	5768
969.158	5714
970.296	5726
971.434	5832
972.572	5816
973.71	5860
974.847	5884
975.985	5884
977.121	6004
978.259	6012
979.396	6084
980.532	6054
981.669	6050
982.804	6080
983.941	6130
985.076	6130
986.212	6090
987.347	6264
988.483	6192
989.617	6206
990.753	6306
991.887	6362
993.022	6288
994.156	6362
995.29	6472
996.424	6318
997.558	6460
998.692	6538
999.825	6530
1000.96	6568
1002.09	6676
1003.22	6676
1004.36	6668
1005.49	6696
1006.62	6736
1007.75	6720
1008.89	6724
1010.02	6898
1011.15	6902
1012.28	6934
1013.41	6926
1014.54	7018
1015.67	7024
1016.8	7014
1017.93	7080
1019.07	7138
1020.19	7174
1021.32	7156
1022.45	7242
1023.58	7248
1024.71	7274
1025.84	7394
1026.97	7354
1028.1	7314
1029.23	7442
1030.36	7450
1031.49	7474
1032.61	7548
1033.74	7626
1034.87	7690
1036	7698
1037.12	7748
1038.25	7842
1039.38	7868
1040.5	7732
1041.63	7998
1042.76	7956
1043.88	7802
1045.01	8052
1046.14	8072
1047.26	8024
1048.39	8164
1049.51	8182
1050.64	8218
1051.76	8234
1052.89	8378
1054.01	8370
1055.14	8346
1056.26	8394
1057.38	8464
1058.51	8422
1059.63	8616
1060.75	8548
1061.88	8573
1063	8598
1064.12	8668
1065.25	8654
1066.37	8740
1067.49	8752
1068.61	8786
1069.73	8906
1070.86	8762
1071.98	8976
1073.1	8798
1074.22	9018
1075.34	8926
1076.46	9106
1077.58	9028
1078.7	9096
1079.82	9068
1080.94	9052
1082.06	9204
1083.18	9248
1084.3	9304
1085.42	9270
1086.54	9342
1087.66	9294
1088.78	9410
1089.9	9374
1091.02	9448
1092.14	9420
1093.25	9462
1094.37	9494
1095.49	9492
1096.61	9514
1097.72	9522
1098.84	9648
1099.96	9632
1101.08	9572
1102.19	9708
1103.31	9664
1104.43	9746
1105.54	9810
1106.66	9720
1107.77	9780
1108.89	9884
1110	9940
1111.12	9878
1112.23	10092
1113.35	9866
1114.46	9978
1115.58	10162
1116.69	10040
1117.81	10126
1118.92	10200
1120.03	10182
1121.15	10182
1122.26	10192
1123.37	10352
1124.49	10298
1125.6	10268
1126.71	10326
1127.83	10352
1128.94	10446
1130.05	10398
1131.16	10440
1132.27	10502
1133.39	10516
1134.5	10454
1135.61	10602
1136.72	10656
1137.83	10774
1138.94	10704
1140.05	10806
1141.16	10842
1142.27	10822
1143.38	10816
1144.49	10872
1145.6	10976
1146.71	10820
1147.82	10982
1148.93	11104
1150.04	10966
1151.15	11146
1152.26	10948
1153.36	11036
1154.47	11124
1155.58	11136
1156.69	11210
1157.8	11138
1158.9	11204
1160.01	11326
1161.12	11310
1162.22	11168
1163.33	11230
1164.44	11310
1165.54	11396
1166.65	11406
1167.76	11302
1168.86	11338
1169.97	11372
1171.07	11406
1172.18	11508
1173.28	11492
1174.39	11418
1175.49	11366
1176.6	11324
1177.7	11438
1178.81	11442
1179.91	11430
1181.02	11412
1182.12	11430
1183.22	11394
1184.33	11470
1185.43	11402
1186.53	11638
1187.63	11384
1188.74	11432
1189.84	11368
1190.94	11424
1192.04	11520
1193.15	11392
1194.25	11414
1195.35	11468
1196.45	11400
1197.55	11438
1198.65	11436
1199.75	11260
1200.85	11434
1201.95	11386
1203.05	11234
1204.16	11396
1205.25	11282
1206.35	11528
1207.45	11316
1208.55	11294
1209.65	11164
1210.75	11268
1211.85	11274
1212.95	11196
1214.05	11168
1215.15	11198
1216.24	11274
1217.34	11148
1218.44	11240
1219.54	11032
1220.64	11188
1221.73	11074
1222.83	11096
1223.93	11062
1225.02	11068
1226.12	11162
1227.22	11104
1228.31	11002
1229.41	10916
1230.5	10930
1231.6	10988
1232.7	10982
1233.79	10940
1234.89	10866
1235.98	10930
1237.08	10900
1238.17	10984
1239.26	10776
1240.36	10954
1241.45	10782
1242.55	10816
1243.64	10802
1244.73	10740
1245.83	10734
1246.92	10592
1248.01	10796
1249.11	10680
1250.2	10524
1251.29	10628
1252.38	10628
1253.48	10618
1254.57	10532
1255.66	10530
1256.75	10478
1257.84	10572
1258.93	10532
1260.03	10520
1261.12	10522
1262.21	10548
1263.3	10362
1264.39	10426
1265.48	10378
1266.57	10314
1267.66	10376
1268.75	10236
1269.84	10386
1270.93	10342
1272.02	10160
1273.11	10238
1274.19	10116
1275.28	10152
1276.37	10090
1277.46	10104
1278.55	10080
1279.64	9972
1280.72	9972
1281.81	9978
1282.9	9914
1283.98	9915.85
1285.07	9878.61
1286.16	9817.92
1287.25	9682.92
1288.33	9618.42
1289.42	9667.64
1290.5	9733.32
1291.59	9537.03
1292.68	9539.74
1293.76	9509.41
1294.85	9501.19
1295.93	9493.28
1297.02	9464.04
1298.1	9270.23
1299.19	9299.34
1300.27	9368.08
1301.36	9180.71
1302.44	9165.68
1303.53	9149.43
1304.61	9111.5
1305.69	9022.5
1306.78	8984.55
1307.86	8911.82
1308.94	8845.71
1310.03	8858.78
1311.11	8804.86
1312.19	8733.91
1313.27	8766.43
1314.36	8743.27
1315.44	8678.58
1316.52	8639.67
1317.6	8554.23
1318.68	8486.18
1319.77	8472.85
1320.85	8461.09
1321.93	8415.38
1323.01	8364.42
1324.09	8343.62
1325.17	8224.46
1326.25	8248.74
1327.33	8210.64
1328.41	8180.13
1329.49	8199.57
1330.57	8141.9
1331.65	8021.11
1332.73	7962.6
1333.81	7996.91
1334.89	7982.77
1335.97	7930.39
1337.04	7860.35
1338.12	7804.08
1339.2	7853.38
1340.28	7755.8
1341.36	7712.51
1342.44	7672.17
1343.51	7660.85
1344.59	7554.41
1345.67	7494.2
1346.75	7530.62
1347.82	7429.96
1348.9	7444.38
1349.98	7441.59
1351.05	7382.61
1352.13	7334.52
1353.2	7300.4
1354.28	7246.75
1355.36	7378.07
1356.43	7078.11
1357.51	7106.77
1358.58	7089.57
1359.66	7094.2
1360.73	7118.67
1361.81	7100.39
1362.88	7023.43
1363.96	6888.56
1365.03	6868.67
1366.1	6964.49
1367.18	6873.54
1368.25	6802.32
1369.33	6758.45
1370.4	6721.2
1371.47	6774.88
1372.54	6693.54
1373.62	6664.92
1374.69	6653.3
1375.76	6575.83
1376.83	6513.25
1377.91	6532.23
1378.98	6442.74
1380.05	6465.85
1381.12	6407.6
1382.19	6380.85
1383.26	6409.56
1384.34	6359.52
1385.41	6322.56
1386.48	6311.61
1387.55	6268.84
1388.62	6319.53
1389.69	6135.61
1390.76	6162
1391.83	6107.05
1392.9	6105.16
1393.02	6104
1394.1	6082
1395.17	6070
1396.25	5994
1397.32	6094
1398.4	6012
1399.47	5994
1400.55	5932
1401.62	5834
1402.69	5926
1403.77	5878
1404.84	5878
1405.91	5812
1406.99	5722
1408.06	5828
1409.13	5782
1410.2	5810
1411.27	5726
1412.35	5720
1413.42	5736
1414.49	5692
1415.56	5722
1416.63	5680
1417.7	5590
1418.78	5608
1419.85	5596
1420.92	5482
1421.99	5622
1423.06	5484
1424.13	5514
1425.2	5512
1426.27	5544
1427.34	5478
1428.41	5366
1429.48	5452
1430.55	5432
1431.61	5396
1432.68	5376
1433.75	5276
1434.82	5356
1435.89	5274
1436.96	5324
1438.02	5216
1439.09	5288
1440.16	5210
1441.23	5238
1442.3	5254
1443.36	5220
1444.43	5068
1445.5	5192
1446.56	5088
1447.63	5186
1448.7	5126
1449.76	5068
1450.83	5064
1451.89	5108
1452.96	5000
1454.02	5042
1455.09	5008
1456.15	5054
1457.22	4946
1458.28	4964
1459.35	4892
1460.41	4952
1461.48	4928
1462.54	4964
1463.61	4944
1464.67	4878
1465.73	4846
1466.8	4902
1467.86	4796
1468.92	4764
1469.98	4878
1471.05	4772
1472.11	4838
1473.17	4710
1474.24	4770
1475.3	4810
1476.36	4810
1477.42	4660
1478.48	4800
1479.54	4762
1480.6	4724
1481.67	4692
1482.73	4674
1483.79	4684
1484.85	4670
1485.91	4722
1486.97	4584
1488.03	4620
1489.09	4568
1490.15	4600
1491.21	4602
1492.27	4568
1493.33	4540
1494.38	4588
1495.44	4522
1496.5	4522
1497.56	4510
1498.62	4578
1499.68	4424
1500.74	4468
1501.79	4512
1502.85	4436
1503.91	4460
1504.97	4414
1506.02	4428
1507.08	4450
1508.14	4324
1509.2	4404
1510.25	4368
1511.31	4356
1512.36	4300
1513.42	4308
1514.48	4372
1515.53	4234
1516.59	4300
1517.64	4294
1518.7	4240
1519.75	4298
1520.81	4258
1521.86	4296
1522.92	4216
1523.97	4234
1525.02	4202
1526.08	4180
1527.13	4172
1528.19	4208
1529.24	4142
1530.29	4154
1531.35	4146
1532.4	4144
1533.45	4030
1534.51	4078
1535.56	4036
1536.61	4034
1537.66	4096
1538.72	3978
1539.77	4086
1540.82	3994
1541.87	3922
1542.92	3994
1543.97	3936
1545.02	3928
1546.08	3930
1547.13	3990
1548.18	3896
1549.23	3988
1550.28	3976
1551.33	3922
1552.38	3828
1553.43	3922
1554.48	3894
1555.53	3838
1556.57	3848
1557.62	3826
1558.67	3828
1559.72	3860
1560.77	3774
1561.82	3792
1562.87	3826
1563.92	3774
1564.96	3804
1566.01	3778
1567.06	3804
1568.11	3768
1569.15	3834
1570.2	3788
1571.25	3770
1572.29	3728
1573.34	3682
1574.39	3662
1575.43	3788
1576.48	3734
1577.53	3712
1578.57	3686
1579.62	3698
1580.66	3734
1581.71	3652
1582.75	3696
1583.8	3676
1584.84	3722
1585.89	3608
1586.93	3642
1587.98	3620
1589.02	3622
1590.06	3622
1591.11	3608
1592.15	3516
1593.2	3624
1594.24	3644
1595.28	3620
1596.33	3612
1597.37	3632
1598.41	3616
1599.45	3632
1600.5	3548
1601.54	3548
1602.58	3608
1603.62	3540
1604.66	3592
1605.7	3576
1606.75	3600
1607.79	3550
1608.83	3616
1609.87	3554
1610.91	3608
1611.95	3518
1612.99	3560
1614.03	3454
1615.07	3524
1616.11	3502
1617.15	3512
1618.19	3490
1619.23	3534
1620.27	3494
1621.31	3464
1622.35	3492
1623.39	3428
1624.43	3514
1625.46	3434
1626.5	3414
1627.54	3546
1628.58	3438
1629.62	3438
1630.65	3426
1631.69	3470
1632.73	3428
1633.77	3456
1634.8	3460
1635.84	3514
1636.88	3344
1637.91	3386
1638.95	3386
1639.99	3412
1641.02	3352
1642.06	3366
1643.09	3396
1644.13	3402
1645.16	3388
1646.2	3354
1647.23	3356
1648.27	3390
1649.3	3338
1650.34	3354
1651.37	3372
1652.41	3346
1653.44	3294
1654.47	3352
1655.51	3394
1656.54	3278
1657.57	3346
1658.61	3258
1659.64	3290
1660.67	3258
1661.71	3272
1662.74	3264
1663.77	3306
1664.81	3290
1665.84	3294
1666.87	3280
1667.9	3308
1668.93	3224
1669.96	3236
1671	3276
1672.03	3172
1673.06	3248
1674.09	3260
1675.12	3140
1676.15	3200
1677.18	3214
1678.21	3162
1679.24	3182
1680.27	3244
1681.3	3226
1682.33	3210
1683.36	3236
1684.39	3158
1685.42	3196
1686.45	3184
1687.47	3114
1688.5	3172
1689.53	3124
1690.56	3192
1691.59	3128
1692.62	3132
1693.64	3146
1694.67	3168
1695.7	3134
1696.73	3142
1697.75	3090
1698.78	3162
1699.81	3066
1700.83	3082
1701.86	3058
1702.89	3112
1703.91	3070
1704.94	3084
1705.97	3140
1706.99	3048
1708.02	3178
1709.04	3034
1710.07	3130
1711.09	3088
1712.12	3114
1713.14	3042
1714.17	3136
1715.19	3076
1716.22	3062
1717.24	3140
1718.26	2970
1719.29	3110
1720.31	3114
1721.33	3032
1722.36	3126
1723.38	3048
1724.4	3044
1725.43	3026
1726.45	3032
1727.47	3052
1728.49	3018
1729.52	3034
1730.54	3030
1731.56	3006
1732.58	3030
1733.6	3012
1734.63	3006
1735.65	3018
1736.67	2982
1737.69	2994
1738.71	2968
1739.73	3008
1740.75	2994
1741.77	2978
1742.79	2964
1743.81	2984
1744.83	2992
1745.85	3048
1746.87	3062
1747.89	2950
1748.91	2956
1749.93	3014
1750.95	2998
1751.97	2988
1752.98	3020
1754	3022
1755.02	2992
1756.04	2968
1757.06	2974
1758.07	2984
1759.09	2976
1760.11	3022
1761.13	2982
1762.14	2996
1763.16	3008
1764.18	2932
1765.19	2988
1766.21	2966
1767.23	2922
1768.24	2990
1769.26	2948
1770.28	2982
1771.29	2962
1772.31	2948
1773.32	2960
1774.34	2946
1775.35	3014
1776.37	2936
1777.38	2948
1778.4	2934
1779.41	3032
1780.43	3044
1781.44	2954
1782.45	2954
1783.47	2888
1784.48	2976
1785.49	2968
1786.51	2980
1787.52	2920
1788.53	2908
1789.55	2904
1790.56	2944
1791.57	2944
1792.58	2970
1793.6	2934
1794.61	2960
1795.62	2918
1796.63	2972
1797.64	2948
1798.66	2946
1799.67	2966
1800.68	3030
1801.69	2836
1802.7	2918
1803.71	2974
1804.72	2932
1805.73	2930
1806.74	2886
1807.75	2954
1808.76	2914
1809.77	2874
1810.78	2940
1811.79	2876
1812.8	2896
1813.81	2934
1814.82	2890
1815.83	2852
1816.84	2910
1817.84	2872
1818.85	2918
1819.86	2854
1820.87	2942
1821.88	2902
1822.88	2862
1823.89	2830
1824.9	2970
1825.91	2858
1826.91	2854
1827.92	2916
1828.93	2916
1829.93	2798
1830.94	2836
1831.95	2854
1832.95	2868
1833.96	2912
1834.97	2818
1835.97	2878
1836.98	2864
1837.98	2882
1838.99	2860
1839.99	2894
1841	2826
1842	2852
1843.01	2848
1844.01	2820
1845.02	2812
1846.02	2896
1847.02	2822
1848.03	2856
1849.03	2782
1850.03	2806
1851.04	2804
1852.04	2854
1853.04	2792
1854.05	2778
1855.05	2870
1856.05	2778
1857.05	2896
1858.06	2856
1859.06	2936
1860.06	2786
1861.06	2790
1862.06	2814
1863.07	2848
1864.07	2868
1865.07	2816
1866.07	2812
1867.07	2810
1868.07	2796
1869.07	2814
1870.07	2756
1871.07	2812
1872.07	2762
1873.07	2782
1874.07	2840
1875.07	2836
1876.07	2840
1877.07	2768
1878.07	2784
1879.07	2788
1880.07	2786
1881.07	2834
1882.07	2738
1883.06	2740
1884.06	2792
1885.06	2800
1886.06	2774
1887.06	2822
1888.05	2770
1889.05	2838
1890.05	2770
1891.05	2722
1892.04	2792
1893.04	2776
1894.04	2832
1895.03	2788
1896.03	2782
1897.03	2676
1898.02	2770
1899.02	2770
1900.01	2780
1901.01	2766
1902	2792
1903	2826
1903.99	2802
1904.99	2796
1905.98	2838
1906.98	2826
1907.97	2790
1908.97	2866
1909.96	2786
1910.96	2756
1911.95	2812
1912.94	2788
1913.94	2764
1914.93	2790
1915.93	2806
1916.92	2744
1917.91	2808
1918.9	2774
1919.9	2748
1920.89	2770
1921.88	2792
1922.87	2734
1923.87	2802
1924.86	2772
1925.85	2730
1926.84	2736
1927.83	2820
1928.82	2806
1929.82	2736
1930.81	2748
1931.8	2764
1932.79	2788
1933.78	2802
1934.77	2740
1935.76	2718
1936.75	2704
1937.74	2750
1938.73	2808
1939.72	2754
1940.71	2802
1941.7	2700
1942.69	2704
1943.68	2760
1944.67	2742
1945.65	2706
1946.64	2768
1947.63	2772
1948.62	2732
1949.61	2826
1950.6	2770
1951.58	2724
1952.57	2708
1953.56	2734
1954.55	2736
1955.53	2710
1956.52	2674
1957.51	2744
1958.5	2646
1959.48	2700
1960.47	2692
1961.45	2674
1962.44	2698
1963.43	2678
1964.41	2736
1965.4	2748
1966.38	2674
1967.37	2678
1968.35	2708
1969.34	2710
1970.32	2714
1971.31	2686
1972.29	2670
1973.28	2694
1974.26	2656
1975.25	2680
1976.23	2686
1977.22	2630
1978.2	2716
1979.18	2646
1980.17	2738
1981.15	2660
1982.13	2626
1983.12	2696
1984.1	2630
1985.08	2714
1986.06	2638
1987.05	2672
1988.03	2692
1989.01	2596
1989.99	2722
1990.97	2654
1991.96	2614
1992.94	2614
1993.92	2660
1994.9	2664
1995.88	2620
1996.86	2668
1997.84	2666
1998.82	2652
1999.8	2672
2000.78	2664
2001.76	2660
2002.74	2640
2003.72	2700
2004.7	2612
2005.68	2620
2006.66	2608
2007.64	2646
2008.62	2644
2009.6	2684
2010.58	2696
2011.56	2650
2012.54	2584
2013.51	2682
2014.49	2660
2015.47	2650
2016.45	2634
2017.43	2634
2018.4	2690
2019.38	2618
2020.36	2632
2021.34	2666
2022.31	2594
2023.29	2644
2024.27	2570
2025.24	2572
2026.22	2694
2027.2	2604
2028.17	2612
2029.15	2620
2030.12	2632
2031.1	2622
2032.07	2662
2033.05	2584
2034.03	2602
2035	2656
2035.98	2590
2036.95	2598
2037.93	2530
2038.9	2562
2039.87	2626
2040.85	2612
2041.82	2594
2042.8	2666
2043.77	2560
2044.74	2628
2045.72	2572
2046.69	2638
2047.66	2614
2048.64	2578
2049.61	2606
2050.58	2620
2051.55	2636
2052.53	2604
2053.5	2566
2054.47	2636
2055.44	2586
2056.41	2616
2057.39	2616
2058.36	2562
2059.33	2552
2060.3	2604
2061.27	2568
2062.24	2618
2063.21	2572
2064.18	2560
2065.15	2586
2066.12	2618
2067.09	2562
2068.06	2642
2069.03	2552
2070	2622
2070.97	2596
2071.94	2508
2072.91	2566
2073.88	2594
2074.85	2574
2075.82	2634
2076.79	2606
2077.76	2596
2078.73	2580
2079.69	2566
2080.66	2560
2081.63	2514
2082.6	2578
2083.56	2620
2084.53	2652
2085.5	2562
2086.47	2556
2087.43	2576
2088.4	2562
2089.37	2492
2090.33	2566
2091.3	2514
2092.27	2564
2093.23	2596
2094.2	2460
2095.17	2556
2096.13	2530
2097.1	2506
2098.06	2600
2099.03	2542
2099.99	2622
2100.96	2572
2101.92	2554
2102.89	2564
2103.85	2514
2104.82	2522
2105.78	2498
2106.74	2584
2107.71	2540
2108.67	2540
2109.64	2538
2110.6	2508
2111.56	2552
2112.53	2590
2113.49	2526
2114.45	2522
2115.41	2542
2116.38	2480
2117.34	2588
2118.3	2458
2119.26	2532
2120.23	2482
2121.19	2514
2122.15	2502
2123.11	2500
2124.07	2472
2125.03	2558
2126	2476
2126.96	2510
2127.92	2494
2128.88	2534
2129.84	2550
2130.8	2504
2131.76	2528
2132.72	2546
2133.68	2512
2134.64	2452
2135.6	2488
2136.56	2468
2137.52	2476
2138.48	2496
2139.44	2470
2140.4	2492
2141.35	2508
2142.31	2464
2143.27	2486
2144.23	2536
2145.19	2380
2146.15	2466
2147.1	2450
2148.06	2448
2149.02	2460
2149.98	2520
2150.94	2446
2151.89	2464
2152.85	2498
2153.81	2524
2154.76	2436
2155.72	2460
2156.68	2500
2157.63	2458
2158.59	2418
2159.55	2484
2160.5	2494
2161.46	2416
2162.41	2472
2163.37	2396
2164.32	2422
2165.28	2478
2166.23	2456
2167.19	2436
2168.14	2390
2169.1	2446
2170.05	2362
2171.01	2448
2171.96	2470
2172.91	2384
2173.87	2486
2174.82	2414
2175.78	2474
2176.73	2422
2177.68	2438
2178.64	2392
2179.59	2442
2180.54	2422
2181.49	2422
2182.45	2432
2183.4	2436
2184.35	2400
2185.3	2450
2186.26	2430
2187.21	2410
2188.16	2474
2189.11	2356
2190.06	2414
2191.01	2382
2191.96	2376
2192.92	2356
2193.87	2356
2194.82	2388
2195.77	2358
2196.72	2378
2197.67	2370
2198.62	2344
2199.57	2346
2200.52	2332
2201.47	2336
2202.42	2308
2203.37	2348
2204.32	2334
2205.27	2344
2206.22	2332
2207.16	2344
2208.11	2290
2209.06	2312
2210.01	2312
2210.96	2324
2211.91	2346
2212.85	2348
2213.8	2382
2214.75	2342
2215.7	2396
2216.64	2366
2217.59	2328
2218.54	2380
2219.49	2316
2220.43	2274
2221.38	2352
2222.33	2402
2223.27	2315.53
2224.22	2360.64
2225.16	2337.89
2226.11	2343.8
2227.06	2350
2228	2291.28
2228.95	2348.09
2229.89	2368.54
2230.84	2341.14
2231.78	2313.19
2232.73	2335.35
2233.67	2335.11
2234.62	2245.76
2235.56	2300.65
2236.51	2302.99
2237.45	2301.07
2238.4	2249.36
2239.34	2256.96
2240.28	2288.46
2241.23	2316.2
2242.17	2228.67
2243.11	2326.1
2244.06	2263.76
2245	2280.73
2245.94	2287.88
2246.89	2246.72
2247.83	2274.27
2248.77	2280.74
2249.71	2278.37
2250.66	2284.15
2251.6	2274.56
2252.54	2265.89
2253.48	2228.3
2254.42	2258.03
2255.37	2254.82
2256.31	2248.17
2257.25	2230.58
2258.19	2222.84
2259.13	2254.66
2260.07	2255.73
2261.01	2250.06
2261.95	2239.63
2262.89	2216.89
2263.83	2245.44
2264.77	2206.91
2265.71	2274.81
2266.65	2213.92
2267.59	2227.19
2268.53	2203.19
2269.47	2203.77
2270.41	2271.04
2271.35	2202.02
2272.29	2229.75
2273.23	2199.06
2274.17	2205.4
2275.1	2216.85
2276.04	2183.24
2276.98	2184.5
2277.92	2165.17
2278.86	2151.35
2279.8	2233.46
2280.73	2174.35
2281.67	2165.19
2282.61	2183.91
2283.55	2167.61
2284.48	2178.65
2285.42	2154.07
2286.36	2161.54
2287.29	2143.21
2288.23	2152.19
2289.17	2134.27
2290.1	2125.13
2291.04	2109.55
2291.98	2130.78
2292.91	2124.22
2293.85	2171.74
2294.78	2147.43
2295.72	2081.63
2296.65	2093.09
2297.59	2104.29
2298.52	2077.33
2299.46	2109.75
2300.39	2126.1
2301.33	2136.65
2302.26	2139.02
2303.2	2105.55
2304.13	2103.97
2305.06	2099.52
2306	2083.69
2306.93	2063.02
2307.87	2055.49
2308.8	2067.39
2309.73	2069.49
2310.67	2079.17
2311.6	2085.22
2312.53	2089.72
2313.46	2100.96
2314.4	2082.88
2315.33	2076.43
2316.26	2050.9
2316.69	2020
2317.62	2054
2318.56	2070
2319.5	2050
2320.43	2052
2321.37	2012
2322.31	2026
2323.24	2026
2324.18	2018
2325.12	1972
2326.05	1988
2326.99	2046
2327.92	2000
2328.86	2018
2329.79	1980
2330.73	1992
2331.66	2062
2332.6	2032
2333.53	2014
2334.47	1990
2335.4	2002
2336.34	2006
2337.27	2022
2338.2	2036
2339.14	1984
2340.07	1940
2341.01	1948
2341.94	2014
2342.87	1980
2343.81	2012
2344.74	1972
2345.67	1990
2346.6	1962
2347.54	2026
2348.47	1910
2349.4	1962
2350.33	1950
2351.27	1942
2352.2	1984
2353.13	1886
2354.06	1980
2354.99	1938
2355.93	1978
2356.86	1942
2357.79	1892
2358.72	1944
2359.65	1894
2360.58	1958
2361.51	1944
2362.44	1932
2363.37	1970
2364.3	1936
2365.23	1912
2366.16	1900
2367.09	1922
2368.02	1948
2368.95	1874
2369.88	1942
2370.81	1934
2371.74	1936
2372.67	1960
2373.6	1950
2374.52	1886
2375.45	1898
2376.38	1912
2377.31	1914
2378.24	1880
2379.17	1910
2380.09	1890
2381.02	1888
2381.95	1888
2382.88	1816
2383.8	1886
2384.73	1904
2385.66	1876
2386.58	1866
2387.51	1846
2388.44	1878
2389.36	1836
2390.29	1862
2391.22	1862
2392.14	1834
2393.07	1832
2393.99	1822
2394.92	1804
2395.85	1762
2396.77	1778
2397.7	1830
2398.62	1830
2399.55	1790
2400.47	1772
2401.4	1852
2402.32	1794
2403.25	1790
2404.17	1774
2405.09	1778
2406.02	1818
2406.94	1812
2407.86	1806
2408.79	1790
2409.71	1754
2410.63	1748
2411.56	1766
2412.48	1730
2413.4	1774
2414.33	1770
2415.25	1742
2416.17	1756
2417.09	1746
2418.02	1738
2418.94	1680
2419.86	1730
2420.78	1712
2421.7	1750
2422.63	1694
2423.55	1744
2424.47	1704
2425.39	1714
2426.31	1728
2427.23	1682
2428.15	1684
2429.07	1690
2429.99	1682
2430.91	1748
2431.83	1700
2432.75	1720
2433.67	1722
2434.59	1746
2435.51	1672
2436.43	1608
2437.35	1706
2438.27	1692
2439.19	1662
2440.11	1664
2441.03	1664
2441.95	1612
2442.86	1650
2443.78	1640
2444.7	1646
2445.62	1624
2446.54	1674
2447.46	1680
2448.37	1608
2449.29	1618
2450.21	1626
2451.13	1648
2452.04	1634
2452.96	1580
2453.88	1618
2454.79	1604
2455.71	1562
2456.63	1590
2457.54	1600
2458.46	1584
2459.38	1560
2460.29	1584
2461.21	1562
2462.12	1578
2463.04	1524
2463.95	1578
2464.87	1600
2465.78	1546
2466.7	1560
2467.61	1550
2468.53	1540
2469.44	1520
2470.36	1556
2471.27	1476
2472.19	1508
2473.1	1472
2474.01	1526
2474.93	1534
2475.84	1564
2476.76	1556
2477.67	1528
2478.58	1470
2479.5	1524
2480.41	1514
2481.32	1532
2482.23	1460
2483.15	1478
2484.06	1470
2484.97	1446
2485.88	1496
2486.8	1520
2487.71	1474
2488.62	1430
2489.53	1450
2490.44	1440
2491.35	1432
2492.26	1448
2493.18	1416
2494.09	1414
2495	1418
2495.91	1422
2496.82	1416
2497.73	1488
2498.64	1430
2499.55	1408
2500.46	1414
2501.37	1418
2502.28	1418
2503.19	1408
2504.1	1414
2505.01	1366
2505.92	1408
2506.83	1386
2507.74	1382
2508.65	1384
2509.55	1404
2510.46	1378
2511.37	1378
2512.28	1372
2513.19	1356
2514.09	1356
2515	1408
2515.91	1336
2516.82	1370
2517.73	1360
2518.63	1406
2519.54	1352
2520.45	1358
2521.35	1374
2522.26	1338
2523.17	1326
2524.07	1354
2524.98	1320
2525.89	1330
2526.79	1302
2527.7	1340
2528.6	1304
2529.51	1300
2530.42	1292
2531.32	1266
2532.23	1288
2533.13	1300
2534.04	1318
2534.94	1296
2535.85	1304
2536.75	1290
2537.66	1290
2538.56	1232
2539.47	1284
2540.37	1252
2541.27	1244
2542.18	1236
2543.08	1222
2543.98	1322
2544.89	1226
2545.79	1274
2546.7	1228
2547.6	1248
2548.5	1198
2549.4	1248
2550.31	1228
2551.21	1264
2552.11	1254
2553.01	1216
2553.92	1238
2554.82	1204
2555.72	1184
2556.62	1254
2557.52	1222
2558.42	1208
2559.33	1234
2560.23	1200
2561.13	1228
2562.03	1232
2562.93	1156
2563.83	1188
2564.73	1186
2565.63	1158
2566.53	1186
2567.43	1160
2568.33	1178
2569.23	1208
2570.13	1176
2571.03	1166
2571.93	1188
2572.83	1154
2573.73	1178
2574.63	1180
2575.53	1162
2576.43	1152
2577.33	1176
2578.22	1140
2579.12	1184
2580.02	1138
2580.92	1130
2581.82	1082
2582.72	1168
2583.61	1144
2584.51	1140
2585.41	1108
2586.31	1124
2587.2	1128
2588.1	1114
2589	1092
2589.89	1158
2590.79	1142
2591.69	1128
2592.58	1086
2593.48	1110
2594.38	1114
2595.27	1126
2596.17	1094
2597.06	1074
2597.96	1062
2598.86	1098
2599.75	1098
2600.65	1086
2601.54	1074
2602.44	1032
2603.33	1050
2604.23	1084
2605.12	1070
2606.02	1070
2606.91	1076
2607.81	1042
2608.7	1048
2609.59	1036
2610.49	1020
2611.38	1052
2612.27	1060
2613.17	1004
2614.06	1044
2614.95	1006
2615.85	1036
2616.74	1012
2617.63	1050
2618.53	1034
2619.42	1034
2620.31	1018
2621.2	986
2622.1	1006
2622.99	1024
2623.88	1036
2624.77	988
2625.66	1018
2626.55	974
2627.45	1014
2628.34	970
2629.23	996
2630.12	964
2631.01	966
2631.9	980
2632.79	956
2633.68	996
2634.57	964
2635.46	988
2636.35	998
2637.24	1018
2638.13	954
2639.02	930
2639.91	970
2640.8	992
2641.69	982
2642.58	954
2643.47	942
2644.36	950
2645.25	948
2646.14	974
2647.02	956
2647.91	952
2648.8	948
2649.69	934
2650.58	900
2651.46	924
2652.35	926
2653.24	924
2654.13	932
2655.01	930
2655.9	858
2656.79	924
2657.68	928
2658.56	948
2659.45	906
2660.34	870
2661.22	898
2662.11	912
2662.99	910
2663.88	880
2664.77	882
2665.65	892
2666.54	914
2667.42	892
2668.31	854
2669.2	880
2670.08	858
2670.96	884
2671.85	884
2672.73	858
2673.62	846
2674.5	858
2675.39	890
2676.27	864
2677.16	866
2678.04	840
2678.93	872
2679.81	884
2680.69	856
2681.58	828
2682.46	832
2683.34	838
2684.23	840
2685.11	872
2685.99	830
2686.87	828
2687.76	778
2688.64	824
2689.52	866
2690.4	782
2691.28	792
2692.17	810
2693.05	816
2693.93	834
2694.81	822
2695.69	812
2696.57	784
2697.46	812
2698.34	810
2699.22	754
2700.1	800
2700.98	758
2701.86	766
2702.74	782
2703.62	768
2704.5	774
2705.38	752
2706.26	786
2707.14	814
2708.02	774
2708.9	798
2709.78	724
2710.66	784
2711.54	754
2712.42	802
2713.3	788
2714.17	758
2715.05	752
2715.93	780
2716.81	810
2717.69	730
2718.57	764
2719.44	744
2720.32	734
2721.2	772
2722.08	722
2722.95	726
2723.83	738
2724.71	742
2725.59	756
2726.46	744
2727.34	742
2728.22	742
2729.09	738
2729.97	732
2730.85	690
2731.72	700
2732.6	732
2733.47	678
2734.35	708
2735.23	658
2736.1	722
2736.98	704
2737.85	722
2738.73	696
2739.6	684
2740.48	670
2741.35	664
2742.23	698
2743.1	684
2743.98	664
2744.85	680
2745.72	680
2746.6	678
2747.47	692
2748.35	662
2749.22	664
2750.09	662
2750.97	660
2751.84	656
2752.71	652
2753.59	648
2754.46	644
2755.33	660
2756.2	660
2757.08	638
2757.95	634
2758.82	646
2759.69	644
2760.57	630
2761.44	640
2762.31	638
2763.18	630
2764.05	644
2764.92	678
2765.79	632
2766.67	614
2767.54	608
2768.41	614
2769.28	658
2770.15	618
2771.02	618
2771.89	628
2772.76	598
2773.63	622
2774.5	602
2775.37	580
2776.24	622
2777.11	624
2777.98	598
2778.85	580
2779.72	620
2780.59	590
2781.46	598
2782.32	566
2783.19	586
2784.06	578
2784.93	592
2785.8	580
2786.67	604
2787.53	606
2788.4	586
2789.27	604
2790.14	590
2791.01	596
2791.87	578
2792.74	570
2793.61	548
2794.47	574
2795.34	530
2796.21	552
2797.07	566
2797.94	560
2798.81	568
2799.67	584
2800.54	568
2801.41	548
2802.27	540
2803.14	564
2804	568
2804.87	538
2805.74	530
2806.6	578
2807.47	538
2808.33	510
2809.2	518
2810.06	546
2810.93	560
2811.79	516
2812.65	534
2813.52	526
2814.38	526
2815.25	564
2816.11	502
2816.98	522
2817.84	508
2818.7	534
2819.56	512
2820.43	500
2821.29	520
2822.16	510
2823.02	508
2823.88	512
2824.74	508
2825.61	508
2826.47	504
2827.33	492
2828.19	496
2829.05	480
2829.92	490
2830.78	490
2831.64	480
2832.5	500
2833.36	490
2834.23	486
2835.09	488
2835.95	480
2836.81	474
2837.67	500
2838.53	462
2839.39	472
2840.25	490
2841.11	488
2841.97	478
2842.83	458
2843.69	482
2844.55	470
2845.41	468
2846.27	470
2847.13	460
2847.99	466
2848.85	438
2849.71	442
2850.57	464
2851.43	458
2852.28	458
2853.14	460
2854	462
2854.86	462
2855.72	448
2856.58	482
2857.43	440
2858.29	452
2859.15	430
2860.01	444
2860.86	466
2861.72	448
2862.58	458
2863.44	432
2864.29	434
2865.15	410
2866.01	442
2866.86	418
2867.72	456
2868.58	396
2869.43	408
2870.29	420
2871.14	412
2872	408
2872.86	410
2873.71	407
2874.57	404
2875.42	388
2876.28	416
2877.13	424
2877.99	420
2878.84	408
2879.7	402
2880.55	402
2881.41	426
2882.26	428
2883.11	398
2883.97	412
2884.82	406
2885.68	422
2886.53	400
2887.39	416
2888.24	384
2889.09	412
2889.94	374
2890.8	380
2891.65	406
2892.5	386
2893.36	384
2894.21	374
2895.06	376
2895.91	392
2896.77	388
2897.62	394
2898.47	388
2899.32	400
2900.17	384
2901.03	370
2901.88	372
2902.73	368
2903.58	374
2904.43	380
2905.28	380
2906.13	384
2906.98	384
2907.84	392
2908.69	376
2909.54	368
2910.39	372
2911.24	346
2912.09	358
2912.94	358
2913.79	404
2914.64	370
2915.49	370
2916.34	330
2917.19	342
2918.03	370
2918.88	354
2919.73	346
2920.58	362
2921.43	350
2922.28	388
2923.13	356
2923.98	368
2924.82	362
2925.67	340
2926.52	352
2927.37	360
2928.22	362
2929.06	366
2929.91	364
2930.76	312
2931.61	336
2932.45	348
2933.3	342
2934.15	346
2934.99	344
2935.84	340
2936.69	334
2937.53	356
2938.38	344
2939.23	338
2940.07	340
2940.92	354
2941.76	342
2942.61	316
2943.46	314
2944.3	336
2945.15	326
2945.99	336
2946.84	320
2947.68	340
2948.53	336
2949.37	312
2950.22	324
2951.06	308
2951.9	316
2952.75	326
2953.59	322
2954.44	324
2955.28	320
2956.12	328
2956.97	328
2957.81	328
2958.65	318
2959.5	322
2960.34	318
2961.18	312
2962.03	314
2962.87	314
2963.71	312
2964.56	298
2965.4	292
2966.24	318
2967.08	284
2967.92	316
2968.77	296
2969.61	334
2970.45	304
2971.29	316
2972.13	308
2972.97	308
2973.82	298
2974.66	314
2975.5	306
2976.34	306
2977.18	302
2978.02	296
2978.86	310
2979.7	282
2980.54	284
2981.38	314
2982.22	310
2983.06	304
2983.9	286
2984.74	290
2985.58	280
2986.42	306
2987.26	282
2988.1	284
2988.94	280
2989.78	274
2990.61	276
2991.45	266
2992.29	292
2993.13	272
2993.97	282
2994.81	278
2995.64	294
2996.48	298
2997.32	262
2998.16	274
2999	284
2999.83	284
