#Acq. time (s)=	10
#Accumulations=	1
#Range (cm-¹)=	200...3000
#Windows=	3
#Autofocus=	Off
#AutoExposure=	Off
#Spike filter=	Off
#Delay time (s)=	0
#Binning=	1
#Readout mode=	Signal
#DeNoise=	Off
#ICS correction=	Off
#Dark correction=	Off
#Inst. Process=	Off
#Instrument=	LabRAM HR Evol
#Detector=	Syncerity OE
#Objective=	x100_VIS
#Grating=	600 (500nm)
#ND Filter=	0.1%
#Laser=	633nm_Edge
#Hole=	100.021
#Range=	Visible
#Project=	Omar
#Sample=	03-07-23
#Site=	papal
#Title=	leaf_100x
#Remark=	
#Date=	03.07.2023 17:18
#Acquired=	03.07.2023 17:18:28
201.713	172
202.98	176
204.247	176
205.513	190
206.778	194
208.045	214
209.311	186
210.576	174
211.84	188
213.106	204
214.371	184
215.636	180
216.899	194
218.164	190
219.428	184
220.692	186
221.955	188
223.219	202
224.482	206
225.744	200
227.007	194
228.27	208
229.531	198
230.794	200
232.055	204
233.317	202
234.579	220
235.839	216
237.1	214
238.362	226
239.621	210
240.882	218
242.141	218
243.402	208
244.661	220
245.921	212
247.179	230
248.439	230
249.698	208
250.956	220
252.215	240
253.473	230
254.731	230
255.988	254
257.246	236
258.503	248
259.761	224
261.017	240
262.273	228
263.53	246
264.786	254
266.042	234
267.298	256
268.554	260
269.809	248
271.063	268
272.319	240
273.573	246
274.828	246
276.082	252
277.336	262
278.591	270
279.844	266
281.097	272
282.351	258
283.603	276
284.855	260
286.109	268
287.361	288
288.613	282
289.866	272
291.117	288
292.368	268
293.62	278
294.871	282
296.121	284
297.372	268
298.623	292
299.873	304
301.123	294
302.372	296
303.622	312
304.872	314
306.121	290
307.37	306
308.618	292
309.866	324
311.116	294
312.364	298
313.611	330
314.859	312
316.106	302
317.353	318
318.6	334
319.848	324
321.095	340
322.341	340
323.587	334
324.833	322
326.079	344
327.324	336
328.569	338
329.814	380
331.059	336
332.304	336
333.548	368
334.792	376
336.037	348
337.28	362
338.524	354
339.767	332
341.011	364
342.254	388
343.497	366
344.739	370
345.982	396
347.224	374
348.466	404
349.708	378
350.95	402
352.191	408
353.432	388
354.673	400
355.914	400
357.155	418
358.394	398
359.634	392
360.874	378
362.114	412
363.354	412
364.593	418
365.832	442
367.07	376
368.309	418
369.548	418
370.786	428
372.024	430
373.261	424
374.499	430
375.736	438
376.974	408
378.211	442
379.447	436
380.684	410
381.92	486
383.157	462
384.392	480
385.628	448
386.864	448
388.098	476
389.333	452
390.569	476
391.802	470
393.037	444
394.272	474
395.505	494
396.739	464
397.973	478
399.206	468
400.44	478
401.673	488
402.905	520
404.138	474
405.37	504
406.602	496
407.835	486
409.066	500
410.298	522
411.528	516
412.76	554
413.99	524
415.221	520
416.451	542
417.682	518
418.911	542
420.142	552
421.371	572
422.601	546
423.83	560
425.059	556
426.288	570
427.517	556
428.745	544
429.974	560
431.201	590
432.43	588
433.657	558
434.883	554
436.111	598
437.338	582
438.565	596
439.791	620
441.017	558
442.244	614
443.469	594
444.695	620
445.921	616
447.146	610
448.37	626
449.596	630
450.821	604
452.045	624
453.27	630
454.493	634
455.717	634
456.94	620
458.165	656
459.387	634
460.61	656
461.833	650
463.056	642
464.278	668
465.5	682
466.722	652
467.945	666
469.166	668
470.387	640
471.608	670
472.829	648
474.049	680
475.271	682
476.491	678
477.711	702
478.931	706
480.15	700
481.37	718
482.589	726
483.808	732
485.027	738
486.247	698
487.465	748
488.683	716
489.901	726
491.119	762
492.337	732
493.554	752
494.771	778
495.988	768
497.205	752
498.422	774
499.638	760
500.854	782
502.07	760
503.286	808
504.502	780
505.717	788
506.933	792
508.148	812
509.363	816
510.577	810
511.792	816
513.005	818
514.219	828
515.433	844
516.647	806
517.86	818
519.073	806
520.287	818
521.5	856
522.711	870
523.924	848
525.136	818
526.348	842
527.56	852
528.772	882
529.982	842
531.194	870
532.405	882
533.616	870
534.825	858
536.036	896
537.246	928
538.457	920
539.665	900
540.875	904
542.085	882
543.294	910
544.502	920
545.712	922
546.92	886
548.128	910
549.336	896
550.545	960
551.751	944
552.959	950
554.167	982
555.373	942
556.581	930
557.788	958
558.994	968
560.2	940
561.406	1022
562.612	992
563.817	984
565.023	1006
566.229	1006
567.433	1012
568.639	1024
569.843	1022
571.048	970
572.251	1044
573.456	1048
574.659	1012
575.863	1074
577.066	1096
578.27	1046
579.472	1076
580.676	1088
581.878	1088
583.081	1076
584.283	1080
585.484	1076
586.687	1038
587.888	1110
589.09	1088
590.291	1152
591.493	1110
592.693	1180
593.893	1136
595.094	1118
596.294	1164
597.494	1160
598.694	1154
599.894	1158
601.093	1170
602.293	1164
603.491	1196
604.69	1164
605.889	1194
607.087	1200
608.285	1212
609.483	1254
610.682	1232
611.879	1176
613.076	1270
614.273	1240
615.471	1210
616.667	1282
617.864	1262
619.06	1290
620.256	1324
621.453	1284
622.648	1304
623.844	1328
625.039	1310
626.234	1378
627.429	1356
628.625	1408
629.819	1378
631.013	1378
632.208	1350
633.401	1402
634.595	1406
635.789	1456
636.982	1408
638.175	1420
639.369	1412
640.562	1464
641.755	1438
642.947	1452
644.139	1430
645.331	1504
646.523	1480
647.715	1466
648.906	1488
650.097	1492
651.288	1498
652.479	1524
653.67	1526
654.86	1522
656.051	1562
657.241	1522
658.429	1628
659.619	1564
660.808	1604
661.998	1570
663.187	1600
664.376	1632
665.565	1646
666.753	1622
667.942	1636
669.13	1690
670.317	1674
671.505	1676
672.692	1628
673.88	1698
675.067	1686
676.254	1688
677.44	1702
678.627	1706
679.813	1774
681	1748
682.184	1750
683.37	1752
684.556	1782
685.742	1744
686.926	1780
688.111	1804
689.296	1780
690.481	1796
691.664	1754
692.849	1848
694.033	1880
695.216	1838
696.4	1870
697.584	1862
698.766	1900
699.949	1886
701.133	1862
702.314	1936
703.497	1954
704.678	2010
705.861	1974
707.043	2012
708.224	2002
709.406	1986
710.586	2004
711.768	2004
712.949	2030
714.129	2098
715.31	2088
716.489	2010
717.67	2098
718.849	2080
720.029	2140
721.208	2100
722.388	2156
723.566	2124
724.746	2148
725.924	2212
727.103	2248
728.28	2226
729.458	2168
730.636	2236
731.814	2268
732.992	2350
734.168	2252
735.345	2228
736.523	2314
737.699	2328
738.876	2310
740.052	2338
741.227	2410
742.404	2376
743.579	2408
744.754	2404
745.931	2392
747.105	2464
748.28	2440
749.455	2462
750.629	2488
751.803	2508
752.977	2504
754.152	2502
755.325	2558
756.499	2514
757.672	2590
758.846	2624
760.018	2586
761.191	2640
762.363	2644
763.535	2638
764.708	2634
765.88	2636
767.052	2688
768.223	2722
769.394	2674
770.565	2770
771.737	2712
772.908	2732
774.078	2764
775.249	2814
776.419	2852
777.589	2840
778.758	2842
779.928	2856
781.097	2912
782.266	2874
783.435	2934
784.604	2916
785.773	2980
786.941	2916
788.11	2976
789.278	2972
790.446	3022
791.613	3048
792.781	3076
793.948	3100
795.115	3026
796.282	3098
797.449	3172
798.616	3090
799.782	3140
800.948	3198
802.115	3152
803.28	3272
804.446	3256
805.612	3246
806.777	3268
807.941	3362
809.106	3350
810.271	3352
811.435	3342
812.6	3418
813.764	3410
814.927	3466
816.091	3478
817.254	3520
818.418	3442
819.581	3520
820.743	3660
821.906	3570
823.069	3572
824.232	3600
825.393	3714
826.555	3716
827.717	3704
828.879	3662
830.039	3798
831.201	3772
832.362	3778
833.522	3856
834.683	3836
835.844	3936
837.003	3874
838.164	4026
839.324	3896
840.483	3968
841.643	4008
842.801	4006
843.961	4024
845.12	4112
846.278	4088
847.437	4120
848.594	4146
849.753	4210
850.91	4180
852.069	4224
853.227	4280
854.383	4344
855.541	4354
856.697	4370
857.855	4342
859.011	4388
860.168	4316
861.323	4350
862.48	4454
863.635	4498
864.79	4530
865.946	4498
867.101	4598
868.257	4676
869.411	4620
870.567	4672
871.721	4664
872.874	4654
874.029	4732
875.183	4694
876.336	4778
877.49	4818
878.643	4818
879.796	4916
880.95	4866
882.102	4870
883.254	4886
884.407	4908
885.559	4976
886.711	5016
887.862	5002
889.015	5060
890.166	5116
891.317	5014
892.467	5154
893.619	5160
894.77	5184
895.92	5166
897.07	5104
898.221	5170
899.371	5236
900.52	5284
901.669	5230
902.819	5326
903.968	5364
905.116	5388
906.266	5468
907.415	5436
908.563	5494
909.711	5484
910.859	5524
912.007	5522
913.154	5614
914.301	5636
915.449	5610
916.596	5686
917.742	5736
918.889	5794
920.036	5772
921.183	5858
922.329	5864
923.475	5854
924.621	5926
925.765	5950
926.911	5958
928.056	6002
929.201	6034
930.346	6018
931.49	6140
932.635	6008
933.779	6180
934.924	6262
936.068	6224
937.211	6318
938.355	6300
939.498	6338
940.64	6404
941.784	6408
942.926	6432
944.069	6488
945.212	6512
946.354	6538
947.495	6686
948.637	6676
949.779	6628
950.921	6826
952.062	6732
953.202	6874
954.344	6760
955.484	6864
956.625	6904
957.765	6920
958.905	6952
960.045	7076
961.184	7030
962.324	7058
963.464	7080
964.604	7110
965.742	7084
966.881	7292
968.02	7262
969.158	7352
970.296	7428
971.434	7472
972.572	7278
973.71	7464
974.847	7468
975.985	7510
977.121	7648
978.259	7658
979.396	7664
980.532	7672
981.669	7796
982.804	7744
983.941	7756
985.076	7876
986.212	7864
987.347	7792
988.483	7936
989.617	7932
990.753	7890
991.887	8098
993.022	8080
994.156	8128
995.29	8108
996.424	8224
997.558	8262
998.692	8196
999.825	8390
1000.96	8372
1002.09	8374
1003.22	8332
1004.36	8378
1005.49	8634
1006.62	8486
1007.75	8662
1008.89	8630
1010.02	8718
1011.15	8688
1012.28	8756
1013.41	8918
1014.54	8880
1015.67	8884
1016.8	9146
1017.93	8932
1019.07	8970
1020.19	9078
1021.32	9102
1022.45	9302
1023.58	9206
1024.71	9190
1025.84	9320
1026.97	9334
1028.1	9406
1029.23	9388
1030.36	9476
1031.49	9596
1032.61	9564
1033.74	9716
1034.87	9764
1036	9912
1037.12	9862
1038.25	9982
1039.38	9830
1040.5	9904
1041.63	9972
1042.76	10106
1043.88	10114
1045.01	10152
1046.14	10238
1047.26	10278
1048.39	10370
1049.51	10322
1050.64	10396
1051.76	10444
1052.89	10634
1054.01	10740
1055.14	10596
1056.26	10676
1057.38	10762
1058.51	10734
1059.63	10794
1060.75	10756
1061.88	10822
1063	10888
1064.12	10890
1065.25	11016
1066.37	11072
1067.49	11124
1068.61	11000
1069.73	11180
1070.86	11246
1071.98	11264
1073.1	11392
1074.22	11430
1075.34	11408
1076.46	11560
1077.58	11458
1078.7	11530
1079.82	11496
1080.94	11572
1082.06	11724
1083.18	11680
1084.3	11668
1085.42	11802
1086.54	11912
1087.66	11854
1088.78	11904
1089.9	11908
1091.02	11976
1092.14	11968
1093.25	11974
1094.37	12068
1095.49	12220
1096.61	12170
1097.72	12212
1098.84	12290
1099.96	12130
1101.08	12268
1102.19	12356
1103.31	12236
1104.43	12230
1105.54	12390
1106.66	12428
1107.77	12518
1108.89	12502
1110	12542
1111.12	12582
1112.23	12728
1113.35	12816
1114.46	12552
1115.58	12640
1116.69	12734
1117.81	12720
1118.92	12824
1120.03	12848
1121.15	12952
1122.26	13010
1123.37	13020
1124.49	12962
1125.6	13124
1126.71	13168
1127.83	13086
1128.94	13204
1130.05	13260
1131.16	13354
1132.27	13296
1133.39	13430
1134.5	13484
1135.61	13310
1136.72	13740
1137.83	13642
1138.94	13398
1140.05	13614
1141.16	13670
1142.27	13680
1143.38	13844
1144.49	13832
1145.6	13770
1146.71	13862
1147.82	13936
1148.93	13954
1150.04	14020
1151.15	13946
1152.26	14028
1153.36	14178
1154.47	14100
1155.58	14074
1156.69	14050
1157.8	14136
1158.9	14184
1160.01	14368
1161.12	14104
1162.22	14532
1163.33	14444
1164.44	14394
1165.54	14366
1166.65	14278
1167.76	14508
1168.86	14512
1169.97	14454
1171.07	14364
1172.18	14548
1173.28	14428
1174.39	14530
1175.49	14496
1176.6	14550
1177.7	14474
1178.81	14538
1179.91	14616
1181.02	14474
1182.12	14392
1183.22	14468
1184.33	14556
1185.43	14532
1186.53	14450
1187.63	14474
1188.74	14534
1189.84	14594
1190.94	14504
1192.04	14394
1193.15	14568
1194.25	14418
1195.35	14496
1196.45	14416
1197.55	14512
1198.65	14378
1199.75	14286
1200.85	14368
1201.95	14470
1203.05	14250
1204.16	14440
1205.25	14460
1206.35	14198
1207.45	14252
1208.55	14328
1209.65	14320
1210.75	14262
1211.85	14228
1212.95	14240
1214.05	14274
1215.15	14134
1216.24	14238
1217.34	13982
1218.44	14278
1219.54	14134
1220.64	14020
1221.73	14030
1222.83	14088
1223.93	13896
1225.02	13988
1226.12	13804
1227.22	14004
1228.31	13932
1229.41	13880
1230.5	13788
1231.6	13940
1232.7	13824
1233.79	13828
1234.89	13732
1235.98	13700
1237.08	13734
1238.17	13698
1239.26	13528
1240.36	13484
1241.45	13560
1242.55	13690
1243.64	13544
1244.73	13566
1245.83	13546
1246.92	13474
1248.01	13456
1249.11	13366
1250.2	13428
1251.29	13256
1252.38	13294
1253.48	13206
1254.57	13368
1255.66	13336
1256.75	13222
1257.84	13140
1258.93	13136
1260.03	13044
1261.12	13088
1262.21	12990
1263.3	13040
1264.39	13120
1265.48	12982
1266.57	13000
1267.66	12806
1268.75	12826
1269.84	12798
1270.93	12712
1272.02	12626
1273.11	12700
1274.19	12784
1275.28	12638
1276.37	12696
1277.46	12696
1278.55	12568
1279.64	12556
1280.72	12388
1281.81	12514
1282.9	12462
1283.98	12470.6
1285.07	12322.5
1286.16	12335.6
1287.25	12118.2
1288.33	12107.1
1289.42	12147.7
1290.5	12036.5
1291.59	11912.6
1292.68	11909.4
1293.76	11998.4
1294.85	11791.4
1295.93	11529.3
1297.02	11623.5
1298.1	11586.9
1299.19	11526.2
1300.27	11576.9
1301.36	11365.1
1302.44	11311.9
1303.53	11308
1304.61	11227
1305.69	11196.1
1306.78	11095.6
1307.86	11083.1
1308.94	10973.4
1310.03	10945
1311.11	10836.8
1312.19	10833.5
1313.27	10715
1314.36	10701.2
1315.44	10581.8
1316.52	10541.7
1317.6	10566.3
1318.68	10451.5
1319.77	10455.5
1320.85	10316.6
1321.93	10310.9
1323.01	10168.8
1324.09	10148.1
1325.17	10050.6
1326.25	9985.14
1327.33	10058.6
1328.41	9949.26
1329.49	9873.69
1330.57	9785.31
1331.65	9736.27
1332.73	9738.08
1333.81	9554.52
1334.89	9564
1335.97	9608.24
1337.04	9504.32
1338.12	9404.65
1339.2	9430.08
1340.28	9264.92
1341.36	9276.18
1342.44	9175.09
1343.51	9105.41
1344.59	9143.01
1345.67	9036.96
1346.75	8960.33
1347.82	9026.54
1348.9	8958.61
1349.98	8898.2
1351.05	8815.57
1352.13	8791.53
1353.2	8621.54
1354.28	8714.39
1355.36	8540.37
1356.43	8525.56
1357.51	8539.02
1358.58	8397.27
1359.66	8514.89
1360.73	8404.19
1361.81	8319.57
1362.88	8287.34
1363.96	8226.1
1365.03	8239.33
1366.1	8269.07
1367.18	8130.32
1368.25	8062.53
1369.33	8079.84
1370.4	7940.57
1371.47	7876.01
1372.54	7936.13
1373.62	7856.81
1374.69	7761.28
1375.76	7747.83
1376.83	7717.21
1377.91	7685.8
1378.98	7602.05
1380.05	7557.92
1381.12	7570.78
1382.19	7581.4
1383.26	7499.67
1384.34	7458.57
1385.41	7357.21
1386.48	7357.9
1387.55	7276.55
1388.62	7222.1
1389.69	7213.15
1390.76	7176.98
1391.83	7209.51
1392.9	7127.95
1393.02	7112
1394.1	7070
1395.17	6948
1396.25	7076
1397.32	6960
1398.4	6998
1399.47	7002
1400.55	6910
1401.62	6956
1402.69	6892
1403.77	6922
1404.84	6790
1405.91	6764
1406.99	6780
1408.06	6756
1409.13	6684
1410.2	6708
1411.27	6738
1412.35	6726
1413.42	6624
1414.49	6606
1415.56	6488
1416.63	6606
1417.7	6512
1418.78	6408
1419.85	6524
1420.92	6484
1421.99	6424
1423.06	6354
1424.13	6380
1425.2	6404
1426.27	6398
1427.34	6224
1428.41	6360
1429.48	6266
1430.55	6300
1431.61	6190
1432.68	6216
1433.75	6200
1434.82	6172
1435.89	6134
1436.96	6092
1438.02	6154
1439.09	6086
1440.16	6138
1441.23	5956
1442.3	5998
1443.36	6102
1444.43	6158
1445.5	5946
1446.56	6008
1447.63	5888
1448.7	5986
1449.76	5882
1450.83	5874
1451.89	5764
1452.96	5848
1454.02	5850
1455.09	5846
1456.15	5808
1457.22	5722
1458.28	5762
1459.35	5712
1460.41	5830
1461.48	5672
1462.54	5716
1463.61	5680
1464.67	5630
1465.73	5574
1466.8	5610
1467.86	5602
1468.92	5662
1469.98	5600
1471.05	5396
1472.11	5514
1473.17	5508
1474.24	5506
1475.3	5542
1476.36	5468
1477.42	5536
1478.48	5558
1479.54	5508
1480.6	5430
1481.67	5406
1482.73	5446
1483.79	5448
1484.85	5374
1485.91	5300
1486.97	5366
1488.03	5424
1489.09	5346
1490.15	5240
1491.21	5310
1492.27	5230
1493.33	5304
1494.38	5226
1495.44	5268
1496.5	5228
1497.56	5258
1498.62	5256
1499.68	5236
1500.74	5138
1501.79	5150
1502.85	5162
1503.91	5202
1504.97	5106
1506.02	5134
1507.08	5074
1508.14	5006
1509.2	5006
1510.25	5012
1511.31	5010
1512.36	5042
1513.42	5038
1514.48	4994
1515.53	4986
1516.59	4836
1517.64	4992
1518.7	4926
1519.75	4908
1520.81	4856
1521.86	4828
1522.92	4810
1523.97	4806
1525.02	4866
1526.08	4858
1527.13	4870
1528.19	4724
1529.24	4824
1530.29	4750
1531.35	4778
1532.4	4732
1533.45	4752
1534.51	4734
1535.56	4628
1536.61	4688
1537.66	4668
1538.72	4592
1539.77	4616
1540.82	4682
1541.87	4618
1542.92	4644
1543.97	4546
1545.02	4678
1546.08	4604
1547.13	4556
1548.18	4532
1549.23	4536
1550.28	4520
1551.33	4390
1552.38	4444
1553.43	4552
1554.48	4448
1555.53	4464
1556.57	4412
1557.62	4440
1558.67	4332
1559.72	4328
1560.77	4388
1561.82	4312
1562.87	4346
1563.92	4316
1564.96	4372
1566.01	4240
1567.06	4318
1568.11	4392
1569.15	4326
1570.2	4280
1571.25	4298
1572.29	4274
1573.34	4376
1574.39	4226
1575.43	4352
1576.48	4238
1577.53	4276
1578.57	4246
1579.62	4246
1580.66	4206
1581.71	4268
1582.75	4248
1583.8	4280
1584.84	4172
1585.89	4190
1586.93	4152
1587.98	4188
1589.02	4234
1590.06	4146
1591.11	4186
1592.15	4132
1593.2	4150
1594.24	4148
1595.28	4152
1596.33	4072
1597.37	4076
1598.41	4094
1599.45	4120
1600.5	4056
1601.54	4122
1602.58	4112
1603.62	4110
1604.66	4068
1605.7	4100
1606.75	4072
1607.79	4044
1608.83	4022
1609.87	3946
1610.91	4026
1611.95	4024
1612.99	4038
1614.03	4060
1615.07	4042
1616.11	4020
1617.15	4016
1618.19	4012
1619.23	3968
1620.27	3966
1621.31	3974
1622.35	3850
1623.39	3964
1624.43	3898
1625.46	3950
1626.5	3864
1627.54	3970
1628.58	3972
1629.62	3914
1630.65	3904
1631.69	3936
1632.73	3962
1633.77	3996
1634.8	3846
1635.84	3876
1636.88	3826
1637.91	3930
1638.95	3836
1639.99	3822
1641.02	3834
1642.06	3872
1643.09	3874
1644.13	3824
1645.16	3850
1646.2	3852
1647.23	3894
1648.27	3860
1649.3	3848
1650.34	3804
1651.37	3772
1652.41	3760
1653.44	3816
1654.47	3754
1655.51	3770
1656.54	3778
1657.57	3722
1658.61	3778
1659.64	3744
1660.67	3742
1661.71	3794
1662.74	3722
1663.77	3756
1664.81	3768
1665.84	3720
1666.87	3808
1667.9	3644
1668.93	3626
1669.96	3668
1671	3672
1672.03	3708
1673.06	3660
1674.09	3646
1675.12	3612
1676.15	3586
1677.18	3620
1678.21	3732
1679.24	3730
1680.27	3656
1681.3	3724
1682.33	3658
1683.36	3538
1684.39	3614
1685.42	3650
1686.45	3642
1687.47	3582
1688.5	3672
1689.53	3630
1690.56	3580
1691.59	3558
1692.62	3562
1693.64	3538
1694.67	3548
1695.7	3564
1696.73	3600
1697.75	3548
1698.78	3602
1699.81	3530
1700.83	3536
1701.86	3526
1702.89	3558
1703.91	3522
1704.94	3618
1705.97	3518
1706.99	3458
1708.02	3520
1709.04	3472
1710.07	3462
1711.09	3508
1712.12	3428
1713.14	3472
1714.17	3488
1715.19	3506
1716.22	3514
1717.24	3432
1718.26	3518
1719.29	3514
1720.31	3522
1721.33	3472
1722.36	3454
1723.38	3464
1724.4	3438
1725.43	3420
1726.45	3406
1727.47	3422
1728.49	3334
1729.52	3454
1730.54	3420
1731.56	3500
1732.58	3450
1733.6	3492
1734.63	3436
1735.65	3454
1736.67	3380
1737.69	3420
1738.71	3432
1739.73	3396
1740.75	3414
1741.77	3406
1742.79	3376
1743.81	3430
1744.83	3318
1745.85	3384
1746.87	3388
1747.89	3434
1748.91	3452
1749.93	3392
1750.95	3390
1751.97	3352
1752.98	3428
1754	3396
1755.02	3394
1756.04	3416
1757.06	3308
1758.07	3354
1759.09	3324
1760.11	3402
1761.13	3422
1762.14	3390
1763.16	3378
1764.18	3370
1765.19	3424
1766.21	3400
1767.23	3356
1768.24	3268
1769.26	3388
1770.28	3346
1771.29	3314
1772.31	3492
1773.32	3386
1774.34	3342
1775.35	3408
1776.37	3380
1777.38	3344
1778.4	3418
1779.41	3350
1780.43	3308
1781.44	3384
1782.45	3360
1783.47	3330
1784.48	3324
1785.49	3356
1786.51	3422
1787.52	3356
1788.53	3302
1789.55	3318
1790.56	3402
1791.57	3348
1792.58	3388
1793.6	3304
1794.61	3390
1795.62	3310
1796.63	3272
1797.64	3290
1798.66	3344
1799.67	3362
1800.68	3330
1801.69	3364
1802.7	3336
1803.71	3374
1804.72	3332
1805.73	3278
1806.74	3302
1807.75	3268
1808.76	3334
1809.77	3342
1810.78	3326
1811.79	3286
1812.8	3222
1813.81	3276
1814.82	3238
1815.83	3362
1816.84	3302
1817.84	3290
1818.85	3324
1819.86	3284
1820.87	3348
1821.88	3282
1822.88	3312
1823.89	3286
1824.9	3286
1825.91	3220
1826.91	3324
1827.92	3370
1828.93	3280
1829.93	3304
1830.94	3212
1831.95	3270
1832.95	3288
1833.96	3328
1834.97	3234
1835.97	3252
1836.98	3258
1837.98	3224
1838.99	3248
1839.99	3240
1841	3236
1842	3184
1843.01	3192
1844.01	3260
1845.02	3250
1846.02	3264
1847.02	3248
1848.03	3214
1849.03	3244
1850.03	3236
1851.04	3250
1852.04	3234
1853.04	3182
1854.05	3238
1855.05	3192
1856.05	3240
1857.05	3226
1858.06	3230
1859.06	3206
1860.06	3212
1861.06	3188
1862.06	3130
1863.07	3216
1864.07	3150
1865.07	3244
1866.07	3136
1867.07	3140
1868.07	3254
1869.07	3210
1870.07	3202
1871.07	3144
1872.07	3154
1873.07	3200
1874.07	3220
1875.07	3190
1876.07	3188
1877.07	3170
1878.07	3154
1879.07	3180
1880.07	3226
1881.07	3210
1882.07	3198
1883.06	3228
1884.06	3154
1885.06	3160
1886.06	3190
1887.06	3198
1888.05	3186
1889.05	3118
1890.05	3092
1891.05	3212
1892.04	3144
1893.04	3192
1894.04	3120
1895.03	3200
1896.03	3110
1897.03	3160
1898.02	3146
1899.02	3196
1900.01	3116
1901.01	3216
1902	3190
1903	3126
1903.99	3182
1904.99	3110
1905.98	3218
1906.98	3136
1907.97	3224
1908.97	3148
1909.96	3164
1910.96	3096
1911.95	3162
1912.94	3172
1913.94	3104
1914.93	3138
1915.93	3164
1916.92	3140
1917.91	3128
1918.9	3156
1919.9	3100
1920.89	3170
1921.88	3198
1922.87	3126
1923.87	3160
1924.86	3152
1925.85	3138
1926.84	3134
1927.83	3098
1928.82	3122
1929.82	3104
1930.81	3120
1931.8	3184
1932.79	3114
1933.78	3152
1934.77	3116
1935.76	3116
1936.75	3132
1937.74	3126
1938.73	3066
1939.72	3132
1940.71	3144
1941.7	3092
1942.69	3036
1943.68	3144
1944.67	3182
1945.65	3150
1946.64	3102
1947.63	3140
1948.62	3080
1949.61	3160
1950.6	3104
1951.58	3108
1952.57	3096
1953.56	3060
1954.55	3066
1955.53	3066
1956.52	3020
1957.51	3078
1958.5	3084
1959.48	3134
1960.47	3072
1961.45	3098
1962.44	3036
1963.43	3070
1964.41	3102
1965.4	3062
1966.38	3000
1967.37	3074
1968.35	3056
1969.34	3090
1970.32	3020
1971.31	2988
1972.29	3022
1973.28	3056
1974.26	3066
1975.25	3082
1976.23	3006
1977.22	3086
1978.2	3002
1979.18	3014
1980.17	3030
1981.15	2970
1982.13	3080
1983.12	3014
1984.1	3004
1985.08	2986
1986.06	3012
1987.05	2992
1988.03	3126
1989.01	3078
1989.99	3026
1990.97	2994
1991.96	2976
1992.94	3062
1993.92	2978
1994.9	3092
1995.88	3032
1996.86	3020
1997.84	3074
1998.82	3018
1999.8	3006
2000.78	2986
2001.76	3078
2002.74	2986
2003.72	2962
2004.7	2968
2005.68	3012
2006.66	3012
2007.64	3040
2008.62	3026
2009.6	3004
2010.58	3006
2011.56	3026
2012.54	3086
2013.51	3008
2014.49	2974
2015.47	2978
2016.45	3018
2017.43	2958
2018.4	2972
2019.38	3026
2020.36	3014
2021.34	3070
2022.31	2978
2023.29	3056
2024.27	2932
2025.24	2982
2026.22	3008
2027.2	3032
2028.17	3013
2029.15	2994
2030.12	2980
2031.1	2968
2032.07	2962
2033.05	2948
2034.03	2966
2035	2936
2035.98	2976
2036.95	2954
2037.93	2934
2038.9	2942
2039.87	2962
2040.85	2998
2041.82	2942
2042.8	2972
2043.77	2970
2044.74	2900
2045.72	2984
2046.69	3010
2047.66	2932
2048.64	2930
2049.61	2938
2050.58	2906
2051.55	2896
2052.53	2892
2053.5	2876
2054.47	2902
2055.44	2956
2056.41	2970
2057.39	2946
2058.36	2976
2059.33	2872
2060.3	2938
2061.27	2832
2062.24	2956
2063.21	3006
2064.18	2938
2065.15	2956
2066.12	2944
2067.09	2940
2068.06	2874
2069.03	2888
2070	2924
2070.97	2956
2071.94	2966
2072.91	2936
2073.88	2920
2074.85	2922
2075.82	2978
2076.79	2802
2077.76	2978
2078.73	2912
2079.69	2832
2080.66	2920
2081.63	2888
2082.6	2862
2083.56	2846
2084.53	2858
2085.5	2924
2086.47	2878
2087.43	2838
2088.4	2954
2089.37	2890
2090.33	2862
2091.3	2870
2092.27	2906
2093.23	2892
2094.2	2874
2095.17	2940
2096.13	2840
2097.1	2826
2098.06	2920
2099.03	2894
2099.99	2892
2100.96	2926
2101.92	2812
2102.89	2884
2103.85	2854
2104.82	2908
2105.78	2920
2106.74	2874
2107.71	2886
2108.67	2876
2109.64	2896
2110.6	2834
2111.56	2894
2112.53	2924
2113.49	2834
2114.45	2872
2115.41	2908
2116.38	2874
2117.34	2912
2118.3	2822
2119.26	2928
2120.23	2882
2121.19	2872
2122.15	2886
2123.11	2896
2124.07	2934
2125.03	2868
2126	2856
2126.96	2892
2127.92	2888
2128.88	2858
2129.84	2886
2130.8	2876
2131.76	2870
2132.72	2868
2133.68	2872
2134.64	2868
2135.6	2864
2136.56	2910
2137.52	2808
2138.48	2820
2139.44	2844
2140.4	2852
2141.35	2820
2142.31	2800
2143.27	2850
2144.23	2824
2145.19	2854
2146.15	2756
2147.1	2832
2148.06	2864
2149.02	2846
2149.98	2786
2150.94	2850
2151.89	2818
2152.85	2812
2153.81	2866
2154.76	2814
2155.72	2824
2156.68	2810
2157.63	2798
2158.59	2774
2159.55	2822
2160.5	2740
2161.46	2828
2162.41	2800
2163.37	2850
2164.32	2772
2165.28	2736
2166.23	2782
2167.19	2844
2168.14	2800
2169.1	2700
2170.05	2786
2171.01	2782
2171.96	2794
2172.91	2728
2173.87	2768
2174.82	2762
2175.78	2768
2176.73	2784
2177.68	2706
2178.64	2744
2179.59	2760
2180.54	2760
2181.49	2684
2182.45	2782
2183.4	2740
2184.35	2686
2185.3	2718
2186.26	2758
2187.21	2716
2188.16	2724
2189.11	2696
2190.06	2698
2191.01	2708
2191.96	2618
2192.92	2742
2193.87	2740
2194.82	2676
2195.77	2746
2196.72	2694
2197.67	2702
2198.62	2656
2199.57	2704
2200.52	2642
2201.47	2678
2202.42	2678
2203.37	2606
2204.32	2742
2205.27	2704
2206.22	2632
2207.16	2630
2208.11	2620
2209.06	2650
2210.01	2624
2210.96	2612
2211.91	2674
2212.85	2676
2213.8	2718
2214.75	2634
2215.7	2674
2216.64	2588
2217.59	2638
2218.54	2684
2219.49	2660
2220.43	2676
2221.38	2654
2222.33	2694
2223.27	2686.82
2224.22	2629.89
2225.16	2669.26
2226.11	2715.13
2227.06	2700.18
2228	2597.37
2228.95	2623.28
2229.89	2656.13
2230.84	2636.09
2231.78	2583.6
2232.73	2613.2
2233.67	2619.55
2234.62	2626.5
2235.56	2592.88
2236.51	2607.26
2237.45	2671.26
2238.4	2586.34
2239.34	2652.81
2240.28	2605.57
2241.23	2574.45
2242.17	2609.78
2243.11	2616.27
2244.06	2621.35
2245	2556.39
2245.94	2602.07
2246.89	2573.44
2247.83	2586.83
2248.77	2593.51
2249.71	2560.34
2250.66	2554.97
2251.6	2550.22
2252.54	2552.45
2253.48	2540.97
2254.42	2560.29
2255.37	2573.75
2256.31	2557.79
2257.25	2511.39
2258.19	2562.48
2259.13	2555.73
2260.07	2503.69
2261.01	2538.17
2261.95	2507.56
2262.89	2573.53
2263.83	2538.16
2264.77	2523.31
2265.71	2488.88
2266.65	2500.75
2267.59	2460.62
2268.53	2506.08
2269.47	2478.36
2270.41	2499.58
2271.35	2479.57
2272.29	2522.13
2273.23	2486.42
2274.17	2466.6
2275.1	2462.71
2276.04	2464.32
2276.98	2462.94
2277.92	2435.09
2278.86	2449.03
2279.8	2449.77
2280.73	2463.3
2281.67	2477.27
2282.61	2388.87
2283.55	2428.34
2284.48	2443.08
2285.42	2415.79
2286.36	2425.65
2287.29	2452.46
2288.23	2382.8
2289.17	2404.51
2290.1	2416.49
2291.04	2384.5
2291.98	2393.17
2292.91	2407.8
2293.85	2389.18
2294.78	2339.69
2295.72	2344.25
2296.65	2344.76
2297.59	2334.08
2298.52	2364.11
2299.46	2374.36
2300.39	2384.71
2301.33	2377.31
2302.26	2324.61
2303.2	2306.97
2304.13	2359.34
2305.06	2359.67
2306	2338.85
2306.93	2303.51
2307.87	2334.58
2308.8	2335.76
2309.73	2288.07
2310.67	2278.68
2311.6	2307.18
2312.53	2305.96
2313.46	2294.51
2314.4	2262.94
2315.33	2283.02
2316.26	2278.36
2316.69	2244
2317.62	2290
2318.56	2244
2319.5	2254
2320.43	2256
2321.37	2280
2322.31	2256
2323.24	2216
2324.18	2256
2325.12	2244
2326.05	2244
2326.99	2258
2327.92	2254
2328.86	2186
2329.79	2250
2330.73	2198
2331.66	2174
2332.6	2270
2333.53	2246
2334.47	2218
2335.4	2232
2336.34	2224
2337.27	2260
2338.2	2224
2339.14	2188
2340.07	2186
2341.01	2294
2341.94	2256
2342.87	2234
2343.81	2232
2344.74	2170
2345.67	2122
2346.6	2178
2347.54	2202
2348.47	2186
2349.4	2158
2350.33	2156
2351.27	2200
2352.2	2112
2353.13	2178
2354.06	2160
2354.99	2094
2355.93	2150
2356.86	2108
2357.79	2158
2358.72	2158
2359.65	2130
2360.58	2106
2361.51	2184
2362.44	2162
2363.37	2176
2364.3	2082
2365.23	2118
2366.16	2138
2367.09	2144
2368.02	2134
2368.95	2078
2369.88	2126
2370.81	2148
2371.74	2098
2372.67	2160
2373.6	2090
2374.52	2078
2375.45	2102
2376.38	2066
2377.31	2068
2378.24	2100
2379.17	2070
2380.09	2062
2381.02	2052
2381.95	2098
2382.88	2070
2383.8	2018
2384.73	2016
2385.66	2014
2386.58	2058
2387.51	1998
2388.44	2084
2389.36	2018
2390.29	2004
2391.22	2058
2392.14	2002
2393.07	1992
2393.99	2020
2394.92	1968
2395.85	1956
2396.77	2046
2397.7	1996
2398.62	1970
2399.55	2012
2400.47	2002
2401.4	2036
2402.32	1962
2403.25	1988
2404.17	1970
2405.09	1896
2406.02	1954
2406.94	1956
2407.86	1990
2408.79	1958
2409.71	1932
2410.63	1918
2411.56	1940
2412.48	1946
2413.4	2008
2414.33	1884
2415.25	1934
2416.17	1910
2417.09	1928
2418.02	1896
2418.94	1922
2419.86	1868
2420.78	1902
2421.7	1910
2422.63	1890
2423.55	1890
2424.47	1904
2425.39	1854
2426.31	1860
2427.23	1898
2428.15	1886
2429.07	1858
2429.99	1824
2430.91	1862
2431.83	1810
2432.75	1854
2433.67	1832
2434.59	1882
2435.51	1882
2436.43	1832
2437.35	1840
2438.27	1810
2439.19	1846
2440.11	1848
2441.03	1848
2441.95	1858
2442.86	1788
2443.78	1826
2444.7	1812
2445.62	1816
2446.54	1782
2447.46	1768
2448.37	1796
2449.29	1758
2450.21	1824
2451.13	1776
2452.04	1832
2452.96	1790
2453.88	1796
2454.79	1778
2455.71	1750
2456.63	1776
2457.54	1726
2458.46	1756
2459.38	1772
2460.29	1742
2461.21	1734
2462.12	1682
2463.04	1742
2463.95	1712
2464.87	1716
2465.78	1738
2466.7	1714
2467.61	1720
2468.53	1712
2469.44	1680
2470.36	1694
2471.27	1670
2472.19	1724
2473.1	1698
2474.01	1720
2474.93	1716
2475.84	1668
2476.76	1624
2477.67	1650
2478.58	1652
2479.5	1680
2480.41	1640
2481.32	1656
2482.23	1654
2483.15	1600
2484.06	1666
2484.97	1658
2485.88	1608
2486.8	1662
2487.71	1608
2488.62	1602
2489.53	1652
2490.44	1650
2491.35	1602
2492.26	1594
2493.18	1594
2494.09	1564
2495	1600
2495.91	1620
2496.82	1578
2497.73	1606
2498.64	1618
2499.55	1558
2500.46	1570
2501.37	1550
2502.28	1552
2503.19	1554
2504.1	1546
2505.01	1562
2505.92	1590
2506.83	1522
2507.74	1526
2508.65	1518
2509.55	1526
2510.46	1540
2511.37	1510
2512.28	1510
2513.19	1498
2514.09	1540
2515	1496
2515.91	1486
2516.82	1464
2517.73	1470
2518.63	1532
2519.54	1488
2520.45	1456
2521.35	1492
2522.26	1442
2523.17	1468
2524.07	1460
2524.98	1458
2525.89	1488
2526.79	1522
2527.7	1424
2528.6	1436
2529.51	1438
2530.42	1430
2531.32	1464
2532.23	1400
2533.13	1408
2534.04	1432
2534.94	1392
2535.85	1466
2536.75	1466
2537.66	1412
2538.56	1380
2539.47	1420
2540.37	1354
2541.27	1402
2542.18	1396
2543.08	1392
2543.98	1380
2544.89	1390
2545.79	1396
2546.7	1382
2547.6	1378
2548.5	1362
2549.4	1400
2550.31	1364
2551.21	1344
2552.11	1368
2553.01	1358
2553.92	1318
2554.82	1362
2555.72	1306
2556.62	1362
2557.52	1330
2558.42	1308
2559.33	1336
2560.23	1364
2561.13	1322
2562.03	1322
2562.93	1330
2563.83	1330
2564.73	1274
2565.63	1316
2566.53	1318
2567.43	1308
2568.33	1288
2569.23	1326
2570.13	1260
2571.03	1296
2571.93	1272
2572.83	1278
2573.73	1314
2574.63	1310
2575.53	1288
2576.43	1264
2577.33	1284
2578.22	1298
2579.12	1284
2580.02	1268
2580.92	1280
2581.82	1278
2582.72	1264
2583.61	1250
2584.51	1230
2585.41	1236
2586.31	1236
2587.2	1198
2588.1	1252
2589	1240
2589.89	1202
2590.79	1196
2591.69	1232
2592.58	1220
2593.48	1216
2594.38	1180
2595.27	1242
2596.17	1188
2597.06	1210
2597.96	1216
2598.86	1168
2599.75	1172
2600.65	1236
2601.54	1218
2602.44	1174
2603.33	1172
2604.23	1160
2605.12	1146
2606.02	1178
2606.91	1214
2607.81	1190
2608.7	1132
2609.59	1140
2610.49	1162
2611.38	1140
2612.27	1152
2613.17	1118
2614.06	1156
2614.95	1116
2615.85	1112
2616.74	1114
2617.63	1154
2618.53	1128
2619.42	1144
2620.31	1110
2621.2	1132
2622.1	1148
2622.99	1132
2623.88	1092
2624.77	1120
2625.66	1098
2626.55	1076
2627.45	1086
2628.34	1030
2629.23	1108
2630.12	1092
2631.01	1116
2631.9	1080
2632.79	1058
2633.68	1060
2634.57	1082
2635.46	1056
2636.35	1052
2637.24	1106
2638.13	1094
2639.02	1078
2639.91	1030
2640.8	1046
2641.69	1040
2642.58	1062
2643.47	982
2644.36	1034
2645.25	1032
2646.14	998
2647.02	1048
2647.91	1052
2648.8	996
2649.69	1026
2650.58	1026
2651.46	1034
2652.35	1012
2653.24	988
2654.13	1006
2655.01	978
2655.9	980
2656.79	1036
2657.68	982
2658.56	990
2659.45	964
2660.34	1018
2661.22	994
2662.11	978
2662.99	964
2663.88	972
2664.77	940
2665.65	988
2666.54	974
2667.42	940
2668.31	974
2669.2	944
2670.08	980
2670.96	950
2671.85	974
2672.73	960
2673.62	990
2674.5	948
2675.39	924
2676.27	932
2677.16	946
2678.04	922
2678.93	938
2679.81	978
2680.69	930
2681.58	884
2682.46	910
2683.34	914
2684.23	922
2685.11	924
2685.99	908
2686.87	910
2687.76	934
2688.64	884
2689.52	910
2690.4	906
2691.28	894
2692.17	874
2693.05	896
2693.93	896
2694.81	892
2695.69	898
2696.57	872
2697.46	876
2698.34	878
2699.22	878
2700.1	874
2700.98	916
2701.86	886
2702.74	892
2703.62	842
2704.5	880
2705.38	852
2706.26	828
2707.14	822
2708.02	882
2708.9	844
2709.78	872
2710.66	842
2711.54	832
2712.42	842
2713.3	816
2714.17	872
2715.05	822
2715.93	824
2716.81	826
2717.69	818
2718.57	796
2719.44	764
2720.32	806
2721.2	834
2722.08	804
2722.95	816
2723.83	762
2724.71	804
2725.59	838
2726.46	788
2727.34	796
2728.22	812
2729.09	820
2729.97	798
2730.85	764
2731.72	806
2732.6	778
2733.47	764
2734.35	790
2735.23	778
2736.1	756
2736.98	794
2737.85	748
2738.73	744
2739.6	722
2740.48	728
2741.35	760
2742.23	726
2743.1	748
2743.98	726
2744.85	784
2745.72	744
2746.6	730
2747.47	732
2748.35	706
2749.22	744
2750.09	728
2750.97	738
2751.84	732
2752.71	722
2753.59	704
2754.46	720
2755.33	706
2756.2	714
2757.08	710
2757.95	724
2758.82	724
2759.69	724
2760.57	674
2761.44	686
2762.31	728
2763.18	682
2764.05	706
2764.92	698
2765.79	700
2766.67	686
2767.54	702
2768.41	688
2769.28	704
2770.15	684
2771.02	690
2771.89	694
2772.76	658
2773.63	706
2774.5	672
2775.37	670
2776.24	630
2777.11	662
2777.98	658
2778.85	662
2779.72	662
2780.59	660
2781.46	630
2782.32	638
2783.19	644
2784.06	650
2784.93	658
2785.8	656
2786.67	654
2787.53	628
2788.4	648
2789.27	630
2790.14	670
2791.01	614
2791.87	650
2792.74	616
2793.61	632
2794.47	616
2795.34	632
2796.21	610
2797.07	634
2797.94	616
2798.81	606
2799.67	644
2800.54	598
2801.41	610
2802.27	596
2803.14	602
2804	588
2804.87	596
2805.74	632
2806.6	574
2807.47	616
2808.33	590
2809.2	602
2810.06	566
2810.93	576
2811.79	610
2812.65	596
2813.52	580
2814.38	584
2815.25	576
2816.11	578
2816.98	564
2817.84	568
2818.7	568
2819.56	556
2820.43	552
2821.29	566
2822.16	562
2823.02	564
2823.88	556
2824.74	554
2825.61	554
2826.47	528
2827.33	528
2828.19	498
2829.05	558
2829.92	568
2830.78	522
2831.64	542
2832.5	564
2833.36	556
2834.23	532
2835.09	540
2835.95	540
2836.81	542
2837.67	492
2838.53	542
2839.39	508
2840.25	522
2841.11	532
2841.97	540
2842.83	502
2843.69	536
2844.55	516
2845.41	480
2846.27	508
2847.13	520
2847.99	514
2848.85	502
2849.71	496
2850.57	488
2851.43	488
2852.28	506
2853.14	484
2854	502
2854.86	478
2855.72	510
2856.58	452
2857.43	480
2858.29	484
2859.15	492
2860.01	458
2860.86	486
2861.72	462
2862.58	446
2863.44	462
2864.29	480
2865.15	468
2866.01	466
2866.86	472
2867.72	476
2868.58	482
2869.43	436
2870.29	478
2871.14	464
2872	468
2872.86	462
2873.71	463
2874.57	464
2875.42	468
2876.28	448
2877.13	418
2877.99	468
2878.84	446
2879.7	438
2880.55	444
2881.41	424
2882.26	424
2883.11	438
2883.97	442
2884.82	428
2885.68	440
2886.53	430
2887.39	434
2888.24	448
2889.09	470
2889.94	432
2890.8	422
2891.65	404
2892.5	434
2893.36	418
2894.21	438
2895.06	408
2895.91	430
2896.77	430
2897.62	404
2898.47	404
2899.32	398
2900.17	426
2901.03	416
2901.88	406
2902.73	408
2903.58	412
2904.43	432
2905.28	412
2906.13	416
2906.98	402
2907.84	384
2908.69	412
2909.54	386
2910.39	394
2911.24	402
2912.09	414
2912.94	408
2913.79	388
2914.64	392
2915.49	392
2916.34	384
2917.19	392
2918.03	402
2918.88	390
2919.73	380
2920.58	400
2921.43	384
2922.28	364
2923.13	368
2923.98	396
2924.82	394
2925.67	382
2926.52	368
2927.37	372
2928.22	386
2929.06	390
2929.91	386
2930.76	336
2931.61	386
2932.45	360
2933.3	378
2934.15	342
2934.99	376
2935.84	356
2936.69	364
2937.53	362
2938.38	386
2939.23	364
2940.07	358
2940.92	366
2941.76	346
2942.61	372
2943.46	352
2944.3	346
2945.15	358
2945.99	372
2946.84	364
2947.68	370
2948.53	334
2949.37	348
2950.22	356
2951.06	340
2951.9	356
2952.75	342
2953.59	364
2954.44	356
2955.28	342
2956.12	338
2956.97	338
2957.81	350
2958.65	346
2959.5	340
2960.34	366
2961.18	348
2962.03	320
2962.87	336
2963.71	338
2964.56	350
2965.4	350
2966.24	316
2967.08	338
2967.92	336
2968.77	332
2969.61	328
2970.45	350
2971.29	306
2972.13	316
2972.97	320
2973.82	320
2974.66	320
2975.5	312
2976.34	318
2977.18	326
2978.02	332
2978.86	318
2979.7	330
2980.54	294
2981.38	304
2982.22	332
2983.06	318
2983.9	318
2984.74	316
2985.58	324
2986.42	304
2987.26	314
2988.1	304
2988.94	312
2989.78	306
2990.61	306
2991.45	306
2992.29	292
2993.13	314
2993.97	308
2994.81	292
2995.64	302
2996.48	316
2997.32	286
2998.16	330
2999	298
2999.83	310
