#Acq. time (s)=	10
#Accumulations=	1
#Range (cm-¹)=	200...3000
#Windows=	3
#Autofocus=	Off
#AutoExposure=	Off
#Spike filter=	Off
#Delay time (s)=	0
#Binning=	1
#Readout mode=	Signal
#DeNoise=	Off
#ICS correction=	Off
#Dark correction=	Off
#Inst. Process=	Off
#Instrument=	LabRAM HR Evol
#Detector=	Syncerity OE
#Objective=	x100_VIS
#Grating=	600 (500nm)
#ND Filter=	0.01%
#Laser=	633nm_Edge
#Hole=	74.97
#Range=	Visible
#Project=	Omar
#Sample=	03-07-23
#Site=	papal
#Title=	leaf
#Remark=	
#Date=	03.07.2023 17:02
#Acquired=	03.07.2023 17:02:32
201.713	94
202.98	96
204.247	94
205.513	84
206.778	92
208.045	94
209.311	104
210.576	98
211.84	100
213.106	86
214.371	106
215.636	94
216.899	102
218.164	96
219.428	90
220.692	102
221.955	106
223.219	108
224.482	114
225.744	120
227.007	90
228.27	110
229.531	106
230.794	110
232.055	104
233.317	108
234.579	120
235.839	122
237.1	100
238.362	108
239.621	112
240.882	100
242.141	112
243.402	122
244.661	124
245.921	114
247.179	114
248.439	124
249.698	122
250.956	120
252.215	116
253.473	118
254.731	108
255.988	122
257.246	108
258.503	112
259.761	120
261.017	110
262.273	126
263.53	118
264.786	132
266.042	134
267.298	134
268.554	134
269.809	136
271.063	120
272.319	114
273.573	124
274.828	134
276.082	130
277.336	130
278.591	134
279.844	142
281.097	132
282.351	138
283.603	144
284.855	146
286.109	130
287.361	138
288.613	138
289.866	142
291.117	142
292.368	142
293.62	140
294.871	136
296.121	154
297.372	144
298.623	140
299.873	158
301.123	156
302.372	148
303.622	140
304.872	160
306.121	144
307.37	158
308.618	156
309.866	166
311.116	152
312.364	162
313.611	166
314.859	148
316.106	162
317.353	158
318.6	168
319.848	164
321.095	170
322.341	182
323.587	166
324.833	158
326.079	182
327.324	152
328.569	166
329.814	162
331.059	180
332.304	172
333.548	180
334.792	170
336.037	176
337.28	162
338.524	176
339.767	174
341.011	174
342.254	178
343.497	176
344.739	170
345.982	206
347.224	188
348.466	184
349.708	188
350.95	192
352.191	206
353.432	190
354.673	202
355.914	184
357.155	194
358.394	212
359.634	194
360.874	206
362.114	192
363.354	182
364.593	218
365.832	200
367.07	204
368.309	220
369.548	196
370.786	206
372.024	202
373.261	194
374.499	214
375.736	210
376.974	222
378.211	202
379.447	218
380.684	206
381.92	216
383.157	218
384.392	208
385.628	208
386.864	206
388.098	222
389.333	210
390.569	226
391.802	226
393.037	222
394.272	240
395.505	224
396.739	222
397.973	222
399.206	220
400.44	234
401.673	236
402.905	224
404.138	248
405.37	260
406.602	246
407.835	256
409.066	256
410.298	256
411.528	242
412.76	236
413.99	248
415.221	252
416.451	254
417.682	262
418.911	242
420.142	260
421.371	268
422.601	270
423.83	266
425.059	274
426.288	278
427.517	268
428.745	258
429.974	250
431.201	268
432.43	258
433.657	278
434.883	280
436.111	294
437.338	280
438.565	266
439.791	294
441.017	284
442.244	300
443.469	286
444.695	300
445.921	276
447.146	296
448.37	302
449.596	298
450.821	290
452.045	308
453.27	300
454.493	288
455.717	314
456.94	318
458.165	298
459.387	306
460.61	302
461.833	308
463.056	298
464.278	312
465.5	312
466.722	332
467.945	292
469.166	308
470.387	324
471.608	290
472.829	346
474.049	318
475.271	308
476.491	346
477.711	330
478.931	332
480.15	340
481.37	350
482.589	338
483.808	336
485.027	330
486.247	334
487.465	330
488.683	346
489.901	358
491.119	344
492.337	352
493.554	360
494.771	368
495.988	368
497.205	344
498.422	374
499.638	370
500.854	360
502.07	360
503.286	384
504.502	344
505.717	368
506.933	354
508.148	354
509.363	386
510.577	386
511.792	386
513.005	364
514.219	358
515.433	386
516.647	366
517.86	378
519.073	366
520.287	380
521.5	380
522.711	382
523.924	384
525.136	390
526.348	390
527.56	394
528.772	408
529.982	390
531.194	404
532.405	386
533.616	396
534.825	418
536.036	406
537.246	420
538.457	426
539.665	424
540.875	424
542.085	440
543.294	422
544.502	418
545.712	446
546.92	428
548.128	450
549.336	416
550.545	434
551.751	420
552.959	458
554.167	444
555.373	468
556.581	442
557.788	438
558.994	442
560.2	468
561.406	456
562.612	464
563.817	456
565.023	456
566.229	478
567.433	494
568.639	464
569.843	450
571.048	488
572.251	512
573.456	492
574.659	484
575.863	494
577.066	470
578.27	482
579.472	496
580.676	478
581.878	478
583.081	472
584.283	496
585.484	508
586.687	502
587.888	544
589.09	548
590.291	478
591.493	538
592.693	534
593.893	512
595.094	516
596.294	540
597.494	522
598.694	546
599.894	528
601.093	556
602.293	570
603.491	550
604.69	540
605.889	560
607.087	578
608.285	566
609.483	576
610.682	566
611.879	562
613.076	566
614.273	576
615.471	554
616.667	590
617.864	590
619.06	634
620.256	590
621.453	614
622.648	576
623.844	606
625.039	640
626.234	596
627.429	616
628.625	616
629.819	636
631.013	608
632.208	640
633.401	644
634.595	666
635.789	656
636.982	624
638.175	672
639.369	646
640.562	646
641.755	668
642.947	640
644.139	690
645.331	698
646.523	706
647.715	692
648.906	720
650.097	680
651.288	698
652.479	744
653.67	678
654.86	688
656.051	710
657.241	722
658.429	704
659.619	736
660.808	734
661.998	772
663.187	712
664.376	748
665.565	756
666.753	762
667.942	784
669.13	766
670.317	774
671.505	756
672.692	778
673.88	786
675.067	770
676.254	790
677.44	798
678.627	794
679.813	810
681	790
682.184	776
683.37	830
684.556	824
685.742	826
686.926	834
688.111	870
689.296	830
690.481	850
691.664	802
692.849	888
694.033	842
695.216	890
696.4	864
697.584	842
698.766	836
699.949	864
701.133	866
702.314	894
703.497	858
704.678	872
705.861	894
707.043	918
708.224	944
709.406	926
710.586	964
711.768	926
712.949	944
714.129	956
715.31	916
716.489	972
717.67	962
718.849	982
720.029	1006
721.208	1004
722.388	988
723.566	984
724.746	1020
725.924	1000
727.103	1000
728.28	994
729.458	1040
730.636	1038
731.814	1040
732.992	1054
734.168	1064
735.345	1008
736.523	1042
737.699	1056
738.876	1096
740.052	1108
741.227	1074
742.404	1114
743.579	1098
744.754	1088
745.931	1116
747.105	1116
748.28	1116
749.455	1142
750.629	1176
751.803	1154
752.977	1132
754.152	1148
755.325	1166
756.499	1190
757.672	1132
758.846	1178
760.018	1210
761.191	1190
762.363	1238
763.535	1222
764.708	1256
765.88	1252
767.052	1232
768.223	1236
769.394	1222
770.565	1222
771.737	1272
772.908	1282
774.078	1304
775.249	1286
776.419	1296
777.589	1308
778.758	1284
779.928	1330
781.097	1344
782.266	1332
783.435	1334
784.604	1318
785.773	1358
786.941	1442
788.11	1336
789.278	1356
790.446	1360
791.613	1386
792.781	1378
793.948	1450
795.115	1440
796.282	1412
797.449	1442
798.616	1486
799.782	1450
800.948	1452
802.115	1498
803.28	1510
804.446	1518
805.612	1518
806.777	1516
807.941	1530
809.106	1498
810.271	1556
811.435	1522
812.6	1558
813.764	1552
814.927	1602
816.091	1608
817.254	1628
818.418	1624
819.581	1646
820.743	1654
821.906	1640
823.069	1724
824.232	1732
825.393	1726
826.555	1728
827.717	1746
828.879	1760
830.039	1672
831.201	1768
832.362	1804
833.522	1730
834.683	1814
835.844	1810
837.003	1808
838.164	1822
839.324	1776
840.483	1800
841.643	1880
842.801	1830
843.961	1850
845.12	1888
846.278	1948
847.437	1910
848.594	1948
849.753	1946
850.91	1932
852.069	1986
853.227	2008
854.383	1988
855.541	1994
856.697	2078
857.855	2010
859.011	2064
860.168	2046
861.323	2004
862.48	2064
863.635	2084
864.79	2030
865.946	2116
867.101	2204
868.257	2106
869.411	2122
870.567	2128
871.721	2200
872.874	2164
874.029	2198
875.183	2184
876.336	2232
877.49	2216
878.643	2208
879.796	2288
880.95	2288
882.102	2330
883.254	2354
884.407	2302
885.559	2250
886.711	2354
887.862	2332
889.015	2322
890.166	2398
891.317	2398
892.467	2416
893.619	2346
894.77	2400
895.92	2392
897.07	2394
898.221	2476
899.371	2500
900.52	2496
901.669	2464
902.819	2482
903.968	2508
905.116	2512
906.266	2508
907.415	2514
908.563	2548
909.711	2538
910.859	2546
912.007	2580
913.154	2602
914.301	2590
915.449	2606
916.596	2674
917.742	2658
918.889	2608
920.036	2620
921.183	2752
922.329	2732
923.475	2774
924.621	2784
925.765	2832
926.911	2816
928.056	2764
929.201	2804
930.346	2800
931.49	2822
932.635	2886
933.779	2856
934.924	2904
936.068	2852
937.211	2924
938.355	2950
939.498	2986
940.64	2938
941.784	3006
942.926	2950
944.069	3112
945.212	3056
946.354	3078
947.495	3060
948.637	3088
949.779	3096
950.921	3102
952.062	3128
953.202	3138
954.344	3190
955.484	3220
956.625	3192
957.765	3206
958.905	3244
960.045	3246
961.184	3314
962.324	3278
963.464	3368
964.604	3306
965.742	3338
966.881	3368
968.02	3386
969.158	3406
970.296	3434
971.434	3424
972.572	3440
973.71	3476
974.847	3464
975.985	3530
977.121	3528
978.259	3546
979.396	3602
980.532	3538
981.669	3626
982.804	3648
983.941	3654
985.076	3692
986.212	3652
987.347	3690
988.483	3742
989.617	3750
990.753	3700
991.887	3736
993.022	3762
994.156	3798
995.29	3752
996.424	3772
997.558	3828
998.692	3850
999.825	3870
1000.96	3892
1002.09	3846
1003.22	3992
1004.36	3896
1005.49	3920
1006.62	4006
1007.75	4002
1008.89	3986
1010.02	4098
1011.15	4094
1012.28	4128
1013.41	4116
1014.54	4182
1015.67	4200
1016.8	4208
1017.93	4148
1019.07	4226
1020.19	4260
1021.32	4288
1022.45	4264
1023.58	4272
1024.71	4402
1025.84	4360
1026.97	4336
1028.1	4372
1029.23	4456
1030.36	4418
1031.49	4484
1032.61	4526
1033.74	4516
1034.87	4566
1036	4646
1037.12	4686
1038.25	4624
1039.38	4584
1040.5	4702
1041.63	4752
1042.76	4700
1043.88	4646
1045.01	4744
1046.14	4826
1047.26	4832
1048.39	4816
1049.51	4870
1050.64	4918
1051.76	4954
1052.89	4958
1054.01	4860
1055.14	4900
1056.26	5094
1057.38	5002
1058.51	5048
1059.63	5118
1060.75	5116
1061.88	5148
1063	5180
1064.12	5166
1065.25	5238
1066.37	5206
1067.49	5214
1068.61	5216
1069.73	5222
1070.86	5242
1071.98	5344
1073.1	5362
1074.22	5448
1075.34	5348
1076.46	5424
1077.58	5480
1078.7	5478
1079.82	5370
1080.94	5466
1082.06	5362
1083.18	5510
1084.3	5552
1085.42	5616
1086.54	5428
1087.66	5512
1088.78	5574
1089.9	5534
1091.02	5616
1092.14	5562
1093.25	5656
1094.37	5580
1095.49	5716
1096.61	5672
1097.72	5682
1098.84	5740
1099.96	5790
1101.08	5672
1102.19	5764
1103.31	5754
1104.43	5852
1105.54	5876
1106.66	5778
1107.77	5784
1108.89	5888
1110	5904
1111.12	5850
1112.23	5936
1113.35	5978
1114.46	5864
1115.58	5946
1116.69	5974
1117.81	5934
1118.92	5938
1120.03	6142
1121.15	6002
1122.26	6100
1123.37	6002
1124.49	6100
1125.6	6078
1126.71	6164
1127.83	6134
1128.94	6170
1130.05	6278
1131.16	6194
1132.27	6126
1133.39	6334
1134.5	6180
1135.61	6276
1136.72	6290
1137.83	6320
1138.94	6360
1140.05	6378
1141.16	6456
1142.27	6480
1143.38	6432
1144.49	6452
1145.6	6474
1146.71	6480
1147.82	6514
1148.93	6440
1150.04	6518
1151.15	6530
1152.26	6482
1153.36	6516
1154.47	6510
1155.58	6520
1156.69	6782
1157.8	6542
1158.9	6576
1160.01	6610
1161.12	6642
1162.22	6724
1163.33	6654
1164.44	6652
1165.54	6744
1166.65	6690
1167.76	6766
1168.86	6682
1169.97	6780
1171.07	6674
1172.18	6636
1173.28	6814
1174.39	6698
1175.49	6642
1176.6	6752
1177.7	6712
1178.81	6712
1179.91	6768
1181.02	6730
1182.12	6736
1183.22	6838
1184.33	6710
1185.43	6826
1186.53	6774
1187.63	6674
1188.74	6790
1189.84	6732
1190.94	6814
1192.04	6750
1193.15	6674
1194.25	6612
1195.35	6716
1196.45	6658
1197.55	6734
1198.65	6652
1199.75	6760
1200.85	6660
1201.95	6630
1203.05	6634
1204.16	6542
1205.25	6576
1206.35	6622
1207.45	6562
1208.55	6618
1209.65	6684
1210.75	6540
1211.85	6564
1212.95	6566
1214.05	6584
1215.15	6556
1216.24	6476
1217.34	6456
1218.44	6534
1219.54	6490
1220.64	6438
1221.73	6452
1222.83	6434
1223.93	6426
1225.02	6444
1226.12	6344
1227.22	6340
1228.31	6480
1229.41	6406
1230.5	6294
1231.6	6338
1232.7	6350
1233.79	6328
1234.89	6308
1235.98	6282
1237.08	6298
1238.17	6312
1239.26	6248
1240.36	6166
1241.45	6238
1242.55	6242
1243.64	6164
1244.73	6214
1245.83	6172
1246.92	6148
1248.01	6164
1249.11	6104
1250.2	6108
1251.29	6058
1252.38	6002
1253.48	6102
1254.57	6008
1255.66	6122
1256.75	5948
1257.84	5896
1258.93	5988
1260.03	6064
1261.12	6018
1262.21	6028
1263.3	6092
1264.39	5872
1265.48	5940
1266.57	5966
1267.66	5880
1268.75	5858
1269.84	5934
1270.93	5798
1272.02	5918
1273.11	5798
1274.19	5770
1275.28	5780
1276.37	5830
1277.46	5716
1278.55	5688
1279.64	5698
1280.72	5726
1281.81	5666
1282.9	5646
1283.98	5595.66
1285.07	5490.24
1286.16	5564.92
1287.25	5543.13
1288.33	5566.37
1289.42	5524.9
1290.5	5504.25
1291.59	5358.92
1292.68	5338.2
1293.76	5262.85
1294.85	5274.46
1295.93	5375.75
1297.02	5320.53
1298.1	5240.44
1299.19	5297.35
1300.27	5261.16
1301.36	5180.74
1302.44	5166.8
1303.53	5187.17
1304.61	5142.98
1305.69	5170.59
1306.78	5092.6
1307.86	5022.02
1308.94	4998.48
1310.03	5002.26
1311.11	4940.28
1312.19	4978.85
1313.27	4953.66
1314.36	4946.6
1315.44	4942.03
1316.52	4923.01
1317.6	4795.61
1318.68	4847.18
1319.77	4822.36
1320.85	4789.37
1321.93	4732.77
1323.01	4807.24
1324.09	4651.02
1325.17	4648.02
1326.25	4670.72
1327.33	4560.12
1328.41	4577.04
1329.49	4529.43
1330.57	4542.05
1331.65	4483.96
1332.73	4500.09
1333.81	4504.13
1334.89	4429.24
1335.97	4435.61
1337.04	4357.77
1338.12	4358.27
1339.2	4390.91
1340.28	4312.95
1341.36	4311.93
1342.44	4279.99
1343.51	4287
1344.59	4268.5
1345.67	4217.46
1346.75	4175.83
1347.82	4157.92
1348.9	4154.32
1349.98	4140.81
1351.05	4093.24
1352.13	4123.72
1353.2	4093.8
1354.28	4052.21
1355.36	4091.38
1356.43	3970.12
1357.51	3966.64
1358.58	3936.45
1359.66	3976.38
1360.73	3982.32
1361.81	3932.76
1362.88	3880.1
1363.96	3878.76
1365.03	3853.96
1366.1	3857.89
1367.18	3742.45
1368.25	3806.6
1369.33	3725.67
1370.4	3724.76
1371.47	3784.97
1372.54	3653.66
1373.62	3707.49
1374.69	3689.58
1375.76	3652.63
1376.83	3639.3
1377.91	3607.92
1378.98	3642.79
1380.05	3637.63
1381.12	3567.24
1382.19	3539.6
1383.26	3532.92
1384.34	3556.48
1385.41	3492.83
1386.48	3450.5
1387.55	3518.66
1388.62	3411.73
1389.69	3415.15
1390.76	3407.96
1391.83	3420.15
1392.9	3389.47
1393.02	3384
1394.1	3416
1395.17	3362
1396.25	3280
1397.32	3328
1398.4	3274
1399.47	3282
1400.55	3238
1401.62	3276
1402.69	3302
1403.77	3226
1404.84	3268
1405.91	3258
1406.99	3212
1408.06	3216
1409.13	3252
1410.2	3196
1411.27	3140
1412.35	3116
1413.42	3192
1414.49	3162
1415.56	3096
1416.63	3144
1417.7	3062
1418.78	3052
1419.85	3130
1420.92	3042
1421.99	3066
1423.06	3054
1424.13	3058
1425.2	3002
1426.27	2998
1427.34	2984
1428.41	2972
1429.48	2928
1430.55	2964
1431.61	2938
1432.68	2932
1433.75	3002
1434.82	2948
1435.89	2910
1436.96	2878
1438.02	2936
1439.09	2864
1440.16	2886
1441.23	2894
1442.3	2872
1443.36	2856
1444.43	2850
1445.5	2828
1446.56	2798
1447.63	2824
1448.7	2898
1449.76	2816
1450.83	2764
1451.89	2726
1452.96	2766
1454.02	2780
1455.09	2756
1456.15	2804
1457.22	2726
1458.28	2746
1459.35	2714
1460.41	2714
1461.48	2790
1462.54	2726
1463.61	2696
1464.67	2684
1465.73	2690
1466.8	2606
1467.86	2662
1468.92	2684
1469.98	2652
1471.05	2610
1472.11	2590
1473.17	2630
1474.24	2582
1475.3	2552
1476.36	2630
1477.42	2598
1478.48	2622
1479.54	2586
1480.6	2566
1481.67	2566
1482.73	2608
1483.79	2600
1484.85	2624
1485.91	2526
1486.97	2542
1488.03	2542
1489.09	2476
1490.15	2518
1491.21	2488
1492.27	2544
1493.33	2518
1494.38	2490
1495.44	2526
1496.5	2464
1497.56	2484
1498.62	2438
1499.68	2512
1500.74	2424
1501.79	2380
1502.85	2410
1503.91	2456
1504.97	2366
1506.02	2474
1507.08	2354
1508.14	2388
1509.2	2340
1510.25	2368
1511.31	2372
1512.36	2384
1513.42	2372
1514.48	2336
1515.53	2322
1516.59	2340
1517.64	2334
1518.7	2372
1519.75	2346
1520.81	2356
1521.86	2310
1522.92	2286
1523.97	2210
1525.02	2318
1526.08	2296
1527.13	2266
1528.19	2246
1529.24	2234
1530.29	2220
1531.35	2194
1532.4	2210
1533.45	2250
1534.51	2224
1535.56	2174
1536.61	2186
1537.66	2240
1538.72	2222
1539.77	2176
1540.82	2202
1541.87	2114
1542.92	2156
1543.97	2240
1545.02	2138
1546.08	2148
1547.13	2194
1548.18	2194
1549.23	2114
1550.28	2038
1551.33	2100
1552.38	2090
1553.43	2128
1554.48	2140
1555.53	2098
1556.57	2116
1557.62	2092
1558.67	2052
1559.72	2082
1560.77	2108
1561.82	2072
1562.87	1996
1563.92	2060
1564.96	2070
1566.01	2062
1567.06	2062
1568.11	2064
1569.15	2040
1570.2	2056
1571.25	2004
1572.29	2072
1573.34	1984
1574.39	1990
1575.43	1990
1576.48	1962
1577.53	2020
1578.57	2040
1579.62	1940
1580.66	1998
1581.71	2012
1582.75	2008
1583.8	1974
1584.84	2018
1585.89	1956
1586.93	1990
1587.98	1984
1589.02	1986
1590.06	1960
1591.11	2000
1592.15	1962
1593.2	1896
1594.24	1886
1595.28	1992
1596.33	1958
1597.37	1942
1598.41	1924
1599.45	1906
1600.5	1914
1601.54	1894
1602.58	1938
1603.62	1924
1604.66	1904
1605.7	1926
1606.75	1982
1607.79	1906
1608.83	1948
1609.87	1890
1610.91	1910
1611.95	1946
1612.99	1890
1614.03	1916
1615.07	1934
1616.11	1894
1617.15	1924
1618.19	1894
1619.23	1858
1620.27	1912
1621.31	1870
1622.35	1900
1623.39	1852
1624.43	1880
1625.46	1870
1626.5	1838
1627.54	1892
1628.58	1900
1629.62	1852
1630.65	1824
1631.69	1820
1632.73	1842
1633.77	1918
1634.8	1846
1635.84	1788
1636.88	1822
1637.91	1862
1638.95	1810
1639.99	1844
1641.02	1850
1642.06	1806
1643.09	1780
1644.13	1816
1645.16	1818
1646.2	1834
1647.23	1804
1648.27	1832
1649.3	1768
1650.34	1826
1651.37	1848
1652.41	1764
1653.44	1782
1654.47	1728
1655.51	1796
1656.54	1714
1657.57	1730
1658.61	1750
1659.64	1716
1660.67	1750
1661.71	1752
1662.74	1774
1663.77	1790
1664.81	1738
1665.84	1764
1666.87	1734
1667.9	1750
1668.93	1720
1669.96	1784
1671	1748
1672.03	1696
1673.06	1722
1674.09	1716
1675.12	1666
1676.15	1726
1677.18	1716
1678.21	1696
1679.24	1690
1680.27	1690
1681.3	1720
1682.33	1734
1683.36	1686
1684.39	1718
1685.42	1724
1686.45	1702
1687.47	1690
1688.5	1694
1689.53	1738
1690.56	1692
1691.59	1722
1692.62	1670
1693.64	1696
1694.67	1692
1695.7	1690
1696.73	1708
1697.75	1624
1698.78	1688
1699.81	1656
1700.83	1696
1701.86	1688
1702.89	1692
1703.91	1636
1704.94	1652
1705.97	1662
1706.99	1636
1708.02	1654
1709.04	1664
1710.07	1636
1711.09	1656
1712.12	1634
1713.14	1672
1714.17	1654
1715.19	1682
1716.22	1648
1717.24	1620
1718.26	1680
1719.29	1644
1720.31	1654
1721.33	1646
1722.36	1634
1723.38	1676
1724.4	1658
1725.43	1626
1726.45	1608
1727.47	1618
1728.49	1600
1729.52	1600
1730.54	1634
1731.56	1600
1732.58	1608
1733.6	1586
1734.63	1558
1735.65	1602
1736.67	1604
1737.69	1604
1738.71	1622
1739.73	1644
1740.75	1576
1741.77	1596
1742.79	1600
1743.81	1612
1744.83	1662
1745.85	1546
1746.87	1626
1747.89	1606
1748.91	1588
1749.93	1574
1750.95	1636
1751.97	1616
1752.98	1616
1754	1572
1755.02	1592
1756.04	1568
1757.06	1620
1758.07	1542
1759.09	1624
1760.11	1572
1761.13	1584
1762.14	1576
1763.16	1588
1764.18	1636
1765.19	1572
1766.21	1610
1767.23	1628
1768.24	1594
1769.26	1588
1770.28	1616
1771.29	1598
1772.31	1590
1773.32	1592
1774.34	1568
1775.35	1594
1776.37	1590
1777.38	1564
1778.4	1618
1779.41	1640
1780.43	1594
1781.44	1592
1782.45	1572
1783.47	1608
1784.48	1590
1785.49	1590
1786.51	1598
1787.52	1576
1788.53	1608
1789.55	1600
1790.56	1628
1791.57	1564
1792.58	1582
1793.6	1574
1794.61	1580
1795.62	1578
1796.63	1578
1797.64	1564
1798.66	1606
1799.67	1572
1800.68	1544
1801.69	1528
1802.7	1540
1803.71	1566
1804.72	1568
1805.73	1548
1806.74	1584
1807.75	1562
1808.76	1516
1809.77	1612
1810.78	1540
1811.79	1576
1812.8	1536
1813.81	1588
1814.82	1572
1815.83	1526
1816.84	1498
1817.84	1560
1818.85	1586
1819.86	1534
1820.87	1552
1821.88	1596
1822.88	1530
1823.89	1512
1824.9	1556
1825.91	1546
1826.91	1560
1827.92	1606
1828.93	1552
1829.93	1504
1830.94	1540
1831.95	1586
1832.95	1568
1833.96	1526
1834.97	1512
1835.97	1610
1836.98	1530
1837.98	1538
1838.99	1536
1839.99	1542
1841	1550
1842	1514
1843.01	1514
1844.01	1546
1845.02	1538
1846.02	1498
1847.02	1530
1848.03	1538
1849.03	1538
1850.03	1510
1851.04	1496
1852.04	1484
1853.04	1512
1854.05	1570
1855.05	1524
1856.05	1526
1857.05	1496
1858.06	1526
1859.06	1506
1860.06	1512
1861.06	1494
1862.06	1548
1863.07	1498
1864.07	1502
1865.07	1544
1866.07	1548
1867.07	1478
1868.07	1506
1869.07	1464
1870.07	1418
1871.07	1530
1872.07	1486
1873.07	1494
1874.07	1544
1875.07	1508
1876.07	1498
1877.07	1520
1878.07	1546
1879.07	1514
1880.07	1490
1881.07	1510
1882.07	1506
1883.06	1524
1884.06	1484
1885.06	1514
1886.06	1488
1887.06	1474
1888.05	1496
1889.05	1492
1890.05	1514
1891.05	1530
1892.04	1538
1893.04	1570
1894.04	1532
1895.03	1496
1896.03	1546
1897.03	1490
1898.02	1532
1899.02	1468
1900.01	1468
1901.01	1500
1902	1502
1903	1498
1903.99	1508
1904.99	1530
1905.98	1554
1906.98	1466
1907.97	1506
1908.97	1462
1909.96	1508
1910.96	1518
1911.95	1538
1912.94	1522
1913.94	1492
1914.93	1470
1915.93	1510
1916.92	1532
1917.91	1534
1918.9	1474
1919.9	1456
1920.89	1426
1921.88	1502
1922.87	1550
1923.87	1536
1924.86	1516
1925.85	1524
1926.84	1480
1927.83	1476
1928.82	1506
1929.82	1544
1930.81	1500
1931.8	1498
1932.79	1524
1933.78	1464
1934.77	1502
1935.76	1498
1936.75	1522
1937.74	1530
1938.73	1492
1939.72	1514
1940.71	1488
1941.7	1514
1942.69	1500
1943.68	1490
1944.67	1506
1945.65	1504
1946.64	1482
1947.63	1520
1948.62	1490
1949.61	1540
1950.6	1526
1951.58	1488
1952.57	1472
1953.56	1506
1954.55	1484
1955.53	1494
1956.52	1496
1957.51	1484
1958.5	1480
1959.48	1480
1960.47	1470
1961.45	1454
1962.44	1490
1963.43	1504
1964.41	1446
1965.4	1448
1966.38	1476
1967.37	1498
1968.35	1490
1969.34	1496
1970.32	1470
1971.31	1430
1972.29	1470
1973.28	1518
1974.26	1432
1975.25	1444
1976.23	1442
1977.22	1458
1978.2	1504
1979.18	1438
1980.17	1464
1981.15	1456
1982.13	1464
1983.12	1444
1984.1	1456
1985.08	1456
1986.06	1516
1987.05	1464
1988.03	1462
1989.01	1468
1989.99	1474
1990.97	1426
1991.96	1476
1992.94	1452
1993.92	1434
1994.9	1426
1995.88	1422
1996.86	1446
1997.84	1442
1998.82	1472
1999.8	1426
2000.78	1436
2001.76	1470
2002.74	1440
2003.72	1460
2004.7	1458
2005.68	1492
2006.66	1410
2007.64	1456
2008.62	1478
2009.6	1442
2010.58	1458
2011.56	1460
2012.54	1422
2013.51	1470
2014.49	1456
2015.47	1476
2016.45	1518
2017.43	1492
2018.4	1448
2019.38	1446
2020.36	1438
2021.34	1444
2022.31	1464
2023.29	1404
2024.27	1460
2025.24	1464
2026.22	1454
2027.2	1424
2028.17	1410
2029.15	1396
2030.12	1460
2031.1	1474
2032.07	1448
2033.05	1464
2034.03	1456
2035	1418
2035.98	1436
2036.95	1420
2037.93	1426
2038.9	1440
2039.87	1442
2040.85	1434
2041.82	1424
2042.8	1476
2043.77	1420
2044.74	1406
2045.72	1436
2046.69	1484
2047.66	1450
2048.64	1482
2049.61	1492
2050.58	1474
2051.55	1406
2052.53	1458
2053.5	1442
2054.47	1438
2055.44	1440
2056.41	1450
2057.39	1420
2058.36	1454
2059.33	1416
2060.3	1430
2061.27	1450
2062.24	1416
2063.21	1456
2064.18	1432
2065.15	1454
2066.12	1424
2067.09	1458
2068.06	1468
2069.03	1444
2070	1446
2070.97	1366
2071.94	1466
2072.91	1438
2073.88	1436
2074.85	1426
2075.82	1436
2076.79	1460
2077.76	1442
2078.73	1358
2079.69	1432
2080.66	1434
2081.63	1440
2082.6	1390
2083.56	1440
2084.53	1390
2085.5	1400
2086.47	1436
2087.43	1428
2088.4	1446
2089.37	1422
2090.33	1480
2091.3	1380
2092.27	1400
2093.23	1426
2094.2	1408
2095.17	1460
2096.13	1428
2097.1	1438
2098.06	1406
2099.03	1486
2099.99	1438
2100.96	1402
2101.92	1410
2102.89	1392
2103.85	1412
2104.82	1398
2105.78	1376
2106.74	1412
2107.71	1412
2108.67	1414
2109.64	1430
2110.6	1400
2111.56	1388
2112.53	1432
2113.49	1408
2114.45	1418
2115.41	1424
2116.38	1442
2117.34	1434
2118.3	1482
2119.26	1448
2120.23	1422
2121.19	1458
2122.15	1408
2123.11	1408
2124.07	1414
2125.03	1450
2126	1418
2126.96	1382
2127.92	1364
2128.88	1398
2129.84	1398
2130.8	1382
2131.76	1416
2132.72	1450
2133.68	1424
2134.64	1408
2135.6	1386
2136.56	1452
2137.52	1420
2138.48	1392
2139.44	1446
2140.4	1400
2141.35	1436
2142.31	1406
2143.27	1360
2144.23	1408
2145.19	1388
2146.15	1390
2147.1	1404
2148.06	1408
2149.02	1410
2149.98	1406
2150.94	1424
2151.89	1448
2152.85	1362
2153.81	1430
2154.76	1378
2155.72	1378
2156.68	1388
2157.63	1376
2158.59	1428
2159.55	1376
2160.5	1366
2161.46	1436
2162.41	1392
2163.37	1374
2164.32	1384
2165.28	1404
2166.23	1414
2167.19	1388
2168.14	1390
2169.1	1388
2170.05	1322
2171.01	1362
2171.96	1400
2172.91	1356
2173.87	1404
2174.82	1408
2175.78	1372
2176.73	1364
2177.68	1370
2178.64	1364
2179.59	1360
2180.54	1368
2181.49	1372
2182.45	1392
2183.4	1394
2184.35	1352
2185.3	1382
2186.26	1334
2187.21	1384
2188.16	1356
2189.11	1398
2190.06	1352
2191.01	1364
2191.96	1370
2192.92	1398
2193.87	1382
2194.82	1334
2195.77	1340
2196.72	1340
2197.67	1356
2198.62	1352
2199.57	1352
2200.52	1346
2201.47	1364
2202.42	1332
2203.37	1326
2204.32	1328
2205.27	1276
2206.22	1398
2207.16	1356
2208.11	1294
2209.06	1330
2210.01	1344
2210.96	1358
2211.91	1384
2212.85	1324
2213.8	1304
2214.75	1316
2215.7	1328
2216.64	1344
2217.59	1338
2218.54	1392
2219.49	1326
2220.43	1338
2221.38	1342
2222.33	1300
2223.27	1367.61
2224.22	1334.77
2225.16	1318.24
2226.11	1318.46
2227.06	1329.33
2228	1294.58
2228.95	1301.05
2229.89	1340.76
2230.84	1335.08
2231.78	1329.97
2232.73	1300.76
2233.67	1325.34
2234.62	1308.74
2235.56	1308.49
2236.51	1298.5
2237.45	1312.95
2238.4	1333.53
2239.34	1320.9
2240.28	1331.3
2241.23	1314.93
2242.17	1308.46
2243.11	1290.3
2244.06	1301.12
2245	1301.43
2245.94	1339.38
2246.89	1308.98
2247.83	1295.98
2248.77	1331.82
2249.71	1295.25
2250.66	1356.43
2251.6	1324.57
2252.54	1317.05
2253.48	1314.73
2254.42	1274.43
2255.37	1300.96
2256.31	1259.33
2257.25	1274.52
2258.19	1282.98
2259.13	1283.93
2260.07	1311.09
2261.01	1281.39
2261.95	1273.77
2262.89	1306.13
2263.83	1282.64
2264.77	1277.06
2265.71	1261.56
2266.65	1320.79
2267.59	1303.42
2268.53	1265.06
2269.47	1283.59
2270.41	1270.74
2271.35	1293.82
2272.29	1290.02
2273.23	1254.29
2274.17	1278.86
2275.1	1252.06
2276.04	1255.01
2276.98	1271.31
2277.92	1269.36
2278.86	1249.91
2279.8	1270.05
2280.73	1257.71
2281.67	1252.58
2282.61	1247.6
2283.55	1275.87
2284.48	1258.73
2285.42	1248.25
2286.36	1254.52
2287.29	1242.17
2288.23	1233.68
2289.17	1223.09
2290.1	1244.31
2291.04	1246.15
2291.98	1244.64
2292.91	1243.32
2293.85	1238.49
2294.78	1266.62
2295.72	1246.44
2296.65	1237.26
2297.59	1223.26
2298.52	1233.27
2299.46	1206.91
2300.39	1228.27
2301.33	1232.26
2302.26	1238.76
2303.2	1212.49
2304.13	1204.18
2305.06	1232.99
2306	1212.3
2306.93	1222.87
2307.87	1230.46
2308.8	1220.14
2309.73	1211.74
2310.67	1251.07
2311.6	1219.12
2312.53	1194
2313.46	1216.86
2314.4	1204.9
2315.33	1184.06
2316.26	1186.31
2316.69	1194
2317.62	1206
2318.56	1156
2319.5	1216
2320.43	1196
2321.37	1194
2322.31	1204
2323.24	1176
2324.18	1166
2325.12	1174
2326.05	1166
2326.99	1184
2327.92	1200
2328.86	1178
2329.79	1158
2330.73	1172
2331.66	1184
2332.6	1194
2333.53	1142
2334.47	1162
2335.4	1172
2336.34	1188
2337.27	1214
2338.2	1196
2339.14	1134
2340.07	1134
2341.01	1192
2341.94	1190
2342.87	1134
2343.81	1174
2344.74	1192
2345.67	1174
2346.6	1174
2347.54	1134
2348.47	1160
2349.4	1134
2350.33	1162
2351.27	1120
2352.2	1138
2353.13	1134
2354.06	1142
2354.99	1142
2355.93	1170
2356.86	1158
2357.79	1144
2358.72	1114
2359.65	1124
2360.58	1130
2361.51	1152
2362.44	1160
2363.37	1108
2364.3	1134
2365.23	1130
2366.16	1112
2367.09	1120
2368.02	1078
2368.95	1144
2369.88	1134
2370.81	1128
2371.74	1152
2372.67	1128
2373.6	1080
2374.52	1140
2375.45	1114
2376.38	1102
2377.31	1120
2378.24	1064
2379.17	1120
2380.09	1104
2381.02	1120
2381.95	1078
2382.88	1098
2383.8	1148
2384.73	1098
2385.66	1102
2386.58	1102
2387.51	1104
2388.44	1100
2389.36	1130
2390.29	1044
2391.22	1096
2392.14	1158
2393.07	1078
2393.99	1064
2394.92	1040
2395.85	1058
2396.77	1076
2397.7	1050
2398.62	1080
2399.55	1056
2400.47	1084
2401.4	1078
2402.32	1042
2403.25	1032
2404.17	1046
2405.09	1028
2406.02	1064
2406.94	1060
2407.86	1034
2408.79	1020
2409.71	1036
2410.63	1020
2411.56	1036
2412.48	1056
2413.4	1004
2414.33	1038
2415.25	1042
2416.17	990
2417.09	1052
2418.02	1024
2418.94	1022
2419.86	1040
2420.78	1036
2421.7	1028
2422.63	1038
2423.55	1008
2424.47	1016
2425.39	1016
2426.31	1014
2427.23	1000
2428.15	1008
2429.07	1006
2429.99	972
2430.91	1034
2431.83	1010
2432.75	978
2433.67	996
2434.59	998
2435.51	986
2436.43	970
2437.35	994
2438.27	970
2439.19	986
2440.11	956
2441.03	950
2441.95	974
2442.86	948
2443.78	970
2444.7	958
2445.62	950
2446.54	964
2447.46	956
2448.37	976
2449.29	894
2450.21	980
2451.13	950
2452.04	938
2452.96	952
2453.88	948
2454.79	946
2455.71	992
2456.63	912
2457.54	924
2458.46	962
2459.38	960
2460.29	936
2461.21	932
2462.12	956
2463.04	926
2463.95	926
2464.87	966
2465.78	868
2466.7	906
2467.61	914
2468.53	934
2469.44	906
2470.36	936
2471.27	934
2472.19	892
2473.1	900
2474.01	926
2474.93	930
2475.84	916
2476.76	918
2477.67	890
2478.58	892
2479.5	888
2480.41	898
2481.32	876
2482.23	876
2483.15	878
2484.06	886
2484.97	922
2485.88	894
2486.8	892
2487.71	876
2488.62	858
2489.53	868
2490.44	896
2491.35	874
2492.26	866
2493.18	918
2494.09	848
2495	854
2495.91	850
2496.82	874
2497.73	840
2498.64	858
2499.55	856
2500.46	842
2501.37	854
2502.28	830
2503.19	882
2504.1	864
2505.01	848
2505.92	870
2506.83	858
2507.74	850
2508.65	838
2509.55	822
2510.46	826
2511.37	852
2512.28	856
2513.19	862
2514.09	830
2515	806
2515.91	820
2516.82	812
2517.73	844
2518.63	814
2519.54	796
2520.45	780
2521.35	802
2522.26	780
2523.17	772
2524.07	816
2524.98	814
2525.89	790
2526.79	808
2527.7	778
2528.6	802
2529.51	798
2530.42	776
2531.32	792
2532.23	820
2533.13	790
2534.04	782
2534.94	778
2535.85	774
2536.75	766
2537.66	786
2538.56	800
2539.47	784
2540.37	758
2541.27	772
2542.18	802
2543.08	732
2543.98	752
2544.89	774
2545.79	796
2546.7	744
2547.6	740
2548.5	762
2549.4	724
2550.31	758
2551.21	724
2552.11	766
2553.01	742
2553.92	724
2554.82	742
2555.72	744
2556.62	760
2557.52	712
2558.42	742
2559.33	694
2560.23	726
2561.13	732
2562.03	722
2562.93	742
2563.83	718
2564.73	708
2565.63	742
2566.53	706
2567.43	746
2568.33	700
2569.23	700
2570.13	700
2571.03	696
2571.93	722
2572.83	676
2573.73	704
2574.63	718
2575.53	728
2576.43	708
2577.33	698
2578.22	708
2579.12	672
2580.02	670
2580.92	698
2581.82	674
2582.72	692
2583.61	704
2584.51	684
2585.41	680
2586.31	674
2587.2	684
2588.1	690
2589	662
2589.89	670
2590.79	664
2591.69	664
2592.58	686
2593.48	688
2594.38	690
2595.27	680
2596.17	672
2597.06	668
2597.96	638
2598.86	660
2599.75	670
2600.65	632
2601.54	668
2602.44	696
2603.33	678
2604.23	658
2605.12	628
2606.02	648
2606.91	652
2607.81	646
2608.7	636
2609.59	640
2610.49	636
2611.38	638
2612.27	654
2613.17	614
2614.06	638
2614.95	620
2615.85	626
2616.74	644
2617.63	634
2618.53	628
2619.42	660
2620.31	610
2621.2	602
2622.1	612
2622.99	644
2623.88	594
2624.77	616
2625.66	606
2626.55	596
2627.45	612
2628.34	648
2629.23	590
2630.12	614
2631.01	596
2631.9	608
2632.79	612
2633.68	594
2634.57	612
2635.46	602
2636.35	584
2637.24	580
2638.13	602
2639.02	592
2639.91	602
2640.8	584
2641.69	610
2642.58	604
2643.47	558
2644.36	564
2645.25	582
2646.14	562
2647.02	588
2647.91	578
2648.8	578
2649.69	562
2650.58	580
2651.46	570
2652.35	556
2653.24	576
2654.13	574
2655.01	556
2655.9	532
2656.79	552
2657.68	562
2658.56	570
2659.45	576
2660.34	556
2661.22	552
2662.11	550
2662.99	546
2663.88	566
2664.77	532
2665.65	540
2666.54	548
2667.42	538
2668.31	540
2669.2	566
2670.08	548
2670.96	540
2671.85	552
2672.73	540
2673.62	526
2674.5	552
2675.39	556
2676.27	546
2677.16	542
2678.04	542
2678.93	522
2679.81	522
2680.69	510
2681.58	534
2682.46	548
2683.34	536
2684.23	532
2685.11	540
2685.99	512
2686.87	510
2687.76	550
2688.64	532
2689.52	516
2690.4	492
2691.28	536
2692.17	536
2693.05	520
2693.93	508
2694.81	516
2695.69	508
2696.57	526
2697.46	508
2698.34	480
2699.22	472
2700.1	512
2700.98	496
2701.86	516
2702.74	516
2703.62	480
2704.5	474
2705.38	492
2706.26	498
2707.14	508
2708.02	518
2708.9	484
2709.78	486
2710.66	472
2711.54	486
2712.42	484
2713.3	474
2714.17	464
2715.05	472
2715.93	470
2716.81	496
2717.69	472
2718.57	480
2719.44	440
2720.32	444
2721.2	458
2722.08	458
2722.95	490
2723.83	454
2724.71	444
2725.59	452
2726.46	442
2727.34	462
2728.22	446
2729.09	444
2729.97	446
2730.85	460
2731.72	450
2732.6	462
2733.47	460
2734.35	466
2735.23	456
2736.1	446
2736.98	442
2737.85	442
2738.73	476
2739.6	418
2740.48	430
2741.35	438
2742.23	414
2743.1	442
2743.98	424
2744.85	416
2745.72	464
2746.6	430
2747.47	426
2748.35	440
2749.22	428
2750.09	432
2750.97	444
2751.84	432
2752.71	422
2753.59	414
2754.46	410
2755.33	398
2756.2	422
2757.08	412
2757.95	420
2758.82	428
2759.69	410
2760.57	422
2761.44	422
2762.31	414
2763.18	392
2764.05	396
2764.92	418
2765.79	374
2766.67	430
2767.54	400
2768.41	406
2769.28	376
2770.15	396
2771.02	400
2771.89	414
2772.76	374
2773.63	374
2774.5	376
2775.37	398
2776.24	412
2777.11	400
2777.98	374
2778.85	396
2779.72	370
2780.59	380
2781.46	376
2782.32	362
2783.19	372
2784.06	370
2784.93	358
2785.8	372
2786.67	406
2787.53	396
2788.4	372
2789.27	368
2790.14	360
2791.01	368
2791.87	366
2792.74	374
2793.61	358
2794.47	360
2795.34	362
2796.21	368
2797.07	372
2797.94	390
2798.81	364
2799.67	374
2800.54	360
2801.41	350
2802.27	356
2803.14	364
2804	340
2804.87	324
2805.74	338
2806.6	350
2807.47	348
2808.33	332
2809.2	350
2810.06	346
2810.93	344
2811.79	342
2812.65	328
2813.52	328
2814.38	352
2815.25	330
2816.11	322
2816.98	328
2817.84	346
2818.7	340
2819.56	350
2820.43	336
2821.29	344
2822.16	356
2823.02	334
2823.88	330
2824.74	318
2825.61	328
2826.47	318
2827.33	316
2828.19	310
2829.05	316
2829.92	324
2830.78	304
2831.64	312
2832.5	332
2833.36	310
2834.23	320
2835.09	324
2835.95	318
2836.81	312
2837.67	314
2838.53	316
2839.39	298
2840.25	304
2841.11	326
2841.97	296
2842.83	296
2843.69	298
2844.55	310
2845.41	322
2846.27	314
2847.13	298
2847.99	306
2848.85	300
2849.71	288
2850.57	290
2851.43	276
2852.28	298
2853.14	274
2854	294
2854.86	286
2855.72	312
2856.58	280
2857.43	280
2858.29	268
2859.15	304
2860.01	296
2860.86	280
2861.72	284
2862.58	278
2863.44	302
2864.29	272
2865.15	268
2866.01	280
2866.86	268
2867.72	268
2868.58	266
2869.43	286
2870.29	268
2871.14	284
2872	278
2872.86	264
2873.71	256
2874.57	248
2875.42	262
2876.28	268
2877.13	284
2877.99	256
2878.84	272
2879.7	270
2880.55	284
2881.41	258
2882.26	264
2883.11	260
2883.97	258
2884.82	266
2885.68	270
2886.53	264
2887.39	260
2888.24	266
2889.09	238
2889.94	256
2890.8	240
2891.65	258
2892.5	244
2893.36	246
2894.21	254
2895.06	262
2895.91	248
2896.77	244
2897.62	252
2898.47	238
2899.32	254
2900.17	252
2901.03	252
2901.88	252
2902.73	262
2903.58	240
2904.43	254
2905.28	252
2906.13	256
2906.98	256
2907.84	248
2908.69	256
2909.54	240
2910.39	222
2911.24	234
2912.09	234
2912.94	272
2913.79	232
2914.64	260
2915.49	248
2916.34	242
2917.19	230
2918.03	242
2918.88	240
2919.73	232
2920.58	236
2921.43	232
2922.28	238
2923.13	248
2923.98	232
2924.82	234
2925.67	246
2926.52	230
2927.37	230
2928.22	218
2929.06	230
2929.91	234
2930.76	214
2931.61	210
2932.45	232
2933.3	232
2934.15	202
2934.99	224
2935.84	242
2936.69	228
2937.53	236
2938.38	212
2939.23	238
2940.07	222
2940.92	228
2941.76	224
2942.61	218
2943.46	234
2944.3	232
2945.15	218
2945.99	204
2946.84	216
2947.68	216
2948.53	218
2949.37	216
2950.22	210
2951.06	216
2951.9	204
2952.75	220
2953.59	226
2954.44	198
2955.28	212
2956.12	222
2956.97	200
2957.81	200
2958.65	212
2959.5	212
2960.34	212
2961.18	208
2962.03	200
2962.87	220
2963.71	198
2964.56	192
2965.4	196
2966.24	198
2967.08	210
2967.92	222
2968.77	206
2969.61	192
2970.45	194
2971.29	198
2972.13	194
2972.97	210
2973.82	204
2974.66	196
2975.5	202
2976.34	206
2977.18	198
2978.02	198
2978.86	202
2979.7	190
2980.54	196
2981.38	190
2982.22	194
2983.06	192
2983.9	192
2984.74	184
2985.58	210
2986.42	200
2987.26	170
2988.1	208
2988.94	182
2989.78	184
2990.61	194
2991.45	194
2992.29	182
2993.13	200
2993.97	194
2994.81	174
2995.64	186
2996.48	188
2997.32	188
2998.16	164
2999	182
2999.83	194
