#Acq. time (s)=	10
#Accumulations=	1
#Range (cm-¹)=	200...3000
#Windows=	3
#Autofocus=	Off
#AutoExposure=	Off
#Spike filter=	Off
#Delay time (s)=	0
#Binning=	1
#Readout mode=	Signal
#DeNoise=	Off
#ICS correction=	Off
#Dark correction=	Off
#Inst. Process=	Off
#Instrument=	LabRAM HR Evol
#Detector=	Syncerity OE
#Objective=	x100_VIS
#Grating=	600 (500nm)
#ND Filter=	1%
#Laser=	633nm_Edge
#Hole=	30.0125
#Range=	Visible
#Project=	Omar
#Sample=	03-07-23
#Site=	papal
#Title=	leaf
#Remark=	
#Date=	03.07.2023 16:48
#Acquired=	03.07.2023 16:48:25
201.713	1160
202.98	1134
204.247	1108
205.513	1184
206.778	1184
208.045	1180
209.311	1170
210.576	1194
211.84	1202
213.106	1228
214.371	1220
215.636	1228
216.899	1268
218.164	1286
219.428	1258
220.692	1322
221.955	1282
223.219	1286
224.482	1280
225.744	1288
227.007	1354
228.27	1324
229.531	1340
230.794	1374
232.055	1368
233.317	1376
234.579	1388
235.839	1444
237.1	1394
238.362	1406
239.621	1436
240.882	1418
242.141	1436
243.402	1466
244.661	1456
245.921	1500
247.179	1454
248.439	1524
249.698	1458
250.956	1494
252.215	1502
253.473	1552
254.731	1554
255.988	1566
257.246	1600
258.503	1582
259.761	1560
261.017	1566
262.273	1612
263.53	1644
264.786	1640
266.042	1642
267.298	1640
268.554	1664
269.809	1662
271.063	1676
272.319	1680
273.573	1702
274.828	1712
276.082	1726
277.336	1690
278.591	1728
279.844	1726
281.097	1794
282.351	1804
283.603	1778
284.855	1806
286.109	1792
287.361	1854
288.613	1814
289.866	1860
291.117	1924
292.368	1870
293.62	1904
294.871	1910
296.121	1984
297.372	1948
298.623	2024
299.873	1988
301.123	1988
302.372	2028
303.622	1998
304.872	2080
306.121	2090
307.37	2124
308.618	2084
309.866	2132
311.116	2116
312.364	2142
313.611	2150
314.859	2240
316.106	2212
317.353	2276
318.6	2180
319.848	2212
321.095	2230
322.341	2222
323.587	2282
324.833	2248
326.079	2346
327.324	2350
328.569	2380
329.814	2314
331.059	2416
332.304	2384
333.548	2440
334.792	2438
336.037	2440
337.28	2464
338.524	2418
339.767	2462
341.011	2548
342.254	2500
343.497	2552
344.739	2506
345.982	2616
347.224	2602
348.466	2600
349.708	2612
350.95	2646
352.191	2652
353.432	2760
354.673	2748
355.914	2754
357.155	2706
358.394	2702
359.634	2742
360.874	2792
362.114	2776
363.354	2832
364.593	2860
365.832	2848
367.07	2804
368.309	2912
369.548	2884
370.786	2880
372.024	2902
373.261	2944
374.499	2920
375.736	2968
376.974	3020
378.211	2938
379.447	3068
380.684	3060
381.92	3074
383.157	3074
384.392	3126
385.628	3146
386.864	3152
388.098	3142
389.333	3190
390.569	3142
391.802	3212
393.037	3198
394.272	3248
395.505	3300
396.739	3320
397.973	3312
399.206	3420
400.44	3432
401.673	3352
402.905	3424
404.138	3364
405.37	3500
406.602	3522
407.835	3506
409.066	3582
410.298	3538
411.528	3592
412.76	3608
413.99	3644
415.221	3672
416.451	3700
417.682	3728
418.911	3782
420.142	3794
421.371	3788
422.601	3872
423.83	3786
425.059	3892
426.288	3958
427.517	3904
428.745	4032
429.974	3982
431.201	4010
432.43	4084
433.657	4040
434.883	4108
436.111	4138
437.338	4102
438.565	4078
439.791	4212
441.017	4178
442.244	4278
443.469	4282
444.695	4288
445.921	4272
447.146	4318
448.37	4314
449.596	4344
450.821	4396
452.045	4320
453.27	4370
454.493	4380
455.717	4408
456.94	4394
458.165	4444
459.387	4446
460.61	4542
461.833	4592
463.056	4548
464.278	4572
465.5	4634
466.722	4630
467.945	4666
469.166	4626
470.387	4686
471.608	4796
472.829	4796
474.049	4812
475.271	4862
476.491	4858
477.711	4872
478.931	4922
480.15	4950
481.37	4974
482.589	4984
483.808	4994
485.027	5044
486.247	5062
487.465	5072
488.683	5128
489.901	5146
491.119	5174
492.337	5210
493.554	5270
494.771	5304
495.988	5382
497.205	5290
498.422	5290
499.638	5358
500.854	5406
502.07	5510
503.286	5478
504.502	5514
505.717	5530
506.933	5616
508.148	5658
509.363	5624
510.577	5642
511.792	5660
513.005	5698
514.219	5694
515.433	5720
516.647	5818
517.86	5780
519.073	5810
520.287	5870
521.5	5924
522.711	5806
523.924	5816
525.136	6020
526.348	5980
527.56	5998
528.772	5974
529.982	6148
531.194	6002
532.405	6100
533.616	6092
534.825	6196
536.036	6184
537.246	6142
538.457	6140
539.665	6300
540.875	6380
542.085	6328
543.294	6398
544.502	6422
545.712	6442
546.92	6464
548.128	6436
549.336	6474
550.545	6720
551.751	6516
552.959	6574
554.167	6694
555.373	6736
556.581	6738
557.788	6742
558.994	6796
560.2	6782
561.406	6866
562.612	6914
563.817	7006
565.023	7008
566.229	6958
567.433	7072
568.639	7078
569.843	7048
571.048	7100
572.251	7292
573.456	7226
574.659	7304
575.863	7238
577.066	7398
578.27	7378
579.472	7404
580.676	7420
581.878	7656
583.081	7476
584.283	7654
585.484	7670
586.687	7732
587.888	7742
589.09	7814
590.291	7842
591.493	7962
592.693	7926
593.893	7988
595.094	7978
596.294	7984
597.494	8066
598.694	8088
599.894	8218
601.093	8180
602.293	8288
603.491	8340
604.69	8402
605.889	8452
607.087	8492
608.285	8536
609.483	8622
610.682	8658
611.879	8604
613.076	8822
614.273	8844
615.471	8856
616.667	8878
617.864	8952
619.06	8962
620.256	9044
621.453	9310
622.648	9304
623.844	9188
625.039	9302
626.234	9464
627.429	9384
628.625	9592
629.819	9538
631.013	9588
632.208	9566
633.401	9842
634.595	9826
635.789	9870
636.982	9954
638.175	10060
639.369	10016
640.562	10118
641.755	10200
642.947	10220
644.139	10238
645.331	10286
646.523	10424
647.715	10444
648.906	10504
650.097	10592
651.288	10602
652.479	10564
653.67	10784
654.86	10772
656.051	10926
657.241	10912
658.429	10962
659.619	11122
660.808	11152
661.998	11108
663.187	11272
664.376	11306
665.565	11400
666.753	11548
667.942	11576
669.13	11566
670.317	11670
671.505	11698
672.692	11784
673.88	11724
675.067	11752
676.254	11866
677.44	12100
678.627	12114
679.813	12078
681	12304
682.184	12310
683.37	12338
684.556	12336
685.742	12326
686.926	12554
688.111	12478
689.296	12724
690.481	12680
691.664	12930
692.849	12880
694.033	12800
695.216	13070
696.4	13082
697.584	13132
698.766	13354
699.949	13314
701.133	13454
702.314	13552
703.497	13528
704.678	13642
705.861	13762
707.043	13976
708.224	14146
709.406	14170
710.586	14204
711.768	14080
712.949	14318
714.129	14260
715.31	14486
716.489	14408
717.67	14718
718.849	14726
720.029	14850
721.208	14860
722.388	15098
723.566	15006
724.746	15190
725.924	15366
727.103	15508
728.28	15530
729.458	15488
730.636	15744
731.814	15656
732.992	15886
734.168	15938
735.345	16154
736.523	16166
737.699	16378
738.876	16328
740.052	16554
741.227	16560
742.404	16866
743.579	16744
744.754	16760
745.931	16922
747.105	17152
748.28	17274
749.455	17414
750.629	17356
751.803	17558
752.977	17576
754.152	17578
755.325	17644
756.499	17830
757.672	18010
758.846	17924
760.018	18240
761.191	18260
762.363	18336
763.535	18374
764.708	18508
765.88	18710
767.052	18780
768.223	18732
769.394	18950
770.565	19114
771.737	19208
772.908	19216
774.078	19190
775.249	19494
776.419	19568
777.589	19848
778.758	20048
779.928	19948
781.097	20154
782.266	20368
783.435	20340
784.604	20358
785.773	20572
786.941	20832
788.11	20884
789.278	20910
790.446	21048
791.613	21184
792.781	21320
793.948	21522
795.115	21600
796.282	21780
797.449	21976
798.616	22032
799.782	22328
800.948	22524
802.115	22552
803.28	22640
804.446	22694
805.612	22896
806.777	23032
807.941	23134
809.106	23160
810.271	23514
811.435	23586
812.6	23706
813.764	23994
814.927	24136
816.091	24178
817.254	24390
818.418	24758
819.581	24748
820.743	24856
821.906	24986
823.069	25356
824.232	25344
825.393	25754
826.555	25652
827.717	25856
828.879	25940
830.039	26452
831.201	26564
832.362	26738
833.522	26786
834.683	26782
835.844	27118
837.003	27142
838.164	27608
839.324	27724
840.483	27974
841.643	28038
842.801	28256
843.961	28358
845.12	28522
846.278	28686
847.437	28962
848.594	29132
849.753	29136
850.91	29270
852.069	29670
853.227	29784
854.383	29992
855.541	30258
856.697	30488
857.855	30610
859.011	30560
860.168	31014
861.323	31004
862.48	31152
863.635	31240
864.79	31404
865.946	31976
867.101	31842
868.257	32084
869.411	32422
870.567	32430
871.721	32472
872.874	32982
874.029	33128
875.183	33308
876.336	33310
877.49	33400
878.643	33664
879.796	33982
880.95	34182
882.102	34134
883.254	34416
884.407	34382
885.559	34796
886.711	34814
887.862	35050
889.015	35194
890.166	35228
891.317	35570
892.467	35982
893.619	35892
894.77	36094
895.92	36106
897.07	36772
898.221	36536
899.371	36894
900.52	36996
901.669	37196
902.819	37440
903.968	37794
905.116	37776
906.266	38060
907.415	38158
908.563	38490
909.711	38742
910.859	38824
912.007	38850
913.154	39196
914.301	39506
915.449	39802
916.596	39676
917.742	40090
918.889	40268
920.036	40250
921.183	40744
922.329	41008
923.475	41176
924.621	41194
925.765	41290
926.911	41996
928.056	41912
929.201	42390
930.346	42444
931.49	42814
932.635	43156
933.779	43070
934.924	43676
936.068	43980
937.211	43934
938.355	44108
939.498	44586
940.64	44800
941.784	45294
942.926	45292
944.069	45384
945.212	46012
946.354	45958
947.495	46220
948.637	46466
949.779	46932
950.921	47324
952.062	47570
953.202	47704
954.344	47744
955.484	48420
956.625	48142
957.765	48688
958.905	49032
960.045	49300
961.184	49496
962.324	49890
963.464	50012
964.604	50392
965.742	50746
966.881	50848
968.02	50948
969.158	51430
970.296	51634
971.434	52092
972.572	52034
973.71	52422
974.847	52696
975.985	52900
977.121	53112
978.259	53362
979.396	53690
980.532	53860
981.669	54362
982.804	54540
983.941	54552
985.076	55110
986.212	55128
987.347	55344
988.483	55640
989.617	55972
990.753	56268
991.887	56424
993.022	56372
994.156	57058
995.29	57108
996.424	57396
997.558	57554
998.692	58092
999.825	58056
1000.96	58408
1002.09	58646
1003.22	59038
1004.36	59256
1005.49	59662
1006.62	59618
1007.75	60264
1008.89	60976
1010.02	60894
1011.15	61214
1012.28	61676
1013.41	62216
1014.54	62196
1015.67	62438
1016.8	62726
1017.93	63158
1019.07	63370
1020.19	63670
1021.32	64076
1022.45	64282
1023.58	64535
1024.71	64535
1025.84	64535
1026.97	64535
1028.1	64535
1029.23	64535
1030.36	64535
1031.49	64535
1032.61	64535
1033.74	64535
1034.87	64535
1036	64535
1037.12	64535
1038.25	64535
1039.38	64535
1040.5	64535
1041.63	64535
1042.76	64535
1043.88	64535
1045.01	64535
1046.14	64535
1047.26	64535
1048.39	64535
1049.51	64535
1050.64	64535
1051.76	64535
1052.89	64535
1054.01	64535
1055.14	64535
1056.26	64535
1057.38	64535
1058.51	64535
1059.63	64535
1060.75	64535
1061.88	64535
1063	64535
1064.12	64535
1065.25	64535
1066.37	64535
1067.49	64535
1068.61	64535
1069.73	64535
1070.86	64535
1071.98	64535
1073.1	64535
1074.22	64535
1075.34	64535
1076.46	64535
1077.58	64535
1078.7	64535
1079.82	64535
1080.94	64535
1082.06	64535
1083.18	64535
1084.3	64535
1085.42	64535
1086.54	64535
1087.66	64535
1088.78	64535
1089.9	64535
1091.02	64535
1092.14	64535
1093.25	64535
1094.37	64535
1095.49	64535
1096.61	64535
1097.72	64535
1098.84	64535
1099.96	64535
1101.08	64535
1102.19	64535
1103.31	64535
1104.43	64535
1105.54	64535
1106.66	64535
1107.77	64535
1108.89	64535
1110	64535
1111.12	64535
1112.23	64535
1113.35	64535
1114.46	64535
1115.58	64535
1116.69	64535
1117.81	64535
1118.92	64535
1120.03	64535
1121.15	64535
1122.26	64535
1123.37	64535
1124.49	64535
1125.6	64535
1126.71	64535
1127.83	64535
1128.94	64535
1130.05	64535
1131.16	64535
1132.27	64535
1133.39	64535
1134.5	64535
1135.61	64535
1136.72	64535
1137.83	64535
1138.94	64535
1140.05	64535
1141.16	64535
1142.27	64535
1143.38	64535
1144.49	64535
1145.6	64535
1146.71	64535
1147.82	64535
1148.93	64535
1150.04	64535
1151.15	64535
1152.26	64535
1153.36	64535
1154.47	64535
1155.58	64535
1156.69	64535
1157.8	64535
1158.9	64535
1160.01	64535
1161.12	64535
1162.22	64535
1163.33	64535
1164.44	64535
1165.54	64535
1166.65	64535
1167.76	64535
1168.86	64535
1169.97	64535
1171.07	64535
1172.18	64535
1173.28	64535
1174.39	64535
1175.49	64535
1176.6	64535
1177.7	64535
1178.81	64535
1179.91	64535
1181.02	64535
1182.12	64535
1183.22	64535
1184.33	64535
1185.43	64535
1186.53	64535
1187.63	64535
1188.74	64535
1189.84	64535
1190.94	64535
1192.04	64535
1193.15	64535
1194.25	64535
1195.35	64535
1196.45	64535
1197.55	64535
1198.65	64535
1199.75	64535
1200.85	64535
1201.95	64535
1203.05	64535
1204.16	64535
1205.25	64535
1206.35	64535
1207.45	64535
1208.55	64535
1209.65	64535
1210.75	64535
1211.85	64535
1212.95	64535
1214.05	64535
1215.15	64535
1216.24	64535
1217.34	64535
1218.44	64535
1219.54	64535
1220.64	64535
1221.73	64535
1222.83	64535
1223.93	64535
1225.02	64535
1226.12	64535
1227.22	64535
1228.31	64535
1229.41	64535
1230.5	64535
1231.6	64535
1232.7	64535
1233.79	64535
1234.89	64535
1235.98	64535
1237.08	64535
1238.17	64535
1239.26	64535
1240.36	64535
1241.45	64535
1242.55	64535
1243.64	64535
1244.73	64535
1245.83	64535
1246.92	64535
1248.01	64535
1249.11	64535
1250.2	64535
1251.29	64535
1252.38	64535
1253.48	64535
1254.57	64535
1255.66	64535
1256.75	64535
1257.84	64535
1258.93	64535
1260.03	64535
1261.12	64535
1262.21	64535
1263.3	64535
1264.39	64535
1265.48	64535
1266.57	64535
1267.66	64535
1268.75	64535
1269.84	64535
1270.93	64535
1272.02	64535
1273.11	64535
1274.19	64535
1275.28	64535
1276.37	64535
1277.46	64535
1278.55	64535
1279.64	64535
1280.72	64535
1281.81	64535
1282.9	64535
1283.98	64535
1285.07	64535
1286.16	64535
1287.25	64535
1288.33	64535
1289.42	64535
1290.5	64535
1291.59	64535
1292.68	64532.1
1293.76	64523.9
1294.85	64505.3
1295.93	64469.4
1297.02	64451
1298.1	64396.6
1299.19	64341.4
1300.27	64320.7
1301.36	64227.4
1302.44	64162.5
1303.53	64159.8
1304.61	64138.8
1305.69	64050.3
1306.78	63962.5
1307.86	63863.9
1308.94	63770.9
1310.03	63648.9
1311.11	63579.2
1312.19	63562.5
1313.27	63462.9
1314.36	63301.7
1315.44	63278.4
1316.52	63098.6
1317.6	62965.9
1318.68	62948.2
1319.77	62793.5
1320.85	62642.9
1321.93	62556.6
1323.01	62405.4
1324.09	62336.7
1325.17	62170.5
1326.25	61947.1
1327.33	61743.9
1328.41	61643.7
1329.49	61523.5
1330.57	61385.3
1331.65	61174.3
1332.73	60936.9
1333.81	60796.9
1334.89	60558
1335.97	60357.7
1337.04	60380.9
1338.12	60114.7
1339.2	59994.4
1340.28	59727.5
1341.36	59460.1
1342.44	59380
1343.51	59097
1344.59	58905.4
1345.67	58654.7
1346.75	58496.2
1347.82	58337.9
1348.9	58016.2
1349.98	57894.3
1351.05	57559.7
1352.13	57308.2
1353.2	57030.5
1354.28	56874
1355.36	56769.1
1356.43	56356.1
1357.51	56169.2
1358.58	55771.9
1359.66	55670.9
1360.73	55325.2
1361.81	55073.3
1362.88	54771.3
1363.96	54680.9
1365.03	54436.3
1366.1	53941.7
1367.18	53897.3
1368.25	53144.3
1369.33	52843.7
1370.4	52812.5
1371.47	52551.8
1372.54	52184.9
1373.62	51728.4
1374.69	51657.3
1375.76	51050.8
1376.83	50728.8
1377.91	50482.6
1378.98	50228.3
1380.05	50128.2
1381.12	49245.2
1382.19	49333.3
1383.26	49182.3
1384.34	48830.3
1385.41	48584.7
1386.48	48145.8
1387.55	48056.3
1388.62	47504.2
1389.69	47240.8
1390.76	47164.7
1391.83	46810.5
1392.9	46510.7
1393.02	46432
1394.1	46364
1395.17	46112
1396.25	46074
1397.32	45862
1398.4	45674
1399.47	45686
1400.55	45438
1401.62	44918
1402.69	45202
1403.77	45036
1404.84	44782
1405.91	44632
1406.99	44652
1408.06	44516
1409.13	44232
1410.2	44078
1411.27	44034
1412.35	43728
1413.42	43596
1414.49	43480
1415.56	43280
1416.63	42972
1417.7	43208
1418.78	42866
1419.85	42726
1420.92	42634
1421.99	42438
1423.06	42372
1424.13	42156
1425.2	42212
1426.27	42010
1427.34	41674
1428.41	41632
1429.48	41422
1430.55	41420
1431.61	41362
1432.68	41240
1433.75	41174
1434.82	40938
1435.89	40954
1436.96	40684
1438.02	40616
1439.09	40488
1440.16	40458
1441.23	40462
1442.3	40334
1443.36	40038
1444.43	40062
1445.5	40066
1446.56	39708
1447.63	39678
1448.7	39450
1449.76	39526
1450.83	39402
1451.89	39296
1452.96	39264
1454.02	39104
1455.09	39016
1456.15	39088
1457.22	38946
1458.28	38576
1459.35	38586
1460.41	38534
1461.48	38256
1462.54	38620
1463.61	38050
1464.67	38176
1465.73	37758
1466.8	37998
1467.86	38066
1468.92	37708
1469.98	37650
1471.05	37630
1472.11	37762
1473.17	37608
1474.24	37312
1475.3	37142
1476.36	37156
1477.42	37248
1478.48	36934
1479.54	36842
1480.6	36892
1481.67	36622
1482.73	36720
1483.79	36578
1484.85	36608
1485.91	36328
1486.97	36268
1488.03	36156
1489.09	36222
1490.15	35988
1491.21	36392
1492.27	35904
1493.33	35852
1494.38	35536
1495.44	35518
1496.5	35434
1497.56	35392
1498.62	35490
1499.68	35222
1500.74	35252
1501.79	34916
1502.85	34822
1503.91	34812
1504.97	34584
1506.02	34402
1507.08	34676
1508.14	34472
1509.2	34440
1510.25	34642
1511.31	34224
1512.36	34086
1513.42	34024
1514.48	33842
1515.53	33878
1516.59	33698
1517.64	33416
1518.7	33436
1519.75	33482
1520.81	33294
1521.86	33138
1522.92	33166
1523.97	33016
1525.02	32890
1526.08	33044
1527.13	32982
1528.19	32766
1529.24	32612
1530.29	32566
1531.35	32368
1532.4	32402
1533.45	32334
1534.51	31966
1535.56	31994
1536.61	31992
1537.66	31884
1538.72	31846
1539.77	31654
1540.82	31734
1541.87	31606
1542.92	31366
1543.97	31302
1545.02	31438
1546.08	31266
1547.13	31254
1548.18	31056
1549.23	31092
1550.28	30920
1551.33	31046
1552.38	30968
1553.43	30852
1554.48	30772
1555.53	30686
1556.57	30682
1557.62	30496
1558.67	30436
1559.72	30294
1560.77	30306
1561.82	30394
1562.87	30300
1563.92	30126
1564.96	30130
1566.01	30148
1567.06	30036
1568.11	29902
1569.15	29872
1570.2	29910
1571.25	29662
1572.29	29654
1573.34	29636
1574.39	29662
1575.43	29386
1576.48	29494
1577.53	29472
1578.57	29550
1579.62	29280
1580.66	29258
1581.71	29270
1582.75	29154
1583.8	29392
1584.84	29174
1585.89	29096
1586.93	29128
1587.98	29064
1589.02	28842
1590.06	28916
1591.11	28790
1592.15	28774
1593.2	28728
1594.24	28744
1595.28	28816
1596.33	28808
1597.37	28740
1598.41	28764
1599.45	28554
1600.5	28562
1601.54	28390
1602.58	28546
1603.62	28474
1604.66	28414
1605.7	28382
1606.75	28454
1607.79	28362
1608.83	28150
1609.87	28408
1610.91	28104
1611.95	28480
1612.99	28062
1614.03	27964
1615.07	28170
1616.11	28118
1617.15	27918
1618.19	27782
1619.23	27898
1620.27	27892
1621.31	27840
1622.35	27784
1623.39	27974
1624.43	27856
1625.46	27538
1626.5	27866
1627.54	27678
1628.58	27614
1629.62	27846
1630.65	27468
1631.69	27508
1632.73	27548
1633.77	27644
1634.8	27446
1635.84	27330
1636.88	27382
1637.91	27326
1638.95	27242
1639.99	27226
1641.02	27300
1642.06	27304
1643.09	27166
1644.13	26978
1645.16	27200
1646.2	26984
1647.23	26936
1648.27	27074
1649.3	27030
1650.34	26964
1651.37	26836
1652.41	26850
1653.44	26820
1654.47	26702
1655.51	26884
1656.54	26644
1657.57	26596
1658.61	26732
1659.64	26578
1660.67	26614
1661.71	26530
1662.74	26434
1663.77	26330
1664.81	26464
1665.84	26254
1666.87	26396
1667.9	26154
1668.93	26188
1669.96	26336
1671	25966
1672.03	26062
1673.06	25868
1674.09	26028
1675.12	26132
1676.15	25922
1677.18	25776
1678.21	25722
1679.24	25814
1680.27	25798
1681.3	25814
1682.33	25664
1683.36	25404
1684.39	25542
1685.42	25608
1686.45	25724
1687.47	25518
1688.5	25622
1689.53	25564
1690.56	25360
1691.59	25572
1692.62	25436
1693.64	25382
1694.67	25360
1695.7	25240
1696.73	25424
1697.75	25038
1698.78	25230
1699.81	25172
1700.83	25110
1701.86	25126
1702.89	25224
1703.91	24976
1704.94	24952
1705.97	24844
1706.99	25214
1708.02	24810
1709.04	24944
1710.07	25036
1711.09	24812
1712.12	25088
1713.14	24704
1714.17	25018
1715.19	24722
1716.22	24678
1717.24	24730
1718.26	24764
1719.29	24832
1720.31	24608
1721.33	24756
1722.36	24762
1723.38	24738
1724.4	24642
1725.43	24730
1726.45	24484
1727.47	24544
1728.49	24436
1729.52	24542
1730.54	24520
1731.56	24368
1732.58	24432
1733.6	24308
1734.63	24296
1735.65	24432
1736.67	24436
1737.69	24358
1738.71	24626
1739.73	24364
1740.75	24412
1741.77	24338
1742.79	24262
1743.81	24284
1744.83	24184
1745.85	24356
1746.87	24400
1747.89	24282
1748.91	24112
1749.93	24250
1750.95	24152
1751.97	24288
1752.98	24268
1754	24310
1755.02	24238
1756.04	24112
1757.06	24134
1758.07	24490
1759.09	24270
1760.11	24192
1761.13	24072
1762.14	24364
1763.16	24062
1764.18	24242
1765.19	24462
1766.21	24308
1767.23	24122
1768.24	24174
1769.26	23872
1770.28	23832
1771.29	24382
1772.31	24146
1773.32	24066
1774.34	23934
1775.35	24282
1776.37	23848
1777.38	24012
1778.4	24102
1779.41	24036
1780.43	23982
1781.44	24030
1782.45	24182
1783.47	24282
1784.48	24180
1785.49	24054
1786.51	24066
1787.52	23806
1788.53	24118
1789.55	24190
1790.56	24108
1791.57	24088
1792.58	24164
1793.6	24014
1794.61	24116
1795.62	23978
1796.63	23934
1797.64	24132
1798.66	23834
1799.67	24118
1800.68	23970
1801.69	23502
1802.7	24060
1803.71	23886
1804.72	23764
1805.73	23982
1806.74	23782
1807.75	23714
1808.76	23696
1809.77	23768
1810.78	23750
1811.79	23934
1812.8	23736
1813.81	23800
1814.82	23840
1815.83	23652
1816.84	23640
1817.84	23626
1818.85	23612
1819.86	23572
1820.87	23828
1821.88	23688
1822.88	23754
1823.89	23632
1824.9	23548
1825.91	23548
1826.91	23394
1827.92	23510
1828.93	23526
1829.93	23444
1830.94	23414
1831.95	23350
1832.95	23480
1833.96	23540
1834.97	23500
1835.97	23258
1836.98	23370
1837.98	23358
1838.99	23334
1839.99	23404
1841	23250
1842	23260
1843.01	23306
1844.01	23202
1845.02	23222
1846.02	23234
1847.02	23154
1848.03	23188
1849.03	23264
1850.03	23186
1851.04	23050
1852.04	23246
1853.04	23112
1854.05	23120
1855.05	23204
1856.05	23064
1857.05	23100
1858.06	22946
1859.06	23382
1860.06	23166
1861.06	22958
1862.06	23074
1863.07	22936
1864.07	23076
1865.07	23246
1866.07	23026
1867.07	23110
1868.07	23084
1869.07	22920
1870.07	23100
1871.07	22926
1872.07	23064
1873.07	22810
1874.07	23068
1875.07	23010
1876.07	22962
1877.07	22986
1878.07	22928
1879.07	22920
1880.07	22914
1881.07	22952
1882.07	22892
1883.06	22776
1884.06	23266
1885.06	23080
1886.06	22912
1887.06	22940
1888.05	22848
1889.05	22676
1890.05	22984
1891.05	22856
1892.04	22964
1893.04	23006
1894.04	23114
1895.03	23006
1896.03	22810
1897.03	22762
1898.02	22886
1899.02	22762
1900.01	22928
1901.01	22912
1902	22858
1903	23092
1903.99	22784
1904.99	23044
1905.98	22806
1906.98	23040
1907.97	23120
1908.97	22914
1909.96	22886
1910.96	22864
1911.95	23086
1912.94	22934
1913.94	22852
1914.93	22876
1915.93	22952
1916.92	22928
1917.91	22936
1918.9	22864
1919.9	22848
1920.89	22724
1921.88	22866
1922.87	22754
1923.87	22742
1924.86	22760
1925.85	22646
1926.84	22784
1927.83	22568
1928.82	22824
1929.82	22752
1930.81	22828
1931.8	22792
1932.79	22630
1933.78	22928
1934.77	22826
1935.76	22682
1936.75	22644
1937.74	22784
1938.73	22710
1939.72	22678
1940.71	22878
1941.7	22656
1942.69	22862
1943.68	22550
1944.67	22568
1945.65	22580
1946.64	22524
1947.63	22780
1948.62	22838
1949.61	22490
1950.6	22748
1951.58	22554
1952.57	22650
1953.56	22582
1954.55	22328
1955.53	22514
1956.52	22348
1957.51	22506
1958.5	22570
1959.48	22452
1960.47	22428
1961.45	22612
1962.44	22344
1963.43	22428
1964.41	22424
1965.4	22462
1966.38	22366
1967.37	22602
1968.35	22542
1969.34	22418
1970.32	22196
1971.31	22650
1972.29	22508
1973.28	22340
1974.26	22220
1975.25	22310
1976.23	22230
1977.22	22242
1978.2	22254
1979.18	21992
1980.17	22084
1981.15	22328
1982.13	22186
1983.12	22226
1984.1	22300
1985.08	22202
1986.06	22228
1987.05	22110
1988.03	22248
1989.01	22182
1989.99	22220
1990.97	22232
1991.96	22066
1992.94	22108
1993.92	22164
1994.9	22202
1995.88	22048
1996.86	22080
1997.84	22218
1998.82	22016
1999.8	22300
2000.78	21960
2001.76	22144
2002.74	21878
2003.72	22082
2004.7	22104
2005.68	22008
2006.66	22042
2007.64	22022
2008.62	22178
2009.6	22034
2010.58	22150
2011.56	21940
2012.54	22112
2013.51	21786
2014.49	22154
2015.47	21944
2016.45	21960
2017.43	21924
2018.4	21982
2019.38	21940
2020.36	22016
2021.34	21948
2022.31	21998
2023.29	21838
2024.27	21900
2025.24	22062
2026.22	21762
2027.2	21864
2028.17	21859
2029.15	21854
2030.12	21744
2031.1	21854
2032.07	21770
2033.05	21680
2034.03	21820
2035	21954
2035.98	21848
2036.95	21934
2037.93	21768
2038.9	21790
2039.87	21872
2040.85	21926
2041.82	21868
2042.8	21804
2043.77	21730
2044.74	21660
2045.72	21782
2046.69	21720
2047.66	21720
2048.64	21716
2049.61	21756
2050.58	21750
2051.55	21866
2052.53	21728
2053.5	21594
2054.47	21680
2055.44	21832
2056.41	21722
2057.39	21638
2058.36	21660
2059.33	21740
2060.3	21620
2061.27	21604
2062.24	21668
2063.21	21578
2064.18	21656
2065.15	21624
2066.12	21640
2067.09	21616
2068.06	21676
2069.03	21690
2070	21632
2070.97	21340
2071.94	21526
2072.91	21584
2073.88	21688
2074.85	21620
2075.82	21532
2076.79	21546
2077.76	21404
2078.73	21616
2079.69	21330
2080.66	21458
2081.63	21556
2082.6	21424
2083.56	21408
2084.53	21400
2085.5	21336
2086.47	21368
2087.43	21380
2088.4	21440
2089.37	21374
2090.33	21344
2091.3	21404
2092.27	21464
2093.23	21516
2094.2	21438
2095.17	21346
2096.13	21334
2097.1	21382
2098.06	21334
2099.03	21424
2099.99	21430
2100.96	21340
2101.92	21488
2102.89	21410
2103.85	21344
2104.82	21328
2105.78	21384
2106.74	21428
2107.71	21320
2108.67	21488
2109.64	21246
2110.6	21214
2111.56	21236
2112.53	21368
2113.49	21324
2114.45	21242
2115.41	21282
2116.38	21210
2117.34	21364
2118.3	21240
2119.26	21142
2120.23	21244
2121.19	21238
2122.15	21210
2123.11	21262
2124.07	21364
2125.03	21216
2126	21250
2126.96	21066
2127.92	21266
2128.88	21122
2129.84	20968
2130.8	21292
2131.76	21014
2132.72	21178
2133.68	21046
2134.64	21050
2135.6	21074
2136.56	21062
2137.52	21046
2138.48	21066
2139.44	21090
2140.4	21162
2141.35	21010
2142.31	21146
2143.27	21112
2144.23	20848
2145.19	21114
2146.15	21028
2147.1	20916
2148.06	21120
2149.02	20828
2149.98	21074
2150.94	20880
2151.89	20736
2152.85	20968
2153.81	20942
2154.76	21028
2155.72	20732
2156.68	20836
2157.63	20980
2158.59	20686
2159.55	20778
2160.5	20740
2161.46	20970
2162.41	20698
2163.37	20760
2164.32	20860
2165.28	20654
2166.23	20944
2167.19	20672
2168.14	20586
2169.1	20750
2170.05	20638
2171.01	20586
2171.96	20540
2172.91	20694
2173.87	20646
2174.82	20590
2175.78	20610
2176.73	20608
2177.68	20556
2178.64	20560
2179.59	20362
2180.54	20446
2181.49	20512
2182.45	20480
2183.4	20546
2184.35	20516
2185.3	20416
2186.26	20362
2187.21	20216
2188.16	20342
2189.11	20460
2190.06	20548
2191.01	20270
2191.96	20472
2192.92	20106
2193.87	20122
2194.82	20168
2195.77	20130
2196.72	20048
2197.67	20158
2198.62	20044
2199.57	20166
2200.52	20182
2201.47	20056
2202.42	20230
2203.37	20040
2204.32	20088
2205.27	20060
2206.22	20156
2207.16	20088
2208.11	20240
2209.06	19934
2210.01	20018
2210.96	19948
2211.91	19972
2212.85	20040
2213.8	20122
2214.75	20020
2215.7	20034
2216.64	20084
2217.59	19958
2218.54	20050
2219.49	20024
2220.43	20036
2221.38	20004
2222.33	20012
2223.27	20007.4
2224.22	20004.9
2225.16	19838.1
2226.11	19992.1
2227.06	20008.1
2228	19932.9
2228.95	19935.7
2229.89	20055.3
2230.84	20062.6
2231.78	19991
2232.73	20018.5
2233.67	20004.9
2234.62	19976.5
2235.56	19985.4
2236.51	20114.1
2237.45	19979.2
2238.4	20110.3
2239.34	19962.5
2240.28	19979.5
2241.23	19939.8
2242.17	19960.1
2243.11	20071.3
2244.06	19977.9
2245	19978.9
2245.94	20008.2
2246.89	20011.6
2247.83	20033.8
2248.77	20127.4
2249.71	19900.5
2250.66	20022.3
2251.6	20093.1
2252.54	20022.9
2253.48	20050.3
2254.42	20160.2
2255.37	20042
2256.31	20047.2
2257.25	19985.1
2258.19	20011.3
2259.13	20061.9
2260.07	20071.1
2261.01	20061
2261.95	20026.6
2262.89	20007.2
2263.83	19989.6
2264.77	20164.2
2265.71	20037.9
2266.65	20114.5
2267.59	20048.8
2268.53	20020.7
2269.47	19954.5
2270.41	20088.5
2271.35	20076
2272.29	19992.3
2273.23	19954.4
2274.17	19885.4
2275.1	19939.9
2276.04	20009.2
2276.98	19945.3
2277.92	20032.5
2278.86	20043.7
2279.8	20005.6
2280.73	19948.1
2281.67	19885.2
2282.61	20000.9
2283.55	19892.9
2284.48	19877.4
2285.42	19939.1
2286.36	19936.8
2287.29	19851.8
2288.23	19900.8
2289.17	19909.6
2290.1	19959.4
2291.04	19810
2291.98	19795.4
2292.91	19843.3
2293.85	19757.1
2294.78	19730.2
2295.72	19788.3
2296.65	19796.4
2297.59	19964
2298.52	19816.5
2299.46	19728.3
2300.39	19736.7
2301.33	19829.4
2302.26	19906.2
2303.2	19803.8
2304.13	19683.8
2305.06	19609.2
2306	19640.2
2306.93	19669.7
2307.87	19617.7
2308.8	19660.4
2309.73	19693.2
2310.67	19601.3
2311.6	19546.8
2312.53	19617.3
2313.46	19677.4
2314.4	19588.8
2315.33	19460.7
2316.26	19475.7
2316.69	19512
2317.62	19662
2318.56	19452
2319.5	19568
2320.43	19220
2321.37	19496
2322.31	19554
2323.24	19570
2324.18	19480
2325.12	19280
2326.05	19388
2326.99	19252
2327.92	19422
2328.86	19280
2329.79	19244
2330.73	19124
2331.66	19304
2332.6	19434
2333.53	19328
2334.47	19172
2335.4	19082
2336.34	19268
2337.27	19158
2338.2	19140
2339.14	19122
2340.07	19018
2341.01	19088
2341.94	18968
2342.87	18966
2343.81	19002
2344.74	18900
2345.67	19050
2346.6	18996
2347.54	18848
2348.47	18878
2349.4	18882
2350.33	18826
2351.27	18702
2352.2	18888
2353.13	18724
2354.06	18712
2354.99	18624
2355.93	18602
2356.86	18782
2357.79	18646
2358.72	18606
2359.65	18634
2360.58	18586
2361.51	18580
2362.44	18490
2363.37	18424
2364.3	18338
2365.23	18360
2366.16	18436
2367.09	18336
2368.02	18424
2368.95	18352
2369.88	18368
2370.81	18300
2371.74	18142
2372.67	18158
2373.6	18126
2374.52	18036
2375.45	18236
2376.38	18080
2377.31	17886
2378.24	18102
2379.17	18056
2380.09	17910
2381.02	18006
2381.95	17856
2382.88	18038
2383.8	17910
2384.73	17800
2385.66	18020
2386.58	17744
2387.51	17900
2388.44	17838
2389.36	17642
2390.29	17762
2391.22	17682
2392.14	17634
2393.07	17750
2393.99	17656
2394.92	17338
2395.85	17548
2396.77	17384
2397.7	17364
2398.62	17420
2399.55	17360
2400.47	17268
2401.4	17410
2402.32	17280
2403.25	17086
2404.17	17268
2405.09	17268
2406.02	17100
2406.94	17298
2407.86	17160
2408.79	17142
2409.71	17070
2410.63	16930
2411.56	16972
2412.48	16866
2413.4	16944
2414.33	16758
2415.25	17052
2416.17	16824
2417.09	16688
2418.02	16826
2418.94	16788
2419.86	16624
2420.78	16666
2421.7	16532
2422.63	16664
2423.55	16500
2424.47	16484
2425.39	16438
2426.31	16532
2427.23	16474
2428.15	16458
2429.07	16232
2429.99	16456
2430.91	16396
2431.83	16324
2432.75	16288
2433.67	16282
2434.59	16214
2435.51	16144
2436.43	16224
2437.35	16194
2438.27	16068
2439.19	16136
2440.11	16042
2441.03	15994
2441.95	16042
2442.86	16116
2443.78	15964
2444.7	15824
2445.62	15874
2446.54	15570
2447.46	15838
2448.37	15748
2449.29	15652
2450.21	15592
2451.13	15834
2452.04	15656
2452.96	15588
2453.88	15510
2454.79	15548
2455.71	15550
2456.63	15456
2457.54	15422
2458.46	15406
2459.38	15262
2460.29	15342
2461.21	15338
2462.12	15296
2463.04	15064
2463.95	15324
2464.87	15124
2465.78	15074
2466.7	15112
2467.61	15080
2468.53	15200
2469.44	15028
2470.36	15078
2471.27	14972
2472.19	14896
2473.1	14806
2474.01	14822
2474.93	14702
2475.84	14706
2476.76	14830
2477.67	14720
2478.58	14802
2479.5	14694
2480.41	14712
2481.32	14776
2482.23	14368
2483.15	14602
2484.06	14452
2484.97	14508
2485.88	14294
2486.8	14406
2487.71	14410
2488.62	14384
2489.53	14392
2490.44	14386
2491.35	14126
2492.26	14208
2493.18	14292
2494.09	14042
2495	14116
2495.91	14156
2496.82	14004
2497.73	13898
2498.64	13898
2499.55	13936
2500.46	14060
2501.37	13960
2502.28	13848
2503.19	13914
2504.1	13754
2505.01	13770
2505.92	13784
2506.83	13644
2507.74	13716
2508.65	13718
2509.55	13684
2510.46	13596
2511.37	13562
2512.28	13486
2513.19	13596
2514.09	13530
2515	13468
2515.91	13512
2516.82	13394
2517.73	13284
2518.63	13298
2519.54	13352
2520.45	13238
2521.35	13272
2522.26	13164
2523.17	13270
2524.07	13204
2524.98	13198
2525.89	13036
2526.79	12966
2527.7	12960
2528.6	12982
2529.51	12838
2530.42	12852
2531.32	12820
2532.23	12776
2533.13	12832
2534.04	12760
2534.94	12662
2535.85	12750
2536.75	12546
2537.66	12594
2538.56	12598
2539.47	12642
2540.37	12690
2541.27	12478
2542.18	12630
2543.08	12454
2543.98	12526
2544.89	12502
2545.79	12420
2546.7	12444
2547.6	12312
2548.5	12378
2549.4	12284
2550.31	12254
2551.21	12250
2552.11	12264
2553.01	12174
2553.92	12108
2554.82	12204
2555.72	12100
2556.62	12134
2557.52	11994
2558.42	12018
2559.33	12020
2560.23	12026
2561.13	11930
2562.03	12056
2562.93	11926
2563.83	11812
2564.73	11910
2565.63	11786
2566.53	11854
2567.43	11702
2568.33	11814
2569.23	11728
2570.13	11702
2571.03	11566
2571.93	11552
2572.83	11478
2573.73	11612
2574.63	11534
2575.53	11430
2576.43	11430
2577.33	11410
2578.22	11440
2579.12	11324
2580.02	11356
2580.92	11340
2581.82	11298
2582.72	11450
2583.61	11166
2584.51	11158
2585.41	11286
2586.31	11214
2587.2	11110
2588.1	11074
2589	11086
2589.89	11106
2590.79	10996
2591.69	10884
2592.58	10994
2593.48	11034
2594.38	10984
2595.27	10892
2596.17	10818
2597.06	10892
2597.96	10668
2598.86	10734
2599.75	10612
2600.65	10704
2601.54	10674
2602.44	10680
2603.33	10614
2604.23	10554
2605.12	10582
2606.02	10568
2606.91	10464
2607.81	10494
2608.7	10554
2609.59	10664
2610.49	10430
2611.38	10430
2612.27	10276
2613.17	10328
2614.06	10534
2614.95	10278
2615.85	10224
2616.74	10240
2617.63	10178
2618.53	10140
2619.42	10248
2620.31	10236
2621.2	10208
2622.1	10032
2622.99	10126
2623.88	10098
2624.77	10124
2625.66	10048
2626.55	10022
2627.45	10040
2628.34	9964
2629.23	9950
2630.12	9928
2631.01	9952
2631.9	9824
2632.79	9936
2633.68	9820
2634.57	9696
2635.46	9674
2636.35	9610
2637.24	9694
2638.13	9708
2639.02	9718
2639.91	9634
2640.8	9616
2641.69	9532
2642.58	9572
2643.47	9560
2644.36	9478
2645.25	9390
2646.14	9426
2647.02	9246
2647.91	9372
2648.8	9324
2649.69	9350
2650.58	9262
2651.46	9268
2652.35	9270
2653.24	9386
2654.13	9146
2655.01	9196
2655.9	9148
2656.79	9142
2657.68	9200
2658.56	9110
2659.45	9140
2660.34	9102
2661.22	9148
2662.11	9076
2662.99	9066
2663.88	9100
2664.77	9082
2665.65	9044
2666.54	9068
2667.42	9000
2668.31	8930
2669.2	8914
2670.08	8910
2670.96	8992
2671.85	8892
2672.73	8908
2673.62	8828
2674.5	8836
2675.39	8824
2676.27	8806
2677.16	8696
2678.04	8796
2678.93	8576
2679.81	8634
2680.69	8590
2681.58	8704
2682.46	8656
2683.34	8578
2684.23	8606
2685.11	8498
2685.99	8522
2686.87	8336
2687.76	8420
2688.64	8488
2689.52	8346
2690.4	8428
2691.28	8416
2692.17	8426
2693.05	8102
2693.93	8382
2694.81	8418
2695.69	8286
2696.57	8294
2697.46	8258
2698.34	8184
2699.22	8134
2700.1	8098
2700.98	8140
2701.86	8176
2702.74	8036
2703.62	8146
2704.5	8074
2705.38	8030
2706.26	7974
2707.14	7930
2708.02	7854
2708.9	7884
2709.78	7866
2710.66	7948
2711.54	7868
2712.42	7812
2713.3	7856
2714.17	7756
2715.05	7736
2715.93	7810
2716.81	7676
2717.69	7684
2718.57	7628
2719.44	7578
2720.32	7642
2721.2	7614
2722.08	7548
2722.95	7534
2723.83	7504
2724.71	7536
2725.59	7496
2726.46	7594
2727.34	7562
2728.22	7340
2729.09	7300
2729.97	7434
2730.85	7320
2731.72	7456
2732.6	7302
2733.47	7410
2734.35	7298
2735.23	7370
2736.1	7260
2736.98	7206
2737.85	7226
2738.73	7108
2739.6	7112
2740.48	7166
2741.35	7066
2742.23	7102
2743.1	7052
2743.98	7106
2744.85	7022
2745.72	7026
2746.6	6890
2747.47	6918
2748.35	6962
2749.22	6916
2750.09	6892
2750.97	6810
2751.84	6842
2752.71	6932
2753.59	6782
2754.46	6846
2755.33	6686
2756.2	6774
2757.08	6726
2757.95	6794
2758.82	6646
2759.69	6728
2760.57	6686
2761.44	6634
2762.31	6674
2763.18	6570
2764.05	6538
2764.92	6604
2765.79	6498
2766.67	6518
2767.54	6432
2768.41	6456
2769.28	6416
2770.15	6462
2771.02	6388
2771.89	6528
2772.76	6378
2773.63	6436
2774.5	6260
2775.37	6340
2776.24	6400
2777.11	6288
2777.98	6334
2778.85	6366
2779.72	6238
2780.59	6240
2781.46	6264
2782.32	6276
2783.19	6228
2784.06	6158
2784.93	6154
2785.8	6078
2786.67	6086
2787.53	6146
2788.4	6056
2789.27	6088
2790.14	6088
2791.01	5968
2791.87	6080
2792.74	5994
2793.61	5968
2794.47	5956
2795.34	5944
2796.21	5906
2797.07	5822
2797.94	5844
2798.81	5938
2799.67	5816
2800.54	5756
2801.41	5848
2802.27	5790
2803.14	5776
2804	5732
2804.87	5792
2805.74	5816
2806.6	5798
2807.47	5728
2808.33	5710
2809.2	5606
2810.06	5684
2810.93	5594
2811.79	5580
2812.65	5622
2813.52	5580
2814.38	5512
2815.25	5524
2816.11	5496
2816.98	5466
2817.84	5504
2818.7	5436
2819.56	5446
2820.43	5440
2821.29	5424
2822.16	5348
2823.02	5362
2823.88	5288
2824.74	5270
2825.61	5298
2826.47	5242
2827.33	5332
2828.19	5250
2829.05	5288
2829.92	5250
2830.78	5222
2831.64	5200
2832.5	5144
2833.36	5124
2834.23	5188
2835.09	5084
2835.95	5062
2836.81	5094
2837.67	5066
2838.53	4990
2839.39	5052
2840.25	4984
2841.11	5068
2841.97	4966
2842.83	4970
2843.69	4930
2844.55	4904
2845.41	4902
2846.27	4916
2847.13	4922
2847.99	4868
2848.85	4858
2849.71	4874
2850.57	4816
2851.43	4750
2852.28	4778
2853.14	4784
2854	4882
2854.86	4772
2855.72	4726
2856.58	4776
2857.43	4630
2858.29	4676
2859.15	4662
2860.01	4584
2860.86	4716
2861.72	4654
2862.58	4640
2863.44	4576
2864.29	4604
2865.15	4582
2866.01	4542
2866.86	4568
2867.72	4534
2868.58	4490
2869.43	4590
2870.29	4500
2871.14	4380
2872	4484
2872.86	4430
2873.71	4419
2874.57	4408
2875.42	4418
2876.28	4366
2877.13	4362
2877.99	4372
2878.84	4322
2879.7	4338
2880.55	4302
2881.41	4300
2882.26	4336
2883.11	4256
2883.97	4278
2884.82	4284
2885.68	4212
2886.53	4214
2887.39	4214
2888.24	4182
2889.09	4166
2889.94	4072
2890.8	4140
2891.65	4180
2892.5	4104
2893.36	4146
2894.21	4084
2895.06	4158
2895.91	4102
2896.77	4064
2897.62	4120
2898.47	4022
2899.32	4032
2900.17	4050
2901.03	4118
2901.88	4040
2902.73	3982
2903.58	3992
2904.43	4008
2905.28	3970
2906.13	3974
2906.98	3990
2907.84	4034
2908.69	3980
2909.54	3898
2910.39	3916
2911.24	3952
2912.09	3988
2912.94	3846
2913.79	3810
2914.64	3894
2915.49	3854
2916.34	3848
2917.19	3860
2918.03	3816
2918.88	3856
2919.73	3866
2920.58	3786
2921.43	3816
2922.28	3788
2923.13	3728
2923.98	3768
2924.82	3694
2925.67	3808
2926.52	3746
2927.37	3752
2928.22	3670
2929.06	3756
2929.91	3708
2930.76	3696
2931.61	3684
2932.45	3742
2933.3	3736
2934.15	3668
2934.99	3634
2935.84	3678
2936.69	3670
2937.53	3580
2938.38	3608
2939.23	3614
2940.07	3624
2940.92	3546
2941.76	3538
2942.61	3600
2943.46	3576
2944.3	3532
2945.15	3518
2945.99	3496
2946.84	3544
2947.68	3588
2948.53	3514
2949.37	3500
2950.22	3402
2951.06	3476
2951.9	3462
2952.75	3424
2953.59	3482
2954.44	3442
2955.28	3402
2956.12	3402
2956.97	3418
2957.81	3412
2958.65	3358
2959.5	3398
2960.34	3398
2961.18	3366
2962.03	3308
2962.87	3430
2963.71	3336
2964.56	3342
2965.4	3276
2966.24	3316
2967.08	3318
2967.92	3348
2968.77	3306
2969.61	3356
2970.45	3274
2971.29	3238
2972.13	3278
2972.97	3232
2973.82	3292
2974.66	3220
2975.5	3208
2976.34	3238
2977.18	3176
2978.02	3182
2978.86	3144
2979.7	3236
2980.54	3162
2981.38	3128
2982.22	3162
2983.06	3126
2983.9	3056
2984.74	3212
2985.58	3102
2986.42	3162
2987.26	3076
2988.1	3104
2988.94	3146
2989.78	3104
2990.61	3022
2991.45	3060
2992.29	3096
2993.13	3000
2993.97	3090
2994.81	3028
2995.64	2984
2996.48	2998
2997.32	3024
2998.16	2986
2999	2962
2999.83	2998
