#Acq. time (s)=	10
#Accumulations=	1
#Range (cm-¹)=	200...3000
#Windows=	3
#Autofocus=	Off
#AutoExposure=	Off
#Spike filter=	Off
#Delay time (s)=	0
#Binning=	1
#Readout mode=	Signal
#DeNoise=	Off
#ICS correction=	Off
#Dark correction=	Off
#Inst. Process=	Off
#Instrument=	LabRAM HR Evol
#Detector=	Syncerity OE
#Objective=	x100_VIS
#Grating=	600 (500nm)
#ND Filter=	0.01%
#Laser=	633nm_Edge
#Hole=	100.021
#Range=	Visible
#Project=	Omar
#Sample=	03-07-23
#Site=	papal
#Title=	leaf
#Remark=	
#Date=	03.07.2023 17:03
#Acquired=	03.07.2023 17:03:37
201.713	124
202.98	122
204.247	122
205.513	114
206.778	142
208.045	134
209.311	130
210.576	108
211.84	122
213.106	126
214.371	124
215.636	138
216.899	116
218.164	116
219.428	132
220.692	126
221.955	130
223.219	126
224.482	132
225.744	120
227.007	120
228.27	132
229.531	136
230.794	146
232.055	146
233.317	150
234.579	134
235.839	130
237.1	138
238.362	150
239.621	148
240.882	134
242.141	142
243.402	140
244.661	148
245.921	142
247.179	148
248.439	166
249.698	146
250.956	140
252.215	148
253.473	150
254.731	146
255.988	144
257.246	166
258.503	168
259.761	144
261.017	164
262.273	162
263.53	166
264.786	160
266.042	156
267.298	160
268.554	166
269.809	174
271.063	174
272.319	156
273.573	180
274.828	174
276.082	178
277.336	158
278.591	174
279.844	182
281.097	158
282.351	182
283.603	178
284.855	164
286.109	170
287.361	176
288.613	204
289.866	188
291.117	186
292.368	190
293.62	186
294.871	190
296.121	188
297.372	200
298.623	196
299.873	188
301.123	192
302.372	194
303.622	210
304.872	186
306.121	196
307.37	212
308.618	198
309.866	200
311.116	206
312.364	216
313.611	218
314.859	212
316.106	216
317.353	200
318.6	230
319.848	222
321.095	214
322.341	218
323.587	228
324.833	244
326.079	218
327.324	214
328.569	228
329.814	234
331.059	238
332.304	224
333.548	234
334.792	234
336.037	220
337.28	248
338.524	236
339.767	216
341.011	228
342.254	254
343.497	248
344.739	244
345.982	252
347.224	232
348.466	244
349.708	258
350.95	258
352.191	256
353.432	234
354.673	244
355.914	256
357.155	250
358.394	236
359.634	252
360.874	266
362.114	246
363.354	274
364.593	266
365.832	254
367.07	266
368.309	290
369.548	268
370.786	268
372.024	254
373.261	268
374.499	274
375.736	280
376.974	278
378.211	248
379.447	286
380.684	280
381.92	304
383.157	284
384.392	286
385.628	286
386.864	266
388.098	272
389.333	286
390.569	320
391.802	294
393.037	294
394.272	304
395.505	312
396.739	316
397.973	292
399.206	316
400.44	326
401.673	298
402.905	330
404.138	298
405.37	332
406.602	318
407.835	340
409.066	320
410.298	328
411.528	338
412.76	332
413.99	346
415.221	312
416.451	328
417.682	360
418.911	348
420.142	350
421.371	360
422.601	348
423.83	360
425.059	352
426.288	344
427.517	350
428.745	364
429.974	354
431.201	386
432.43	366
433.657	378
434.883	366
436.111	364
437.338	388
438.565	348
439.791	396
441.017	382
442.244	364
443.469	384
444.695	398
445.921	376
447.146	400
448.37	378
449.596	380
450.821	410
452.045	384
453.27	380
454.493	420
455.717	402
456.94	416
458.165	408
459.387	392
460.61	416
461.833	404
463.056	410
464.278	424
465.5	418
466.722	430
467.945	396
469.166	426
470.387	440
471.608	426
472.829	400
474.049	446
475.271	464
476.491	418
477.711	448
478.931	412
480.15	464
481.37	436
482.589	446
483.808	470
485.027	454
486.247	478
487.465	462
488.683	452
489.901	468
491.119	484
492.337	492
493.554	474
494.771	490
495.988	506
497.205	478
498.422	488
499.638	484
500.854	492
502.07	494
503.286	504
504.502	506
505.717	506
506.933	496
508.148	502
509.363	508
510.577	504
511.792	516
513.005	498
514.219	512
515.433	532
516.647	526
517.86	496
519.073	544
520.287	514
521.5	568
522.711	542
523.924	544
525.136	554
526.348	534
527.56	536
528.772	546
529.982	544
531.194	532
532.405	536
533.616	526
534.825	586
536.036	564
537.246	572
538.457	582
539.665	588
540.875	566
542.085	564
543.294	560
544.502	568
545.712	560
546.92	564
548.128	584
549.336	582
550.545	586
551.751	616
552.959	596
554.167	560
555.373	614
556.581	606
557.788	618
558.994	602
560.2	626
561.406	582
562.612	626
563.817	626
565.023	612
566.229	608
567.433	626
568.639	630
569.843	622
571.048	634
572.251	674
573.456	654
574.659	684
575.863	654
577.066	666
578.27	674
579.472	688
580.676	680
581.878	650
583.081	660
584.283	676
585.484	708
586.687	690
587.888	686
589.09	720
590.291	730
591.493	710
592.693	732
593.893	734
595.094	720
596.294	734
597.494	760
598.694	740
599.894	750
601.093	738
602.293	744
603.491	756
604.69	776
605.889	776
607.087	778
608.285	764
609.483	804
610.682	796
611.879	776
613.076	818
614.273	784
615.471	782
616.667	778
617.864	792
619.06	778
620.256	810
621.453	836
622.648	836
623.844	816
625.039	820
626.234	862
627.429	848
628.625	864
629.819	846
631.013	892
632.208	886
633.401	874
634.595	868
635.789	902
636.982	868
638.175	894
639.369	910
640.562	934
641.755	946
642.947	926
644.139	938
645.331	904
646.523	916
647.715	916
648.906	956
650.097	958
651.288	962
652.479	950
653.67	954
654.86	956
656.051	990
657.241	992
658.429	996
659.619	956
660.808	990
661.998	1034
663.187	1012
664.376	1010
665.565	998
666.753	1024
667.942	1040
669.13	1058
670.317	1062
671.505	1070
672.692	1060
673.88	1098
675.067	1036
676.254	1100
677.44	1102
678.627	1092
679.813	1098
681	1088
682.184	1112
683.37	1120
684.556	1126
685.742	1112
686.926	1122
688.111	1128
689.296	1172
690.481	1130
691.664	1176
692.849	1178
694.033	1136
695.216	1150
696.4	1200
697.584	1214
698.766	1158
699.949	1210
701.133	1210
702.314	1242
703.497	1236
704.678	1250
705.861	1230
707.043	1204
708.224	1210
709.406	1244
710.586	1300
711.768	1280
712.949	1298
714.129	1308
715.31	1280
716.489	1334
717.67	1288
718.849	1328
720.029	1324
721.208	1292
722.388	1342
723.566	1382
724.746	1354
725.924	1408
727.103	1422
728.28	1412
729.458	1436
730.636	1414
731.814	1410
732.992	1436
734.168	1462
735.345	1456
736.523	1428
737.699	1492
738.876	1472
740.052	1504
741.227	1496
742.404	1498
743.579	1510
744.754	1552
745.931	1496
747.105	1538
748.28	1590
749.455	1546
750.629	1606
751.803	1624
752.977	1564
754.152	1610
755.325	1568
756.499	1616
757.672	1592
758.846	1622
760.018	1648
761.191	1716
762.363	1668
763.535	1676
764.708	1666
765.88	1690
767.052	1714
768.223	1720
769.394	1704
770.565	1742
771.737	1764
772.908	1698
774.078	1776
775.249	1734
776.419	1794
777.589	1840
778.758	1748
779.928	1786
781.097	1824
782.266	1866
783.435	1884
784.604	1862
785.773	1852
786.941	1880
788.11	1874
789.278	1928
790.446	1912
791.613	1924
792.781	1946
793.948	1938
795.115	1954
796.282	1976
797.449	2040
798.616	1984
799.782	2004
800.948	2032
802.115	2036
803.28	2086
804.446	2068
805.612	2064
806.777	2078
807.941	2126
809.106	2100
810.271	2108
811.435	2170
812.6	2182
813.764	2156
814.927	2244
816.091	2202
817.254	2260
818.418	2282
819.581	2234
820.743	2292
821.906	2326
823.069	2314
824.232	2316
825.393	2264
826.555	2348
827.717	2420
828.879	2406
830.039	2346
831.201	2408
832.362	2424
833.522	2438
834.683	2400
835.844	2460
837.003	2480
838.164	2554
839.324	2490
840.483	2578
841.643	2572
842.801	2572
843.961	2588
845.12	2594
846.278	2606
847.437	2564
848.594	2696
849.753	2652
850.91	2676
852.069	2712
853.227	2732
854.383	2746
855.541	2778
856.697	2768
857.855	2718
859.011	2822
860.168	2766
861.323	2842
862.48	2792
863.635	2808
864.79	2878
865.946	2892
867.101	2932
868.257	2972
869.411	2958
870.567	2960
871.721	2970
872.874	3012
874.029	3046
875.183	2990
876.336	3048
877.49	3098
878.643	3050
879.796	3104
880.95	3098
882.102	3192
883.254	3128
884.407	3110
885.559	3170
886.711	3126
887.862	3206
889.015	3230
890.166	3252
891.317	3240
892.467	3252
893.619	3304
894.77	3326
895.92	3362
897.07	3276
898.221	3318
899.371	3390
900.52	3394
901.669	3414
902.819	3470
903.968	3372
905.116	3506
906.266	3550
907.415	3480
908.563	3428
909.711	3528
910.859	3530
912.007	3546
913.154	3600
914.301	3570
915.449	3622
916.596	3646
917.742	3634
918.889	3564
920.036	3656
921.183	3700
922.329	3748
923.475	3710
924.621	3850
925.765	3760
926.911	3802
928.056	3842
929.201	3808
930.346	3860
931.49	3928
932.635	3976
933.779	4032
934.924	3916
936.068	4020
937.211	4014
938.355	3996
939.498	4098
940.64	4150
941.784	4028
942.926	4110
944.069	4188
945.212	4306
946.354	4186
947.495	4238
948.637	4242
949.779	4296
950.921	4300
952.062	4274
953.202	4392
954.344	4364
955.484	4506
956.625	4432
957.765	4394
958.905	4488
960.045	4558
961.184	4504
962.324	4470
963.464	4590
964.604	4626
965.742	4752
966.881	4726
968.02	4578
969.158	4642
970.296	4868
971.434	4746
972.572	4670
973.71	4782
974.847	4810
975.985	4784
977.121	4910
978.259	4982
979.396	4926
980.532	4954
981.669	4910
982.804	5004
983.941	5012
985.076	5070
986.212	5064
987.347	5104
988.483	5110
989.617	5084
990.753	5174
991.887	5178
993.022	5262
994.156	5204
995.29	5292
996.424	5264
997.558	5332
998.692	5366
999.825	5292
1000.96	5414
1002.09	5526
1003.22	5388
1004.36	5514
1005.49	5498
1006.62	5474
1007.75	5574
1008.89	5600
1010.02	5580
1011.15	5572
1012.28	5618
1013.41	5722
1014.54	5712
1015.67	5766
1016.8	5740
1017.93	5812
1019.07	5804
1020.19	5806
1021.32	5964
1022.45	5922
1023.58	5936
1024.71	6084
1025.84	5964
1026.97	6026
1028.1	6048
1029.23	6092
1030.36	6220
1031.49	6216
1032.61	6216
1033.74	6358
1034.87	6262
1036	6314
1037.12	6344
1038.25	6276
1039.38	6552
1040.5	6458
1041.63	6614
1042.76	6466
1043.88	6578
1045.01	6586
1046.14	6628
1047.26	6656
1048.39	6694
1049.51	6680
1050.64	6838
1051.76	6764
1052.89	6806
1054.01	6864
1055.14	6844
1056.26	6966
1057.38	6876
1058.51	6994
1059.63	6944
1060.75	7122
1061.88	7164
1063	7206
1064.12	7184
1065.25	7220
1066.37	7106
1067.49	7214
1068.61	7204
1069.73	7354
1070.86	7368
1071.98	7286
1073.1	7382
1074.22	7456
1075.34	7320
1076.46	7358
1077.58	7456
1078.7	7498
1079.82	7594
1080.94	7540
1082.06	7562
1083.18	7526
1084.3	7642
1085.42	7580
1086.54	7678
1087.66	7664
1088.78	7720
1089.9	7652
1091.02	7688
1092.14	7740
1093.25	7886
1094.37	7836
1095.49	7874
1096.61	7858
1097.72	7810
1098.84	7906
1099.96	7890
1101.08	7908
1102.19	7910
1103.31	8034
1104.43	7996
1105.54	8054
1106.66	8092
1107.77	8016
1108.89	8060
1110	8072
1111.12	8220
1112.23	8192
1113.35	8154
1114.46	8200
1115.58	8224
1116.69	8250
1117.81	8168
1118.92	8282
1120.03	8314
1121.15	8408
1122.26	8370
1123.37	8472
1124.49	8346
1125.6	8480
1126.71	8476
1127.83	8518
1128.94	8504
1130.05	8508
1131.16	8688
1132.27	8712
1133.39	8748
1134.5	8636
1135.61	8676
1136.72	8700
1137.83	8830
1138.94	8766
1140.05	8840
1141.16	8808
1142.27	8934
1143.38	8862
1144.49	9014
1145.6	8934
1146.71	9026
1147.82	8916
1148.93	9022
1150.04	8960
1151.15	9052
1152.26	9090
1153.36	9126
1154.47	9130
1155.58	9150
1156.69	9160
1157.8	9102
1158.9	9138
1160.01	9116
1161.12	9198
1162.22	9318
1163.33	9264
1164.44	9372
1165.54	9270
1166.65	9316
1167.76	9330
1168.86	9202
1169.97	9282
1171.07	9364
1172.18	9426
1173.28	9364
1174.39	9338
1175.49	9288
1176.6	9336
1177.7	9372
1178.81	9188
1179.91	9266
1181.02	9414
1182.12	9380
1183.22	9358
1184.33	9416
1185.43	9338
1186.53	9352
1187.63	9476
1188.74	9340
1189.84	9324
1190.94	9440
1192.04	9312
1193.15	9298
1194.25	9314
1195.35	9292
1196.45	9380
1197.55	9364
1198.65	9376
1199.75	9336
1200.85	9208
1201.95	9284
1203.05	9306
1204.16	9210
1205.25	9304
1206.35	9242
1207.45	9176
1208.55	9256
1209.65	9110
1210.75	9286
1211.85	9192
1212.95	9178
1214.05	9044
1215.15	9136
1216.24	9128
1217.34	8998
1218.44	9130
1219.54	9108
1220.64	9170
1221.73	8986
1222.83	8992
1223.93	8994
1225.02	8986
1226.12	9020
1227.22	9056
1228.31	8902
1229.41	9022
1230.5	8856
1231.6	8916
1232.7	8838
1233.79	8822
1234.89	8766
1235.98	8826
1237.08	8832
1238.17	8788
1239.26	8658
1240.36	8692
1241.45	8754
1242.55	8752
1243.64	8656
1244.73	8700
1245.83	8708
1246.92	8674
1248.01	8614
1249.11	8670
1250.2	8742
1251.29	8494
1252.38	8542
1253.48	8506
1254.57	8382
1255.66	8498
1256.75	8398
1257.84	8526
1258.93	8496
1260.03	8408
1261.12	8390
1262.21	8378
1263.3	8498
1264.39	8434
1265.48	8232
1266.57	8296
1267.66	8308
1268.75	8246
1269.84	8304
1270.93	8254
1272.02	8180
1273.11	8152
1274.19	8216
1275.28	8158
1276.37	8136
1277.46	8190
1278.55	7948
1279.64	8064
1280.72	7956
1281.81	7992
1282.9	8008
1283.98	7947.15
1285.07	7862.9
1286.16	7916.8
1287.25	7765.53
1288.33	7883.34
1289.42	7782.99
1290.5	7712.42
1291.59	7753.38
1292.68	7733.34
1293.76	7624.73
1294.85	7593.9
1295.93	7562.75
1297.02	7501.46
1298.1	7451.99
1299.19	7442.83
1300.27	7295.1
1301.36	7373.46
1302.44	7353.49
1303.53	7344.43
1304.61	7243.05
1305.69	7366.37
1306.78	7244.21
1307.86	7135.64
1308.94	7103.96
1310.03	7045.42
1311.11	7075.87
1312.19	7011.53
1313.27	7007.4
1314.36	6954.85
1315.44	6917.99
1316.52	6964.48
1317.6	6907.72
1318.68	6832.26
1319.77	6810.3
1320.85	6834.03
1321.93	6726.61
1323.01	6745.33
1324.09	6639.76
1325.17	6609.01
1326.25	6595.13
1327.33	6620.87
1328.41	6521.45
1329.49	6516.39
1330.57	6471.23
1331.65	6480.32
1332.73	6385.83
1333.81	6341.1
1334.89	6268.17
1335.97	6283.34
1337.04	6241.57
1338.12	6281.43
1339.2	6257.05
1340.28	6191.23
1341.36	6126.19
1342.44	6132.13
1343.51	6065.8
1344.59	6046.09
1345.67	6071.7
1346.75	5952.62
1347.82	5974.46
1348.9	5918.2
1349.98	5863.43
1351.05	5903.64
1352.13	5862.15
1353.2	5833.14
1354.28	5779.43
1355.36	5738.09
1356.43	5757.44
1357.51	5697.96
1358.58	5639.14
1359.66	5681.84
1360.73	5728.4
1361.81	5545.57
1362.88	5623.81
1363.96	5551.16
1365.03	5536.61
1366.1	5466.44
1367.18	5469.12
1368.25	5414.52
1369.33	5327.78
1370.4	5418.63
1371.47	5437
1372.54	5305.13
1373.62	5339.97
1374.69	5260.74
1375.76	5214.24
1376.83	5235.26
1377.91	5189.34
1378.98	5169.27
1380.05	5159.77
1381.12	5131.67
1382.19	5082.4
1383.26	5036.95
1384.34	5028.33
1385.41	5100.06
1386.48	5067.99
1387.55	4985.32
1388.62	5000.31
1389.69	4964.49
1390.76	4942.78
1391.83	4921.88
1392.9	4959.39
1393.02	4964
1394.1	4878
1395.17	4820
1396.25	4868
1397.32	4884
1398.4	4734
1399.47	4720
1400.55	4798
1401.62	4730
1402.69	4744
1403.77	4716
1404.84	4680
1405.91	4660
1406.99	4592
1408.06	4602
1409.13	4554
1410.2	4626
1411.27	4596
1412.35	4564
1413.42	4564
1414.49	4472
1415.56	4468
1416.63	4480
1417.7	4476
1418.78	4452
1419.85	4500
1420.92	4454
1421.99	4378
1423.06	4420
1424.13	4410
1425.2	4338
1426.27	4324
1427.34	4280
1428.41	4360
1429.48	4316
1430.55	4358
1431.61	4222
1432.68	4318
1433.75	4272
1434.82	4238
1435.89	4334
1436.96	4170
1438.02	4160
1439.09	4116
1440.16	4178
1441.23	4122
1442.3	4102
1443.36	4160
1444.43	4104
1445.5	4162
1446.56	4012
1447.63	4124
1448.7	4098
1449.76	4008
1450.83	4074
1451.89	3964
1452.96	4070
1454.02	4094
1455.09	4010
1456.15	4030
1457.22	3940
1458.28	3910
1459.35	3988
1460.41	3924
1461.48	3940
1462.54	3910
1463.61	3928
1464.67	3894
1465.73	3912
1466.8	3854
1467.86	3874
1468.92	3862
1469.98	3790
1471.05	3904
1472.11	3828
1473.17	3868
1474.24	3798
1475.3	3854
1476.36	3778
1477.42	3842
1478.48	3758
1479.54	3718
1480.6	3722
1481.67	3754
1482.73	3736
1483.79	3646
1484.85	3672
1485.91	3700
1486.97	3688
1488.03	3656
1489.09	3640
1490.15	3640
1491.21	3646
1492.27	3604
1493.33	3594
1494.38	3590
1495.44	3608
1496.5	3546
1497.56	3526
1498.62	3564
1499.68	3544
1500.74	3588
1501.79	3544
1502.85	3570
1503.91	3580
1504.97	3526
1506.02	3560
1507.08	3486
1508.14	3372
1509.2	3422
1510.25	3508
1511.31	3420
1512.36	3452
1513.42	3438
1514.48	3422
1515.53	3404
1516.59	3376
1517.64	3338
1518.7	3382
1519.75	3314
1520.81	3316
1521.86	3324
1522.92	3304
1523.97	3276
1525.02	3310
1526.08	3378
1527.13	3302
1528.19	3258
1529.24	3278
1530.29	3260
1531.35	3252
1532.4	3252
1533.45	3260
1534.51	3226
1535.56	3240
1536.61	3146
1537.66	3178
1538.72	3186
1539.77	3176
1540.82	3190
1541.87	3188
1542.92	3216
1543.97	3174
1545.02	3180
1546.08	3126
1547.13	3054
1548.18	3172
1549.23	3140
1550.28	3106
1551.33	3144
1552.38	3094
1553.43	3056
1554.48	3054
1555.53	3008
1556.57	3040
1557.62	3092
1558.67	3106
1559.72	3026
1560.77	3018
1561.82	2984
1562.87	3038
1563.92	3062
1564.96	3022
1566.01	3022
1567.06	3018
1568.11	3046
1569.15	2950
1570.2	2978
1571.25	2924
1572.29	2992
1573.34	2978
1574.39	2988
1575.43	2918
1576.48	3006
1577.53	2938
1578.57	2966
1579.62	2916
1580.66	2916
1581.71	2842
1582.75	2920
1583.8	2858
1584.84	2912
1585.89	2878
1586.93	2932
1587.98	2924
1589.02	2858
1590.06	2844
1591.11	2800
1592.15	2864
1593.2	2892
1594.24	2838
1595.28	2900
1596.33	2818
1597.37	2830
1598.41	2792
1599.45	2834
1600.5	2790
1601.54	2826
1602.58	2850
1603.62	2790
1604.66	2888
1605.7	2820
1606.75	2774
1607.79	2826
1608.83	2786
1609.87	2788
1610.91	2824
1611.95	2776
1612.99	2774
1614.03	2784
1615.07	2808
1616.11	2780
1617.15	2830
1618.19	2774
1619.23	2786
1620.27	2698
1621.31	2778
1622.35	2730
1623.39	2744
1624.43	2692
1625.46	2752
1626.5	2746
1627.54	2754
1628.58	2770
1629.62	2692
1630.65	2700
1631.69	2668
1632.73	2734
1633.77	2700
1634.8	2684
1635.84	2654
1636.88	2748
1637.91	2698
1638.95	2708
1639.99	2634
1641.02	2654
1642.06	2684
1643.09	2696
1644.13	2710
1645.16	2666
1646.2	2668
1647.23	2654
1648.27	2654
1649.3	2634
1650.34	2646
1651.37	2650
1652.41	2636
1653.44	2620
1654.47	2640
1655.51	2642
1656.54	2618
1657.57	2600
1658.61	2632
1659.64	2624
1660.67	2570
1661.71	2574
1662.74	2656
1663.77	2624
1664.81	2560
1665.84	2552
1666.87	2570
1667.9	2554
1668.93	2578
1669.96	2584
1671	2540
1672.03	2628
1673.06	2592
1674.09	2490
1675.12	2538
1676.15	2536
1677.18	2560
1678.21	2476
1679.24	2502
1680.27	2540
1681.3	2506
1682.33	2476
1683.36	2514
1684.39	2490
1685.42	2502
1686.45	2562
1687.47	2438
1688.5	2524
1689.53	2502
1690.56	2454
1691.59	2420
1692.62	2500
1693.64	2450
1694.67	2456
1695.7	2470
1696.73	2454
1697.75	2416
1698.78	2452
1699.81	2502
1700.83	2434
1701.86	2442
1702.89	2470
1703.91	2422
1704.94	2400
1705.97	2420
1706.99	2474
1708.02	2486
1709.04	2410
1710.07	2406
1711.09	2410
1712.12	2462
1713.14	2406
1714.17	2412
1715.19	2400
1716.22	2374
1717.24	2398
1718.26	2426
1719.29	2444
1720.31	2406
1721.33	2422
1722.36	2426
1723.38	2388
1724.4	2370
1725.43	2400
1726.45	2322
1727.47	2336
1728.49	2402
1729.52	2316
1730.54	2408
1731.56	2372
1732.58	2428
1733.6	2396
1734.63	2412
1735.65	2368
1736.67	2356
1737.69	2392
1738.71	2352
1739.73	2400
1740.75	2350
1741.77	2404
1742.79	2326
1743.81	2380
1744.83	2328
1745.85	2368
1746.87	2376
1747.89	2388
1748.91	2348
1749.93	2342
1750.95	2340
1751.97	2346
1752.98	2388
1754	2404
1755.02	2346
1756.04	2394
1757.06	2330
1758.07	2326
1759.09	2262
1760.11	2344
1761.13	2370
1762.14	2350
1763.16	2354
1764.18	2324
1765.19	2346
1766.21	2360
1767.23	2300
1768.24	2380
1769.26	2310
1770.28	2316
1771.29	2386
1772.31	2306
1773.32	2346
1774.34	2358
1775.35	2394
1776.37	2266
1777.38	2360
1778.4	2370
1779.41	2362
1780.43	2376
1781.44	2324
1782.45	2346
1783.47	2316
1784.48	2396
1785.49	2306
1786.51	2330
1787.52	2344
1788.53	2324
1789.55	2300
1790.56	2358
1791.57	2358
1792.58	2314
1793.6	2384
1794.61	2298
1795.62	2360
1796.63	2324
1797.64	2282
1798.66	2316
1799.67	2326
1800.68	2362
1801.69	2282
1802.7	2292
1803.71	2302
1804.72	2306
1805.73	2294
1806.74	2334
1807.75	2326
1808.76	2300
1809.77	2284
1810.78	2352
1811.79	2358
1812.8	2310
1813.81	2286
1814.82	2364
1815.83	2340
1816.84	2288
1817.84	2324
1818.85	2296
1819.86	2300
1820.87	2268
1821.88	2272
1822.88	2298
1823.89	2248
1824.9	2248
1825.91	2272
1826.91	2264
1827.92	2278
1828.93	2268
1829.93	2322
1830.94	2326
1831.95	2284
1832.95	2308
1833.96	2292
1834.97	2256
1835.97	2312
1836.98	2282
1837.98	2326
1838.99	2296
1839.99	2256
1841	2304
1842	2264
1843.01	2266
1844.01	2240
1845.02	2272
1846.02	2360
1847.02	2264
1848.03	2266
1849.03	2218
1850.03	2276
1851.04	2338
1852.04	2254
1853.04	2290
1854.05	2234
1855.05	2266
1856.05	2228
1857.05	2256
1858.06	2204
1859.06	2308
1860.06	2210
1861.06	2226
1862.06	2276
1863.07	2198
1864.07	2256
1865.07	2284
1866.07	2308
1867.07	2226
1868.07	2242
1869.07	2184
1870.07	2268
1871.07	2198
1872.07	2258
1873.07	2266
1874.07	2226
1875.07	2240
1876.07	2292
1877.07	2238
1878.07	2218
1879.07	2312
1880.07	2210
1881.07	2278
1882.07	2252
1883.06	2270
1884.06	2214
1885.06	2260
1886.06	2226
1887.06	2192
1888.05	2266
1889.05	2238
1890.05	2258
1891.05	2272
1892.04	2228
1893.04	2230
1894.04	2218
1895.03	2250
1896.03	2260
1897.03	2274
1898.02	2238
1899.02	2248
1900.01	2292
1901.01	2282
1902	2232
1903	2248
1903.99	2270
1904.99	2274
1905.98	2262
1906.98	2214
1907.97	2232
1908.97	2274
1909.96	2230
1910.96	2250
1911.95	2300
1912.94	2282
1913.94	2248
1914.93	2180
1915.93	2306
1916.92	2278
1917.91	2222
1918.9	2198
1919.9	2216
1920.89	2258
1921.88	2214
1922.87	2276
1923.87	2250
1924.86	2258
1925.85	2232
1926.84	2260
1927.83	2240
1928.82	2268
1929.82	2238
1930.81	2254
1931.8	2234
1932.79	2294
1933.78	2200
1934.77	2238
1935.76	2210
1936.75	2188
1937.74	2238
1938.73	2250
1939.72	2284
1940.71	2266
1941.7	2236
1942.69	2208
1943.68	2238
1944.67	2204
1945.65	2216
1946.64	2216
1947.63	2244
1948.62	2208
1949.61	2188
1950.6	2220
1951.58	2146
1952.57	2224
1953.56	2192
1954.55	2230
1955.53	2174
1956.52	2178
1957.51	2204
1958.5	2218
1959.48	2180
1960.47	2194
1961.45	2194
1962.44	2178
1963.43	2176
1964.41	2170
1965.4	2232
1966.38	2182
1967.37	2260
1968.35	2164
1969.34	2180
1970.32	2182
1971.31	2170
1972.29	2172
1973.28	2162
1974.26	2136
1975.25	2174
1976.23	2160
1977.22	2186
1978.2	2238
1979.18	2212
1980.17	2156
1981.15	2166
1982.13	2174
1983.12	2170
1984.1	2204
1985.08	2130
1986.06	2126
1987.05	2222
1988.03	2196
1989.01	2158
1989.99	2178
1990.97	2158
1991.96	2164
1992.94	2134
1993.92	2154
1994.9	2172
1995.88	2132
1996.86	2140
1997.84	2164
1998.82	2200
1999.8	2224
2000.78	2116
2001.76	2172
2002.74	2198
2003.72	2126
2004.7	2176
2005.68	2202
2006.66	2180
2007.64	2228
2008.62	2212
2009.6	2136
2010.58	2218
2011.56	2146
2012.54	2154
2013.51	2154
2014.49	2254
2015.47	2162
2016.45	2266
2017.43	2104
2018.4	2108
2019.38	2186
2020.36	2150
2021.34	2188
2022.31	2078
2023.29	2204
2024.27	2172
2025.24	2122
2026.22	2168
2027.2	2172
2028.17	2165
2029.15	2158
2030.12	2104
2031.1	2136
2032.07	2158
2033.05	2148
2034.03	2098
2035	2162
2035.98	2150
2036.95	2116
2037.93	2128
2038.9	2164
2039.87	2060
2040.85	2166
2041.82	2148
2042.8	2144
2043.77	2136
2044.74	2152
2045.72	2120
2046.69	2166
2047.66	2138
2048.64	2158
2049.61	2138
2050.58	2178
2051.55	2154
2052.53	2138
2053.5	2138
2054.47	2168
2055.44	2170
2056.41	2122
2057.39	2114
2058.36	2156
2059.33	2164
2060.3	2174
2061.27	2110
2062.24	2128
2063.21	2164
2064.18	2154
2065.15	2162
2066.12	2098
2067.09	2076
2068.06	2138
2069.03	2094
2070	2112
2070.97	2126
2071.94	2124
2072.91	2130
2073.88	2178
2074.85	2132
2075.82	2160
2076.79	2082
2077.76	2104
2078.73	2164
2079.69	2086
2080.66	2124
2081.63	2114
2082.6	2146
2083.56	2128
2084.53	2136
2085.5	2152
2086.47	2116
2087.43	2154
2088.4	2090
2089.37	2148
2090.33	2132
2091.3	2180
2092.27	2146
2093.23	2112
2094.2	2136
2095.17	2118
2096.13	2116
2097.1	2104
2098.06	2112
2099.03	2096
2099.99	2114
2100.96	2078
2101.92	2132
2102.89	2074
2103.85	2118
2104.82	2068
2105.78	2102
2106.74	2136
2107.71	2084
2108.67	2164
2109.64	2170
2110.6	2106
2111.56	2062
2112.53	2124
2113.49	2086
2114.45	2094
2115.41	2080
2116.38	2114
2117.34	2100
2118.3	2066
2119.26	2094
2120.23	2120
2121.19	2114
2122.15	2140
2123.11	2104
2124.07	2094
2125.03	2134
2126	2134
2126.96	2102
2127.92	2162
2128.88	2088
2129.84	2082
2130.8	2092
2131.76	2116
2132.72	2146
2133.68	2096
2134.64	2106
2135.6	2076
2136.56	2100
2137.52	2092
2138.48	2122
2139.44	2094
2140.4	2090
2141.35	2080
2142.31	2064
2143.27	2082
2144.23	2084
2145.19	2110
2146.15	2060
2147.1	2066
2148.06	2044
2149.02	2058
2149.98	2090
2150.94	2042
2151.89	2090
2152.85	2122
2153.81	2076
2154.76	2078
2155.72	2080
2156.68	2068
2157.63	2120
2158.59	2052
2159.55	2130
2160.5	2148
2161.46	2050
2162.41	2094
2163.37	2058
2164.32	2042
2165.28	2142
2166.23	2076
2167.19	2012
2168.14	2068
2169.1	2010
2170.05	2038
2171.01	2072
2171.96	2098
2172.91	2054
2173.87	2070
2174.82	2136
2175.78	2018
2176.73	2082
2177.68	2034
2178.64	2056
2179.59	2058
2180.54	2056
2181.49	2050
2182.45	2096
2183.4	1994
2184.35	2056
2185.3	2002
2186.26	2038
2187.21	1982
2188.16	2046
2189.11	2074
2190.06	2028
2191.01	2022
2191.96	1992
2192.92	1968
2193.87	2028
2194.82	2020
2195.77	2068
2196.72	2052
2197.67	2012
2198.62	2022
2199.57	2006
2200.52	1946
2201.47	2002
2202.42	1960
2203.37	2012
2204.32	2034
2205.27	2030
2206.22	2046
2207.16	1972
2208.11	2038
2209.06	2012
2210.01	2000
2210.96	2008
2211.91	2010
2212.85	1998
2213.8	2042
2214.75	1962
2215.7	2006
2216.64	2008
2217.59	1984
2218.54	1984
2219.49	1986
2220.43	1906
2221.38	2058
2222.33	2008
2223.27	2007.54
2224.22	2012.05
2225.16	2014.69
2226.11	2032.36
2227.06	1972.3
2228	1933.7
2228.95	2002.75
2229.89	2041.22
2230.84	2026.88
2231.78	1989.63
2232.73	2002.81
2233.67	1983.42
2234.62	1933.75
2235.56	1927.22
2236.51	1921.2
2237.45	2005.34
2238.4	1976.04
2239.34	1948.13
2240.28	1958.92
2241.23	1995.75
2242.17	1948.47
2243.11	1935.53
2244.06	1969.11
2245	1991.7
2245.94	1946.64
2246.89	1949.35
2247.83	1973.3
2248.77	1946.25
2249.71	1963.96
2250.66	1985.82
2251.6	1935.35
2252.54	1939.82
2253.48	1949.9
2254.42	1900.42
2255.37	1953.5
2256.31	1939.4
2257.25	1936.81
2258.19	1895.35
2259.13	1954.27
2260.07	1940.08
2261.01	1935.79
2261.95	1921.08
2262.89	1904.5
2263.83	1919.49
2264.77	1947.73
2265.71	1935.44
2266.65	1911.98
2267.59	1885.49
2268.53	1920.47
2269.47	1884.76
2270.41	1907.05
2271.35	1911.6
2272.29	1909.33
2273.23	1938.2
2274.17	1892.22
2275.1	1882.38
2276.04	1859.87
2276.98	1889.89
2277.92	1919.4
2278.86	1899.31
2279.8	1881.16
2280.73	1895.28
2281.67	1892.8
2282.61	1851.66
2283.55	1847.49
2284.48	1875.5
2285.42	1892.17
2286.36	1874.18
2287.29	1865.07
2288.23	1833.59
2289.17	1850.82
2290.1	1877.81
2291.04	1866.75
2291.98	1863.52
2292.91	1842.82
2293.85	1837.91
2294.78	1873.29
2295.72	1845.12
2296.65	1805.43
2297.59	1799.19
2298.52	1832.49
2299.46	1816.16
2300.39	1820.42
2301.33	1836.4
2302.26	1825.86
2303.2	1836.19
2304.13	1840.22
2305.06	1832.2
2306	1830.35
2306.93	1802.49
2307.87	1813.91
2308.8	1835.76
2309.73	1815.61
2310.67	1814.98
2311.6	1805.92
2312.53	1815.92
2313.46	1797.76
2314.4	1773.81
2315.33	1781.44
2316.26	1764.99
2316.69	1750
2317.62	1782
2318.56	1806
2319.5	1790
2320.43	1784
2321.37	1752
2322.31	1766
2323.24	1780
2324.18	1772
2325.12	1750
2326.05	1780
2326.99	1780
2327.92	1730
2328.86	1786
2329.79	1760
2330.73	1762
2331.66	1738
2332.6	1756
2333.53	1758
2334.47	1734
2335.4	1742
2336.34	1748
2337.27	1716
2338.2	1794
2339.14	1764
2340.07	1802
2341.01	1732
2341.94	1734
2342.87	1778
2343.81	1728
2344.74	1692
2345.67	1738
2346.6	1714
2347.54	1756
2348.47	1768
2349.4	1732
2350.33	1732
2351.27	1712
2352.2	1714
2353.13	1712
2354.06	1702
2354.99	1680
2355.93	1706
2356.86	1744
2357.79	1762
2358.72	1724
2359.65	1704
2360.58	1682
2361.51	1720
2362.44	1750
2363.37	1748
2364.3	1720
2365.23	1680
2366.16	1672
2367.09	1616
2368.02	1660
2368.95	1700
2369.88	1676
2370.81	1662
2371.74	1662
2372.67	1674
2373.6	1664
2374.52	1714
2375.45	1636
2376.38	1616
2377.31	1688
2378.24	1656
2379.17	1674
2380.09	1626
2381.02	1678
2381.95	1638
2382.88	1672
2383.8	1648
2384.73	1686
2385.66	1584
2386.58	1610
2387.51	1616
2388.44	1606
2389.36	1672
2390.29	1598
2391.22	1594
2392.14	1628
2393.07	1654
2393.99	1648
2394.92	1636
2395.85	1584
2396.77	1642
2397.7	1574
2398.62	1606
2399.55	1582
2400.47	1602
2401.4	1566
2402.32	1598
2403.25	1650
2404.17	1606
2405.09	1536
2406.02	1566
2406.94	1598
2407.86	1598
2408.79	1546
2409.71	1568
2410.63	1500
2411.56	1616
2412.48	1574
2413.4	1550
2414.33	1532
2415.25	1540
2416.17	1524
2417.09	1522
2418.02	1524
2418.94	1494
2419.86	1558
2420.78	1536
2421.7	1544
2422.63	1582
2423.55	1516
2424.47	1500
2425.39	1482
2426.31	1502
2427.23	1516
2428.15	1494
2429.07	1462
2429.99	1488
2430.91	1504
2431.83	1532
2432.75	1462
2433.67	1502
2434.59	1468
2435.51	1456
2436.43	1468
2437.35	1438
2438.27	1464
2439.19	1466
2440.11	1446
2441.03	1494
2441.95	1464
2442.86	1442
2443.78	1442
2444.7	1462
2445.62	1472
2446.54	1462
2447.46	1470
2448.37	1456
2449.29	1452
2450.21	1414
2451.13	1440
2452.04	1486
2452.96	1378
2453.88	1422
2454.79	1410
2455.71	1392
2456.63	1428
2457.54	1438
2458.46	1408
2459.38	1394
2460.29	1408
2461.21	1414
2462.12	1360
2463.04	1402
2463.95	1432
2464.87	1394
2465.78	1388
2466.7	1346
2467.61	1402
2468.53	1376
2469.44	1404
2470.36	1430
2471.27	1392
2472.19	1404
2473.1	1358
2474.01	1312
2474.93	1350
2475.84	1388
2476.76	1364
2477.67	1350
2478.58	1352
2479.5	1292
2480.41	1350
2481.32	1310
2482.23	1304
2483.15	1354
2484.06	1352
2484.97	1324
2485.88	1328
2486.8	1318
2487.71	1282
2488.62	1296
2489.53	1336
2490.44	1302
2491.35	1244
2492.26	1310
2493.18	1270
2494.09	1290
2495	1312
2495.91	1286
2496.82	1290
2497.73	1292
2498.64	1328
2499.55	1278
2500.46	1264
2501.37	1278
2502.28	1288
2503.19	1298
2504.1	1258
2505.01	1260
2505.92	1218
2506.83	1250
2507.74	1238
2508.65	1226
2509.55	1230
2510.46	1282
2511.37	1240
2512.28	1240
2513.19	1260
2514.09	1250
2515	1212
2515.91	1180
2516.82	1190
2517.73	1208
2518.63	1224
2519.54	1232
2520.45	1206
2521.35	1226
2522.26	1184
2523.17	1202
2524.07	1212
2524.98	1208
2525.89	1190
2526.79	1192
2527.7	1206
2528.6	1204
2529.51	1172
2530.42	1164
2531.32	1148
2532.23	1160
2533.13	1196
2534.04	1232
2534.94	1178
2535.85	1182
2536.75	1166
2537.66	1142
2538.56	1142
2539.47	1140
2540.37	1116
2541.27	1142
2542.18	1158
2543.08	1124
2543.98	1160
2544.89	1098
2545.79	1128
2546.7	1154
2547.6	1144
2548.5	1140
2549.4	1126
2550.31	1144
2551.21	1120
2552.11	1100
2553.01	1096
2553.92	1148
2554.82	1126
2555.72	1144
2556.62	1088
2557.52	1100
2558.42	1104
2559.33	1142
2560.23	1106
2561.13	1118
2562.03	1086
2562.93	1112
2563.83	1050
2564.73	1062
2565.63	1074
2566.53	1056
2567.43	1076
2568.33	1076
2569.23	1062
2570.13	1082
2571.03	1060
2571.93	1064
2572.83	1046
2573.73	1056
2574.63	1088
2575.53	1092
2576.43	1066
2577.33	1052
2578.22	1030
2579.12	1036
2580.02	1052
2580.92	1040
2581.82	1050
2582.72	1018
2583.61	1048
2584.51	1012
2585.41	1076
2586.31	1000
2587.2	1046
2588.1	1034
2589	998
2589.89	1058
2590.79	1022
2591.69	1032
2592.58	966
2593.48	1018
2594.38	1006
2595.27	1012
2596.17	1020
2597.06	998
2597.96	994
2598.86	966
2599.75	982
2600.65	958
2601.54	954
2602.44	990
2603.33	944
2604.23	998
2605.12	986
2606.02	986
2606.91	938
2607.81	946
2608.7	928
2609.59	974
2610.49	954
2611.38	916
2612.27	948
2613.17	954
2614.06	960
2614.95	918
2615.85	920
2616.74	960
2617.63	944
2618.53	946
2619.42	938
2620.31	914
2621.2	930
2622.1	924
2622.99	926
2623.88	946
2624.77	896
2625.66	878
2626.55	916
2627.45	982
2628.34	906
2629.23	860
2630.12	914
2631.01	944
2631.9	928
2632.79	920
2633.68	940
2634.57	880
2635.46	894
2636.35	866
2637.24	878
2638.13	906
2639.02	848
2639.91	862
2640.8	876
2641.69	894
2642.58	878
2643.47	896
2644.36	896
2645.25	862
2646.14	870
2647.02	866
2647.91	882
2648.8	842
2649.69	874
2650.58	868
2651.46	868
2652.35	854
2653.24	838
2654.13	860
2655.01	872
2655.9	864
2656.79	856
2657.68	834
2658.56	808
2659.45	846
2660.34	808
2661.22	824
2662.11	818
2662.99	834
2663.88	836
2664.77	798
2665.65	860
2666.54	836
2667.42	822
2668.31	792
2669.2	864
2670.08	820
2670.96	826
2671.85	812
2672.73	812
2673.62	828
2674.5	782
2675.39	802
2676.27	820
2677.16	788
2678.04	820
2678.93	790
2679.81	820
2680.69	810
2681.58	792
2682.46	820
2683.34	800
2684.23	796
2685.11	794
2685.99	772
2686.87	772
2687.76	778
2688.64	788
2689.52	746
2690.4	752
2691.28	758
2692.17	772
2693.05	728
2693.93	750
2694.81	768
2695.69	766
2696.57	766
2697.46	764
2698.34	720
2699.22	724
2700.1	746
2700.98	728
2701.86	758
2702.74	726
2703.62	728
2704.5	744
2705.38	714
2706.26	742
2707.14	722
2708.02	690
2708.9	764
2709.78	690
2710.66	698
2711.54	730
2712.42	694
2713.3	728
2714.17	696
2715.05	706
2715.93	666
2716.81	704
2717.69	686
2718.57	682
2719.44	702
2720.32	664
2721.2	714
2722.08	694
2722.95	698
2723.83	666
2724.71	700
2725.59	706
2726.46	692
2727.34	664
2728.22	680
2729.09	668
2729.97	682
2730.85	652
2731.72	694
2732.6	682
2733.47	646
2734.35	664
2735.23	640
2736.1	664
2736.98	662
2737.85	664
2738.73	642
2739.6	688
2740.48	630
2741.35	648
2742.23	662
2743.1	646
2743.98	624
2744.85	632
2745.72	620
2746.6	632
2747.47	632
2748.35	632
2749.22	622
2750.09	648
2750.97	628
2751.84	638
2752.71	644
2753.59	642
2754.46	628
2755.33	628
2756.2	618
2757.08	626
2757.95	614
2758.82	614
2759.69	600
2760.57	606
2761.44	612
2762.31	598
2763.18	606
2764.05	582
2764.92	592
2765.79	598
2766.67	574
2767.54	610
2768.41	580
2769.28	614
2770.15	564
2771.02	560
2771.89	564
2772.76	564
2773.63	562
2774.5	590
2775.37	576
2776.24	588
2777.11	554
2777.98	582
2778.85	572
2779.72	582
2780.59	552
2781.46	582
2782.32	524
2783.19	566
2784.06	582
2784.93	546
2785.8	566
2786.67	554
2787.53	572
2788.4	556
2789.27	568
2790.14	558
2791.01	560
2791.87	534
2792.74	542
2793.61	554
2794.47	558
2795.34	520
2796.21	570
2797.07	522
2797.94	526
2798.81	532
2799.67	542
2800.54	522
2801.41	506
2802.27	538
2803.14	546
2804	516
2804.87	512
2805.74	538
2806.6	518
2807.47	536
2808.33	520
2809.2	508
2810.06	506
2810.93	486
2811.79	518
2812.65	510
2813.52	536
2814.38	522
2815.25	482
2816.11	502
2816.98	512
2817.84	522
2818.7	494
2819.56	486
2820.43	488
2821.29	500
2822.16	496
2823.02	476
2823.88	484
2824.74	480
2825.61	480
2826.47	474
2827.33	494
2828.19	514
2829.05	484
2829.92	454
2830.78	456
2831.64	480
2832.5	462
2833.36	474
2834.23	478
2835.09	472
2835.95	472
2836.81	454
2837.67	446
2838.53	460
2839.39	468
2840.25	452
2841.11	460
2841.97	484
2842.83	436
2843.69	456
2844.55	452
2845.41	434
2846.27	462
2847.13	438
2847.99	436
2848.85	444
2849.71	436
2850.57	426
2851.43	422
2852.28	444
2853.14	424
2854	442
2854.86	428
2855.72	420
2856.58	432
2857.43	414
2858.29	434
2859.15	420
2860.01	426
2860.86	430
2861.72	422
2862.58	438
2863.44	408
2864.29	418
2865.15	416
2866.01	396
2866.86	414
2867.72	420
2868.58	430
2869.43	394
2870.29	414
2871.14	412
2872	406
2872.86	410
2873.71	416
2874.57	422
2875.42	412
2876.28	402
2877.13	394
2877.99	410
2878.84	396
2879.7	392
2880.55	400
2881.41	382
2882.26	400
2883.11	374
2883.97	368
2884.82	388
2885.68	362
2886.53	400
2887.39	382
2888.24	392
2889.09	388
2889.94	386
2890.8	364
2891.65	372
2892.5	364
2893.36	378
2894.21	376
2895.06	368
2895.91	358
2896.77	378
2897.62	364
2898.47	362
2899.32	372
2900.17	366
2901.03	368
2901.88	366
2902.73	352
2903.58	362
2904.43	376
2905.28	340
2906.13	350
2906.98	362
2907.84	356
2908.69	366
2909.54	350
2910.39	330
2911.24	340
2912.09	352
2912.94	350
2913.79	356
2914.64	358
2915.49	332
2916.34	340
2917.19	360
2918.03	322
2918.88	340
2919.73	336
2920.58	320
2921.43	354
2922.28	340
2923.13	346
2923.98	346
2924.82	368
2925.67	334
2926.52	340
2927.37	328
2928.22	328
2929.06	334
2929.91	326
2930.76	340
2931.61	340
2932.45	336
2933.3	346
2934.15	348
2934.99	336
2935.84	334
2936.69	324
2937.53	348
2938.38	306
2939.23	328
2940.07	324
2940.92	332
2941.76	310
2942.61	332
2943.46	328
2944.3	336
2945.15	310
2945.99	316
2946.84	336
2947.68	314
2948.53	326
2949.37	330
2950.22	306
2951.06	338
2951.9	310
2952.75	334
2953.59	298
2954.44	304
2955.28	328
2956.12	302
2956.97	302
2957.81	306
2958.65	314
2959.5	310
2960.34	314
2961.18	296
2962.03	292
2962.87	308
2963.71	286
2964.56	308
2965.4	318
2966.24	308
2967.08	290
2967.92	306
2968.77	290
2969.61	286
2970.45	298
2971.29	290
2972.13	306
2972.97	292
2973.82	286
2974.66	284
2975.5	294
2976.34	296
2977.18	284
2978.02	282
2978.86	294
2979.7	298
2980.54	294
2981.38	298
2982.22	292
2983.06	258
2983.9	298
2984.74	284
2985.58	288
2986.42	290
2987.26	284
2988.1	282
2988.94	278
2989.78	292
2990.61	290
2991.45	286
2992.29	284
2993.13	284
2993.97	274
2994.81	266
2995.64	280
2996.48	268
2997.32	278
2998.16	282
2999	274
2999.83	256
