#Acq. time (s)=	10
#Accumulations=	1
#Range (cm-¹)=	200...3000
#Windows=	3
#Autofocus=	Off
#AutoExposure=	Off
#Spike filter=	Off
#Delay time (s)=	0
#Binning=	1
#Readout mode=	Signal
#DeNoise=	Off
#ICS correction=	Off
#Dark correction=	Off
#Inst. Process=	Off
#Instrument=	LabRAM HR Evol
#Detector=	Syncerity OE
#Objective=	x100_VIS
#Grating=	600 (500nm)
#ND Filter=	0.1%
#Laser=	633nm_Edge
#Hole=	100.021
#Range=	Visible
#Project=	Omar
#Sample=	03-07-23
#Site=	papal
#Title=	leaf_100x
#Remark=	
#Date=	03.07.2023 17:15
#Acquired=	03.07.2023 17:15:20
201.713	260
202.98	256
204.247	248
205.513	274
206.778	266
208.045	280
209.311	258
210.576	274
211.84	304
213.106	258
214.371	280
215.636	268
216.899	274
218.164	292
219.428	294
220.692	298
221.955	288
223.219	290
224.482	314
225.744	316
227.007	284
228.27	304
229.531	306
230.794	306
232.055	298
233.317	300
234.579	312
235.839	322
237.1	298
238.362	336
239.621	310
240.882	338
242.141	330
243.402	326
244.661	332
245.921	342
247.179	308
248.439	354
249.698	360
250.956	322
252.215	340
253.473	338
254.731	352
255.988	348
257.246	360
258.503	344
259.761	368
261.017	358
262.273	362
263.53	364
264.786	376
266.042	362
267.298	370
268.554	362
269.809	386
271.063	368
272.319	366
273.573	376
274.828	378
276.082	380
277.336	380
278.591	390
279.844	416
281.097	386
282.351	410
283.603	410
284.855	404
286.109	396
287.361	404
288.613	398
289.866	420
291.117	432
292.368	428
293.62	460
294.871	432
296.121	468
297.372	424
298.623	434
299.873	436
301.123	448
302.372	444
303.622	450
304.872	476
306.121	442
307.37	470
308.618	456
309.866	478
311.116	458
312.364	480
313.611	474
314.859	480
316.106	504
317.353	474
318.6	492
319.848	502
321.095	486
322.341	514
323.587	486
324.833	504
326.079	476
327.324	496
328.569	510
329.814	504
331.059	544
332.304	524
333.548	530
334.792	570
336.037	546
337.28	544
338.524	524
339.767	566
341.011	570
342.254	558
343.497	548
344.739	592
345.982	554
347.224	578
348.466	560
349.708	570
350.95	594
352.191	588
353.432	600
354.673	594
355.914	598
357.155	598
358.394	608
359.634	618
360.874	652
362.114	604
363.354	644
364.593	594
365.832	616
367.07	650
368.309	646
369.548	656
370.786	660
372.024	622
373.261	688
374.499	652
375.736	658
376.974	656
378.211	682
379.447	694
380.684	680
381.92	686
383.157	680
384.392	714
385.628	702
386.864	656
388.098	702
389.333	718
390.569	694
391.802	702
393.037	726
394.272	754
395.505	744
396.739	722
397.973	746
399.206	760
400.44	770
401.673	760
402.905	760
404.138	754
405.37	756
406.602	800
407.835	768
409.066	810
410.298	788
411.528	828
412.76	842
413.99	822
415.221	812
416.451	824
417.682	812
418.911	872
420.142	854
421.371	828
422.601	850
423.83	822
425.059	900
426.288	856
427.517	888
428.745	866
429.974	896
431.201	894
432.43	926
433.657	882
434.883	882
436.111	908
437.338	908
438.565	922
439.791	914
441.017	922
442.244	940
443.469	932
444.695	928
445.921	956
447.146	948
448.37	966
449.596	970
450.821	968
452.045	966
453.27	982
454.493	966
455.717	962
456.94	968
458.165	1000
459.387	986
460.61	1022
461.833	1008
463.056	1018
464.278	1014
465.5	1044
466.722	1042
467.945	1060
469.166	1062
470.387	1046
471.608	1098
472.829	1064
474.049	1066
475.271	1088
476.491	1038
477.711	1090
478.931	1082
480.15	1112
481.37	1124
482.589	1128
483.808	1152
485.027	1100
486.247	1116
487.465	1120
488.683	1140
489.901	1142
491.119	1160
492.337	1204
493.554	1168
494.771	1182
495.988	1166
497.205	1182
498.422	1152
499.638	1190
500.854	1218
502.07	1198
503.286	1222
504.502	1200
505.717	1294
506.933	1242
508.148	1234
509.363	1228
510.577	1246
511.792	1256
513.005	1222
514.219	1288
515.433	1238
516.647	1294
517.86	1284
519.073	1326
520.287	1294
521.5	1266
522.711	1324
523.924	1292
525.136	1292
526.348	1300
527.56	1322
528.772	1344
529.982	1368
531.194	1374
532.405	1352
533.616	1354
534.825	1398
536.036	1392
537.246	1380
538.457	1384
539.665	1396
540.875	1366
542.085	1408
543.294	1386
544.502	1434
545.712	1436
546.92	1438
548.128	1466
549.336	1444
550.545	1494
551.751	1488
552.959	1480
554.167	1474
555.373	1478
556.581	1548
557.788	1506
558.994	1530
560.2	1530
561.406	1522
562.612	1510
563.817	1580
565.023	1554
566.229	1566
567.433	1566
568.639	1592
569.843	1578
571.048	1562
572.251	1620
573.456	1614
574.659	1648
575.863	1668
577.066	1626
578.27	1614
579.472	1672
580.676	1658
581.878	1624
583.081	1694
584.283	1772
585.484	1688
586.687	1760
587.888	1784
589.09	1702
590.291	1758
591.493	1788
592.693	1746
593.893	1790
595.094	1808
596.294	1822
597.494	1768
598.694	1852
599.894	1812
601.093	1834
602.293	1892
603.491	1880
604.69	1904
605.889	1874
607.087	1878
608.285	1892
609.483	1908
610.682	1960
611.879	1964
613.076	1976
614.273	1954
615.471	1994
616.667	2028
617.864	2022
619.06	1990
620.256	2086
621.453	2082
622.648	2070
623.844	2092
625.039	2134
626.234	2094
627.429	2140
628.625	2146
629.819	2154
631.013	2152
632.208	2218
633.401	2188
634.595	2170
635.789	2186
636.982	2272
638.175	2220
639.369	2248
640.562	2310
641.755	2262
642.947	2312
644.139	2360
645.331	2258
646.523	2280
647.715	2406
648.906	2412
650.097	2436
651.288	2388
652.479	2410
653.67	2480
654.86	2408
656.051	2490
657.241	2460
658.429	2558
659.619	2536
660.808	2506
661.998	2508
663.187	2516
664.376	2556
665.565	2574
666.753	2538
667.942	2556
669.13	2624
670.317	2638
671.505	2568
672.692	2668
673.88	2626
675.067	2714
676.254	2740
677.44	2736
678.627	2732
679.813	2794
681	2790
682.184	2748
683.37	2810
684.556	2802
685.742	2788
686.926	2902
688.111	2828
689.296	2904
690.481	2864
691.664	2940
692.849	2900
694.033	2944
695.216	2940
696.4	2984
697.584	2954
698.766	3056
699.949	3032
701.133	3094
702.314	3130
703.497	3042
704.678	3068
705.861	3156
707.043	3160
708.224	3250
709.406	3142
710.586	3206
711.768	3224
712.949	3250
714.129	3308
715.31	3226
716.489	3324
717.67	3368
718.849	3336
720.029	3458
721.208	3442
722.388	3412
723.566	3420
724.746	3452
725.924	3540
727.103	3504
728.28	3538
729.458	3600
730.636	3574
731.814	3604
732.992	3670
734.168	3668
735.345	3666
736.523	3628
737.699	3728
738.876	3732
740.052	3664
741.227	3764
742.404	3930
743.579	3874
744.754	3868
745.931	3844
747.105	3838
748.28	3924
749.455	3886
750.629	3950
751.803	3986
752.977	4002
754.152	4074
755.325	4110
756.499	4102
757.672	4090
758.846	4068
760.018	4192
761.191	4172
762.363	4174
763.535	4240
764.708	4256
765.88	4294
767.052	4298
768.223	4370
769.394	4420
770.565	4386
771.737	4504
772.908	4416
774.078	4488
775.249	4460
776.419	4496
777.589	4582
778.758	4598
779.928	4602
781.097	4658
782.266	4730
783.435	4612
784.604	4724
785.773	4790
786.941	4750
788.11	4818
789.278	4766
790.446	4894
791.613	4874
792.781	4930
793.948	5030
795.115	4972
796.282	5052
797.449	5090
798.616	5080
799.782	5078
800.948	5292
802.115	5286
803.28	5380
804.446	5228
805.612	5334
806.777	5368
807.941	5370
809.106	5450
810.271	5382
811.435	5498
812.6	5386
813.764	5638
814.927	5638
816.091	5658
817.254	5664
818.418	5834
819.581	5740
820.743	5734
821.906	5844
823.069	5922
824.232	5864
825.393	5952
826.555	6026
827.717	6034
828.879	6054
830.039	6106
831.201	6156
832.362	6186
833.522	6232
834.683	6238
835.844	6300
837.003	6386
838.164	6290
839.324	6434
840.483	6556
841.643	6482
842.801	6614
843.961	6658
845.12	6688
846.278	6696
847.437	6770
848.594	6832
849.753	6780
850.91	6898
852.069	6968
853.227	6914
854.383	6980
855.541	7036
856.697	7054
857.855	7128
859.011	7192
860.168	7214
861.323	7302
862.48	7224
863.635	7296
864.79	7332
865.946	7412
867.101	7458
868.257	7538
869.411	7504
870.567	7472
871.721	7668
872.874	7720
874.029	7734
875.183	7756
876.336	7758
877.49	7848
878.643	7822
879.796	7884
880.95	7930
882.102	8026
883.254	8102
884.407	8104
885.559	8158
886.711	8152
887.862	8256
889.015	8124
890.166	8298
891.317	8354
892.467	8244
893.619	8366
894.77	8408
895.92	8556
897.07	8530
898.221	8582
899.371	8556
900.52	8628
901.669	8688
902.819	8872
903.968	8842
905.116	8834
906.266	8840
907.415	9020
908.563	9080
909.711	9008
910.859	9120
912.007	9162
913.154	9138
914.301	9120
915.449	9364
916.596	9330
917.742	9446
918.889	9468
920.036	9424
921.183	9596
922.329	9694
923.475	9648
924.621	9596
925.765	9680
926.911	9750
928.056	9956
929.201	10034
930.346	10022
931.49	10224
932.635	10078
933.779	10250
934.924	10276
936.068	10252
937.211	10338
938.355	10376
939.498	10606
940.64	10454
941.784	10612
942.926	10634
944.069	10660
945.212	10700
946.354	10910
947.495	10842
948.637	10812
949.779	10934
950.921	11126
952.062	11182
953.202	11196
954.344	11352
955.484	11332
956.625	11294
957.765	11604
958.905	11592
960.045	11604
961.184	11744
962.324	11752
963.464	11766
964.604	11754
965.742	12026
966.881	11962
968.02	12114
969.158	12164
970.296	12118
971.434	12242
972.572	12366
973.71	12356
974.847	12380
975.985	12538
977.121	12548
978.259	12522
979.396	12698
980.532	12718
981.669	12870
982.804	12780
983.941	12994
985.076	12916
986.212	13100
987.347	13168
988.483	13042
989.617	13160
990.753	13392
991.887	13320
993.022	13322
994.156	13490
995.29	13512
996.424	13636
997.558	13508
998.692	13842
999.825	13888
1000.96	13816
1002.09	14010
1003.22	13846
1004.36	14078
1005.49	14252
1006.62	14144
1007.75	14488
1008.89	14390
1010.02	14274
1011.15	14446
1012.28	14482
1013.41	14524
1014.54	14806
1015.67	14828
1016.8	14836
1017.93	14782
1019.07	15004
1020.19	15148
1021.32	15274
1022.45	15364
1023.58	15314
1024.71	15366
1025.84	15510
1026.97	15654
1028.1	15700
1029.23	15770
1030.36	15884
1031.49	15968
1032.61	16098
1033.74	16224
1034.87	16260
1036	16314
1037.12	16332
1038.25	16530
1039.38	16510
1040.5	16686
1041.63	16678
1042.76	16850
1043.88	16750
1045.01	16974
1046.14	17036
1047.26	17086
1048.39	17288
1049.51	17282
1050.64	17422
1051.76	17298
1052.89	17438
1054.01	17648
1055.14	17780
1056.26	17828
1057.38	17908
1058.51	17918
1059.63	17884
1060.75	17998
1061.88	18171
1063	18344
1064.12	18330
1065.25	18442
1066.37	18526
1067.49	18734
1068.61	18578
1069.73	18826
1070.86	18838
1071.98	18906
1073.1	18920
1074.22	18974
1075.34	18954
1076.46	19128
1077.58	19196
1078.7	19292
1079.82	19386
1080.94	19480
1082.06	19466
1083.18	19684
1084.3	19512
1085.42	19530
1086.54	19748
1087.66	19712
1088.78	19642
1089.9	19880
1091.02	19986
1092.14	19982
1093.25	20142
1094.37	20066
1095.49	20200
1096.61	20266
1097.72	20362
1098.84	20222
1099.96	20506
1101.08	20488
1102.19	20510
1103.31	20622
1104.43	20770
1105.54	20600
1106.66	20834
1107.77	20818
1108.89	20888
1110	21100
1111.12	21094
1112.23	21016
1113.35	21200
1114.46	21290
1115.58	21240
1116.69	21294
1117.81	21428
1118.92	21268
1120.03	21562
1121.15	21572
1122.26	21786
1123.37	21762
1124.49	21840
1125.6	21690
1126.71	21868
1127.83	21854
1128.94	22230
1130.05	22032
1131.16	22118
1132.27	22308
1133.39	22396
1134.5	22486
1135.61	22458
1136.72	22436
1137.83	22436
1138.94	22712
1140.05	22440
1141.16	22758
1142.27	22870
1143.38	22888
1144.49	23018
1145.6	23030
1146.71	23090
1147.82	23060
1148.93	22904
1150.04	23138
1151.15	23186
1152.26	23348
1153.36	23110
1154.47	23524
1155.58	23388
1156.69	23522
1157.8	23430
1158.9	23490
1160.01	23708
1161.12	23700
1162.22	23716
1163.33	23614
1164.44	23722
1165.54	23714
1166.65	23900
1167.76	23956
1168.86	23828
1169.97	23774
1171.07	23956
1172.18	24046
1173.28	24066
1174.39	23808
1175.49	24106
1176.6	24038
1177.7	23880
1178.81	24012
1179.91	24024
1181.02	23814
1182.12	23938
1183.22	23914
1184.33	23938
1185.43	24038
1186.53	24010
1187.63	24058
1188.74	23794
1189.84	23880
1190.94	23734
1192.04	23592
1193.15	23912
1194.25	23902
1195.35	23748
1196.45	23698
1197.55	23546
1198.65	23674
1199.75	23666
1200.85	23718
1201.95	23630
1203.05	23640
1204.16	23406
1205.25	23662
1206.35	23430
1207.45	23456
1208.55	23404
1209.65	23292
1210.75	23374
1211.85	23200
1212.95	23360
1214.05	23212
1215.15	23238
1216.24	23022
1217.34	23210
1218.44	23036
1219.54	22884
1220.64	22932
1221.73	22974
1222.83	22848
1223.93	22792
1225.02	22786
1226.12	22536
1227.22	22582
1228.31	22532
1229.41	22448
1230.5	22296
1231.6	22404
1232.7	22396
1233.79	22238
1234.89	22260
1235.98	22342
1237.08	22422
1238.17	22180
1239.26	22124
1240.36	21934
1241.45	21992
1242.55	21962
1243.64	22008
1244.73	21874
1245.83	21842
1246.92	21816
1248.01	21770
1249.11	21628
1250.2	21650
1251.29	21652
1252.38	21654
1253.48	21546
1254.57	21448
1255.66	21362
1256.75	21372
1257.84	21368
1258.93	21488
1260.03	21172
1261.12	21048
1262.21	20954
1263.3	20832
1264.39	21062
1265.48	20844
1266.57	20732
1267.66	20928
1268.75	20688
1269.84	20628
1270.93	20560
1272.02	20584
1273.11	20456
1274.19	20332
1275.28	20360
1276.37	20296
1277.46	20118
1278.55	20096
1279.64	20012
1280.72	19862
1281.81	19968
1282.9	19898
1283.98	19685.8
1285.07	19767.5
1286.16	19495.7
1287.25	19454.1
1288.33	19291
1289.42	19228.4
1290.5	19117.8
1291.59	18990.1
1292.68	18827.5
1293.76	18681.9
1294.85	18477.1
1295.93	18608.4
1297.02	18428.9
1298.1	18326.9
1299.19	18225.8
1300.27	18127.5
1301.36	17896.6
1302.44	17839.6
1303.53	17705.2
1304.61	17671
1305.69	17763.6
1306.78	17382.9
1307.86	17354.6
1308.94	17173.5
1310.03	16981.8
1311.11	17103.9
1312.19	16801.5
1313.27	16874.3
1314.36	16729.4
1315.44	16576.2
1316.52	16452.2
1317.6	16467.9
1318.68	16219.4
1319.77	16230.7
1320.85	16011.3
1321.93	15897.8
1323.01	15778.4
1324.09	15742.9
1325.17	15614.5
1326.25	15622
1327.33	15439.5
1328.41	15293
1329.49	15150.8
1330.57	15082.1
1331.65	15018.1
1332.73	14931.9
1333.81	14795.8
1334.89	14772.3
1335.97	14686.5
1337.04	14548.7
1338.12	14474.1
1339.2	14430.5
1340.28	14282
1341.36	14220
1342.44	14072.2
1343.51	14076.4
1344.59	13911.9
1345.67	13847.2
1346.75	13785.3
1347.82	13758.6
1348.9	13557.1
1349.98	13512.1
1351.05	13345.6
1352.13	13194.4
1353.2	13241.8
1354.28	13120.1
1355.36	12960.5
1356.43	12950.4
1357.51	12920.5
1358.58	12831
1359.66	12766.8
1360.73	12592.1
1361.81	12764.6
1362.88	12533.3
1363.96	12449.3
1365.03	12230.9
1366.1	12260.9
1367.18	12132.7
1368.25	12076.6
1369.33	11995.6
1370.4	11889.4
1371.47	11871.7
1372.54	11793.5
1373.62	11641.3
1374.69	11601.9
1375.76	11419
1376.83	11322.3
1377.91	11423.7
1378.98	11283.4
1380.05	11193.2
1381.12	11108.6
1382.19	11119.7
1383.26	11050.2
1384.34	10988.7
1385.41	10851.8
1386.48	10792.3
1387.55	10889.7
1388.62	10876.3
1389.69	10653.5
1390.76	10413
1391.83	10546.1
1392.9	10360.8
1393.02	10324
1394.1	10372
1395.17	10472
1396.25	10272
1397.32	10340
1398.4	10174
1399.47	10256
1400.55	10072
1401.62	10150
1402.69	10068
1403.77	10008
1404.84	10084
1405.91	9910
1406.99	9986
1408.06	9740
1409.13	9750
1410.2	9738
1411.27	9866
1412.35	9690
1413.42	9702
1414.49	9748
1415.56	9670
1416.63	9524
1417.7	9558
1418.78	9522
1419.85	9424
1420.92	9462
1421.99	9452
1423.06	9358
1424.13	9290
1425.2	9344
1426.27	9256
1427.34	9166
1428.41	9172
1429.48	9154
1430.55	9154
1431.61	9076
1432.68	9098
1433.75	8970
1434.82	9018
1435.89	8880
1436.96	8934
1438.02	8844
1439.09	8892
1440.16	8934
1441.23	8732
1442.3	8706
1443.36	8778
1444.43	8548
1445.5	8790
1446.56	8648
1447.63	8654
1448.7	8676
1449.76	8462
1450.83	8588
1451.89	8526
1452.96	8468
1454.02	8528
1455.09	8432
1456.15	8496
1457.22	8312
1458.28	8408
1459.35	8366
1460.41	8266
1461.48	8268
1462.54	8332
1463.61	8334
1464.67	8280
1465.73	8298
1466.8	8214
1467.86	8254
1468.92	8192
1469.98	8172
1471.05	8018
1472.11	8058
1473.17	8096
1474.24	7964
1475.3	7960
1476.36	8006
1477.42	8066
1478.48	7902
1479.54	7916
1480.6	7882
1481.67	7938
1482.73	7856
1483.79	7810
1484.85	7716
1485.91	7714
1486.97	7716
1488.03	7768
1489.09	7666
1490.15	7790
1491.21	7712
1492.27	7628
1493.33	7610
1494.38	7570
1495.44	7524
1496.5	7512
1497.56	7648
1498.62	7468
1499.68	7478
1500.74	7458
1501.79	7448
1502.85	7378
1503.91	7272
1504.97	7294
1506.02	7332
1507.08	7420
1508.14	7394
1509.2	7368
1510.25	7342
1511.31	7196
1512.36	7230
1513.42	7202
1514.48	7178
1515.53	7138
1516.59	7220
1517.64	7100
1518.7	7030
1519.75	7104
1520.81	6988
1521.86	7062
1522.92	6958
1523.97	6974
1525.02	6950
1526.08	6878
1527.13	7012
1528.19	6882
1529.24	6914
1530.29	6840
1531.35	6804
1532.4	6788
1533.45	6858
1534.51	6728
1535.56	6690
1536.61	6674
1537.66	6708
1538.72	6700
1539.77	6686
1540.82	6706
1541.87	6634
1542.92	6680
1543.97	6588
1545.02	6578
1546.08	6504
1547.13	6586
1548.18	6590
1549.23	6638
1550.28	6502
1551.33	6484
1552.38	6428
1553.43	6386
1554.48	6364
1555.53	6260
1556.57	6322
1557.62	6342
1558.67	6416
1559.72	6368
1560.77	6364
1561.82	6204
1562.87	6358
1563.92	6312
1564.96	6222
1566.01	6276
1567.06	6198
1568.11	6228
1569.15	6194
1570.2	6194
1571.25	6162
1572.29	6220
1573.34	6134
1574.39	6066
1575.43	6124
1576.48	6084
1577.53	6026
1578.57	6128
1579.62	6072
1580.66	6012
1581.71	6002
1582.75	6038
1583.8	5976
1584.84	6104
1585.89	6020
1586.93	6024
1587.98	6018
1589.02	6004
1590.06	5936
1591.11	5904
1592.15	5918
1593.2	5894
1594.24	5934
1595.28	5982
1596.33	5906
1597.37	5904
1598.41	5942
1599.45	5912
1600.5	5784
1601.54	5854
1602.58	5886
1603.62	5900
1604.66	5820
1605.7	5760
1606.75	5790
1607.79	5828
1608.83	5780
1609.87	5824
1610.91	5900
1611.95	5786
1612.99	5816
1614.03	5728
1615.07	5698
1616.11	5786
1617.15	5722
1618.19	5784
1619.23	5696
1620.27	5806
1621.31	5708
1622.35	5676
1623.39	5642
1624.43	5650
1625.46	5678
1626.5	5704
1627.54	5792
1628.58	5640
1629.62	5584
1630.65	5656
1631.69	5680
1632.73	5584
1633.77	5500
1634.8	5572
1635.84	5590
1636.88	5564
1637.91	5578
1638.95	5478
1639.99	5544
1641.02	5498
1642.06	5434
1643.09	5580
1644.13	5554
1645.16	5486
1646.2	5446
1647.23	5472
1648.27	5440
1649.3	5492
1650.34	5426
1651.37	5480
1652.41	5552
1653.44	5384
1654.47	5458
1655.51	5330
1656.54	5418
1657.57	5408
1658.61	5358
1659.64	5386
1660.67	5444
1661.71	5390
1662.74	5342
1663.77	5364
1664.81	5314
1665.84	5288
1666.87	5306
1667.9	5196
1668.93	5314
1669.96	5276
1671	5270
1672.03	5260
1673.06	5252
1674.09	5250
1675.12	5402
1676.15	5232
1677.18	5216
1678.21	5230
1679.24	5200
1680.27	5152
1681.3	5222
1682.33	5086
1683.36	5072
1684.39	5200
1685.42	5158
1686.45	5080
1687.47	5068
1688.5	5168
1689.53	5102
1690.56	4986
1691.59	5116
1692.62	5042
1693.64	5100
1694.67	5100
1695.7	5044
1696.73	5048
1697.75	5040
1698.78	4940
1699.81	5086
1700.83	5078
1701.86	4998
1702.89	4972
1703.91	4994
1704.94	4960
1705.97	5028
1706.99	4998
1708.02	4994
1709.04	4982
1710.07	5018
1711.09	4960
1712.12	4908
1713.14	5008
1714.17	4916
1715.19	5008
1716.22	5030
1717.24	4926
1718.26	5010
1719.29	4856
1720.31	4940
1721.33	4876
1722.36	4904
1723.38	4932
1724.4	4908
1725.43	4872
1726.45	4932
1727.47	4892
1728.49	4886
1729.52	4888
1730.54	4838
1731.56	4920
1732.58	4958
1733.6	4952
1734.63	4872
1735.65	4902
1736.67	4842
1737.69	4922
1738.71	4786
1739.73	4874
1740.75	4828
1741.77	4864
1742.79	4816
1743.81	4776
1744.83	4894
1745.85	4860
1746.87	4850
1747.89	4720
1748.91	4840
1749.93	4822
1750.95	4794
1751.97	4854
1752.98	4814
1754	4872
1755.02	4796
1756.04	4862
1757.06	4776
1758.07	4812
1759.09	4822
1760.11	4804
1761.13	4834
1762.14	4846
1763.16	4798
1764.18	4738
1765.19	4818
1766.21	4882
1767.23	4794
1768.24	4762
1769.26	4814
1770.28	4694
1771.29	4786
1772.31	4798
1773.32	4784
1774.34	4686
1775.35	4754
1776.37	4778
1777.38	4732
1778.4	4770
1779.41	4776
1780.43	4788
1781.44	4742
1782.45	4720
1783.47	4664
1784.48	4702
1785.49	4724
1786.51	4736
1787.52	4782
1788.53	4786
1789.55	4818
1790.56	4800
1791.57	4678
1792.58	4700
1793.6	4726
1794.61	4740
1795.62	4672
1796.63	4722
1797.64	4782
1798.66	4746
1799.67	4744
1800.68	4682
1801.69	4746
1802.7	4678
1803.71	4750
1804.72	4834
1805.73	4662
1806.74	4768
1807.75	4746
1808.76	4650
1809.77	4654
1810.78	4650
1811.79	4708
1812.8	4650
1813.81	4730
1814.82	4672
1815.83	4758
1816.84	4564
1817.84	4602
1818.85	4638
1819.86	4682
1820.87	4698
1821.88	4688
1822.88	4640
1823.89	4558
1824.9	4702
1825.91	4686
1826.91	4614
1827.92	4650
1828.93	4672
1829.93	4546
1830.94	4638
1831.95	4610
1832.95	4568
1833.96	4602
1834.97	4628
1835.97	4656
1836.98	4616
1837.98	4636
1838.99	4538
1839.99	4612
1841	4468
1842	4532
1843.01	4576
1844.01	4600
1845.02	4586
1846.02	4526
1847.02	4554
1848.03	4498
1849.03	4750
1850.03	4492
1851.04	4522
1852.04	4538
1853.04	4634
1854.05	4558
1855.05	4540
1856.05	4494
1857.05	4438
1858.06	4566
1859.06	4566
1860.06	4512
1861.06	4530
1862.06	4544
1863.07	4480
1864.07	4536
1865.07	4468
1866.07	4478
1867.07	4570
1868.07	4500
1869.07	4586
1870.07	4424
1871.07	4484
1872.07	4528
1873.07	4506
1874.07	4474
1875.07	4526
1876.07	4530
1877.07	4492
1878.07	4526
1879.07	4492
1880.07	4466
1881.07	4464
1882.07	4502
1883.06	4508
1884.06	4466
1885.06	4488
1886.06	4516
1887.06	4508
1888.05	4518
1889.05	4348
1890.05	4486
1891.05	4588
1892.04	4486
1893.04	4498
1894.04	4444
1895.03	4382
1896.03	4460
1897.03	4486
1898.02	4538
1899.02	4468
1900.01	4542
1901.01	4386
1902	4616
1903	4520
1903.99	4486
1904.99	4416
1905.98	4532
1906.98	4464
1907.97	4494
1908.97	4502
1909.96	4446
1910.96	4536
1911.95	4530
1912.94	4528
1913.94	4470
1914.93	4364
1915.93	4508
1916.92	4404
1917.91	4476
1918.9	4482
1919.9	4358
1920.89	4474
1921.88	4526
1922.87	4394
1923.87	4434
1924.86	4430
1925.85	4416
1926.84	4498
1927.83	4426
1928.82	4498
1929.82	4440
1930.81	4492
1931.8	4364
1932.79	4466
1933.78	4404
1934.77	4426
1935.76	4406
1936.75	4454
1937.74	4360
1938.73	4420
1939.72	4454
1940.71	4386
1941.7	4456
1942.69	4380
1943.68	4388
1944.67	4406
1945.65	4340
1946.64	4376
1947.63	4400
1948.62	4388
1949.61	4412
1950.6	4362
1951.58	4388
1952.57	4346
1953.56	4434
1954.55	4406
1955.53	4324
1956.52	4356
1957.51	4374
1958.5	4306
1959.48	4384
1960.47	4378
1961.45	4322
1962.44	4350
1963.43	4402
1964.41	4316
1965.4	4358
1966.38	4342
1967.37	4270
1968.35	4250
1969.34	4286
1970.32	4246
1971.31	4318
1972.29	4300
1973.28	4342
1974.26	4292
1975.25	4356
1976.23	4328
1977.22	4374
1978.2	4292
1979.18	4310
1980.17	4250
1981.15	4292
1982.13	4246
1983.12	4354
1984.1	4304
1985.08	4302
1986.06	4286
1987.05	4284
1988.03	4264
1989.01	4240
1989.99	4190
1990.97	4318
1991.96	4188
1992.94	4248
1993.92	4212
1994.9	4232
1995.88	4258
1996.86	4274
1997.84	4308
1998.82	4306
1999.8	4194
2000.78	4312
2001.76	4208
2002.74	4256
2003.72	4202
2004.7	4266
2005.68	4282
2006.66	4228
2007.64	4284
2008.62	4168
2009.6	4226
2010.58	4236
2011.56	4250
2012.54	4152
2013.51	4198
2014.49	4236
2015.47	4182
2016.45	4252
2017.43	4228
2018.4	4210
2019.38	4286
2020.36	4280
2021.34	4214
2022.31	4220
2023.29	4142
2024.27	4192
2025.24	4228
2026.22	4232
2027.2	4176
2028.17	4191
2029.15	4206
2030.12	4188
2031.1	4198
2032.07	4166
2033.05	4134
2034.03	4234
2035	4224
2035.98	4138
2036.95	4150
2037.93	4176
2038.9	4090
2039.87	4170
2040.85	4154
2041.82	4190
2042.8	4122
2043.77	4154
2044.74	4178
2045.72	4124
2046.69	4156
2047.66	4128
2048.64	4078
2049.61	4130
2050.58	4178
2051.55	4130
2052.53	4236
2053.5	4214
2054.47	4218
2055.44	4106
2056.41	4162
2057.39	4144
2058.36	4170
2059.33	4180
2060.3	4190
2061.27	4144
2062.24	4120
2063.21	4106
2064.18	4138
2065.15	4116
2066.12	4176
2067.09	4182
2068.06	4144
2069.03	4114
2070	4208
2070.97	4134
2071.94	4104
2072.91	4116
2073.88	4106
2074.85	4112
2075.82	4124
2076.79	4166
2077.76	4160
2078.73	4046
2079.69	4100
2080.66	4174
2081.63	4100
2082.6	4110
2083.56	4128
2084.53	4136
2085.5	4040
2086.47	4044
2087.43	4080
2088.4	4180
2089.37	4110
2090.33	4188
2091.3	4146
2092.27	4010
2093.23	4100
2094.2	4050
2095.17	4032
2096.13	4018
2097.1	4076
2098.06	4028
2099.03	4130
2099.99	4074
2100.96	4030
2101.92	4138
2102.89	4084
2103.85	4072
2104.82	4050
2105.78	4060
2106.74	4074
2107.71	4022
2108.67	4130
2109.64	4068
2110.6	4178
2111.56	4032
2112.53	4062
2113.49	3984
2114.45	4056
2115.41	4058
2116.38	3958
2117.34	4046
2118.3	4046
2119.26	4046
2120.23	4064
2121.19	4012
2122.15	4034
2123.11	4072
2124.07	4016
2125.03	4078
2126	3998
2126.96	4100
2127.92	4034
2128.88	4054
2129.84	3958
2130.8	4078
2131.76	4094
2132.72	4064
2133.68	4068
2134.64	3926
2135.6	4034
2136.56	4014
2137.52	3922
2138.48	3926
2139.44	4024
2140.4	4016
2141.35	3970
2142.31	4030
2143.27	4030
2144.23	3952
2145.19	4014
2146.15	3964
2147.1	4006
2148.06	3982
2149.02	4042
2149.98	3968
2150.94	3982
2151.89	3976
2152.85	4022
2153.81	3998
2154.76	4002
2155.72	3914
2156.68	3964
2157.63	3938
2158.59	4004
2159.55	3916
2160.5	3944
2161.46	3924
2162.41	3920
2163.37	3984
2164.32	3920
2165.28	3920
2166.23	3848
2167.19	3930
2168.14	3890
2169.1	3868
2170.05	3892
2171.01	3902
2171.96	3876
2172.91	3894
2173.87	3962
2174.82	3974
2175.78	3868
2176.73	3872
2177.68	3884
2178.64	3898
2179.59	3904
2180.54	3828
2181.49	3936
2182.45	3880
2183.4	3832
2184.35	3804
2185.3	3900
2186.26	3952
2187.21	3906
2188.16	3828
2189.11	3846
2190.06	3898
2191.01	3858
2191.96	3838
2192.92	3852
2193.87	3826
2194.82	3826
2195.77	3878
2196.72	3820
2197.67	3830
2198.62	3784
2199.57	3758
2200.52	3818
2201.47	3756
2202.42	3846
2203.37	3758
2204.32	3770
2205.27	3820
2206.22	3826
2207.16	3780
2208.11	3782
2209.06	3770
2210.01	3748
2210.96	3834
2211.91	3798
2212.85	3816
2213.8	3796
2214.75	3788
2215.7	3766
2216.64	3752
2217.59	3764
2218.54	3726
2219.49	3790
2220.43	3772
2221.38	3696
2222.33	3756
2223.27	3775.8
2224.22	3697.88
2225.16	3745.58
2226.11	3731.95
2227.06	3693.73
2228	3695.57
2228.95	3705.01
2229.89	3745.11
2230.84	3679.49
2231.78	3756.08
2232.73	3745.44
2233.67	3628.59
2234.62	3604.76
2235.56	3653.83
2236.51	3648.28
2237.45	3699.13
2238.4	3656.29
2239.34	3701.84
2240.28	3697.48
2241.23	3651.12
2242.17	3613.83
2243.11	3636.24
2244.06	3656.18
2245	3643.12
2245.94	3576.38
2246.89	3543.53
2247.83	3647.72
2248.77	3613.56
2249.71	3606.5
2250.66	3571.2
2251.6	3561.29
2252.54	3557.57
2253.48	3580.71
2254.42	3618.57
2255.37	3539.09
2256.31	3549.15
2257.25	3575.74
2258.19	3539.22
2259.13	3522.59
2260.07	3530.62
2261.01	3445.79
2261.95	3459.95
2262.89	3538.29
2263.83	3513.78
2264.77	3505.12
2265.71	3532.04
2266.65	3496.07
2267.59	3460.87
2268.53	3469.01
2269.47	3430.19
2270.41	3467.74
2271.35	3440.26
2272.29	3415.98
2273.23	3485.7
2274.17	3370.79
2275.1	3341.14
2276.04	3366.61
2276.98	3337.36
2277.92	3385.78
2278.86	3395.81
2279.8	3332.98
2280.73	3394.26
2281.67	3356.99
2282.61	3323.92
2283.55	3307.64
2284.48	3290.69
2285.42	3351.29
2286.36	3353.72
2287.29	3311.03
2288.23	3288.24
2289.17	3314.21
2290.1	3251.71
2291.04	3266.5
2291.98	3267.33
2292.91	3217.92
2293.85	3199.78
2294.78	3268.19
2295.72	3232.32
2296.65	3215.85
2297.59	3208.81
2298.52	3235.11
2299.46	3218.5
2300.39	3160.73
2301.33	3160.03
2302.26	3188.19
2303.2	3215.34
2304.13	3204.62
2305.06	3132.29
2306	3129.87
2306.93	3113.03
2307.87	3090.32
2308.8	3136
2309.73	3140.74
2310.67	3123.2
2311.6	3106.16
2312.53	3103.36
2313.46	3093.92
2314.4	3079.18
2315.33	3099.82
2316.26	3082.43
2316.69	3054
2317.62	3090
2318.56	3094
2319.5	3122
2320.43	3116
2321.37	3088
2322.31	3090
2323.24	3028
2324.18	3054
2325.12	3006
2326.05	3054
2326.99	3052
2327.92	3012
2328.86	3010
2329.79	2976
2330.73	3060
2331.66	3010
2332.6	2948
2333.53	2984
2334.47	3028
2335.4	2960
2336.34	3050
2337.27	2976
2338.2	2934
2339.14	2992
2340.07	2982
2341.01	2990
2341.94	2970
2342.87	2944
2343.81	2930
2344.74	2986
2345.67	2984
2346.6	3016
2347.54	2940
2348.47	2984
2349.4	2970
2350.33	2996
2351.27	2906
2352.2	2964
2353.13	2934
2354.06	2878
2354.99	2982
2355.93	2916
2356.86	2932
2357.79	2890
2358.72	2978
2359.65	2938
2360.58	2908
2361.51	2848
2362.44	2934
2363.37	2916
2364.3	2878
2365.23	2886
2366.16	2906
2367.09	2886
2368.02	2856
2368.95	2826
2369.88	2888
2370.81	2906
2371.74	2910
2372.67	2878
2373.6	2852
2374.52	2868
2375.45	2876
2376.38	2872
2377.31	2844
2378.24	2790
2379.17	2764
2380.09	2808
2381.02	2828
2381.95	2752
2382.88	2798
2383.8	2732
2384.73	2772
2385.66	2754
2386.58	2736
2387.51	2840
2388.44	2760
2389.36	2694
2390.29	2700
2391.22	2800
2392.14	2768
2393.07	2682
2393.99	2688
2394.92	2728
2395.85	2686
2396.77	2690
2397.7	2728
2398.62	2690
2399.55	2640
2400.47	2628
2401.4	2660
2402.32	2730
2403.25	2680
2404.17	2678
2405.09	2690
2406.02	2632
2406.94	2692
2407.86	2704
2408.79	2666
2409.71	2658
2410.63	2634
2411.56	2662
2412.48	2618
2413.4	2596
2414.33	2690
2415.25	2654
2416.17	2644
2417.09	2656
2418.02	2616
2418.94	2588
2419.86	2578
2420.78	2552
2421.7	2588
2422.63	2558
2423.55	2564
2424.47	2548
2425.39	2590
2426.31	2566
2427.23	2504
2428.15	2538
2429.07	2450
2429.99	2520
2430.91	2520
2431.83	2538
2432.75	2574
2433.67	2530
2434.59	2468
2435.51	2510
2436.43	2488
2437.35	2518
2438.27	2520
2439.19	2516
2440.11	2452
2441.03	2522
2441.95	2428
2442.86	2446
2443.78	2490
2444.7	2480
2445.62	2442
2446.54	2464
2447.46	2392
2448.37	2342
2449.29	2360
2450.21	2386
2451.13	2426
2452.04	2388
2452.96	2386
2453.88	2366
2454.79	2416
2455.71	2336
2456.63	2396
2457.54	2368
2458.46	2376
2459.38	2352
2460.29	2394
2461.21	2424
2462.12	2366
2463.04	2336
2463.95	2376
2464.87	2312
2465.78	2342
2466.7	2284
2467.61	2240
2468.53	2332
2469.44	2300
2470.36	2280
2471.27	2286
2472.19	2262
2473.1	2272
2474.01	2294
2474.93	2196
2475.84	2234
2476.76	2198
2477.67	2230
2478.58	2234
2479.5	2246
2480.41	2234
2481.32	2184
2482.23	2128
2483.15	2234
2484.06	2238
2484.97	2196
2485.88	2200
2486.8	2212
2487.71	2182
2488.62	2208
2489.53	2198
2490.44	2128
2491.35	2184
2492.26	2166
2493.18	2238
2494.09	2170
2495	2154
2495.91	2156
2496.82	2102
2497.73	2082
2498.64	2088
2499.55	2116
2500.46	2054
2501.37	2088
2502.28	2096
2503.19	2144
2504.1	2066
2505.01	2116
2505.92	2042
2506.83	2098
2507.74	2062
2508.65	2092
2509.55	2034
2510.46	2054
2511.37	2060
2512.28	2054
2513.19	2018
2514.09	2058
2515	2002
2515.91	2010
2516.82	2046
2517.73	2042
2518.63	1976
2519.54	2032
2520.45	2062
2521.35	1952
2522.26	1980
2523.17	1982
2524.07	1962
2524.98	1956
2525.89	1954
2526.79	2022
2527.7	1938
2528.6	1980
2529.51	1914
2530.42	1900
2531.32	1934
2532.23	1932
2533.13	1948
2534.04	1946
2534.94	1934
2535.85	1896
2536.75	1892
2537.66	1876
2538.56	1886
2539.47	1908
2540.37	1914
2541.27	1932
2542.18	1920
2543.08	1880
2543.98	1900
2544.89	1854
2545.79	1830
2546.7	1860
2547.6	1894
2548.5	1842
2549.4	1836
2550.31	1812
2551.21	1878
2552.11	1810
2553.01	1862
2553.92	1816
2554.82	1800
2555.72	1822
2556.62	1806
2557.52	1826
2558.42	1794
2559.33	1816
2560.23	1784
2561.13	1778
2562.03	1768
2562.93	1794
2563.83	1752
2564.73	1744
2565.63	1788
2566.53	1742
2567.43	1770
2568.33	1788
2569.23	1754
2570.13	1672
2571.03	1752
2571.93	1754
2572.83	1738
2573.73	1720
2574.63	1700
2575.53	1710
2576.43	1718
2577.33	1676
2578.22	1676
2579.12	1742
2580.02	1774
2580.92	1698
2581.82	1700
2582.72	1714
2583.61	1676
2584.51	1688
2585.41	1668
2586.31	1702
2587.2	1688
2588.1	1654
2589	1640
2589.89	1656
2590.79	1630
2591.69	1652
2592.58	1606
2593.48	1684
2594.38	1634
2595.27	1636
2596.17	1600
2597.06	1604
2597.96	1610
2598.86	1646
2599.75	1608
2600.65	1600
2601.54	1558
2602.44	1600
2603.33	1598
2604.23	1600
2605.12	1554
2606.02	1582
2606.91	1588
2607.81	1568
2608.7	1522
2609.59	1582
2610.49	1570
2611.38	1564
2612.27	1530
2613.17	1556
2614.06	1548
2614.95	1554
2615.85	1504
2616.74	1548
2617.63	1522
2618.53	1504
2619.42	1506
2620.31	1526
2621.2	1506
2622.1	1508
2622.99	1514
2623.88	1512
2624.77	1466
2625.66	1492
2626.55	1496
2627.45	1494
2628.34	1412
2629.23	1464
2630.12	1472
2631.01	1480
2631.9	1462
2632.79	1432
2633.68	1492
2634.57	1434
2635.46	1438
2636.35	1502
2637.24	1430
2638.13	1446
2639.02	1400
2639.91	1420
2640.8	1402
2641.69	1356
2642.58	1408
2643.47	1430
2644.36	1368
2645.25	1380
2646.14	1384
2647.02	1378
2647.91	1412
2648.8	1366
2649.69	1390
2650.58	1368
2651.46	1346
2652.35	1368
2653.24	1344
2654.13	1342
2655.01	1314
2655.9	1366
2656.79	1328
2657.68	1382
2658.56	1342
2659.45	1340
2660.34	1336
2661.22	1298
2662.11	1298
2662.99	1306
2663.88	1302
2664.77	1312
2665.65	1330
2666.54	1316
2667.42	1320
2668.31	1334
2669.2	1318
2670.08	1316
2670.96	1300
2671.85	1258
2672.73	1306
2673.62	1322
2674.5	1304
2675.39	1264
2676.27	1220
2677.16	1316
2678.04	1298
2678.93	1278
2679.81	1176
2680.69	1276
2681.58	1268
2682.46	1254
2683.34	1238
2684.23	1250
2685.11	1242
2685.99	1204
2686.87	1240
2687.76	1200
2688.64	1250
2689.52	1216
2690.4	1198
2691.28	1198
2692.17	1248
2693.05	1196
2693.93	1188
2694.81	1232
2695.69	1186
2696.57	1194
2697.46	1194
2698.34	1228
2699.22	1224
2700.1	1158
2700.98	1172
2701.86	1138
2702.74	1162
2703.62	1174
2704.5	1122
2705.38	1150
2706.26	1174
2707.14	1102
2708.02	1168
2708.9	1160
2709.78	1114
2710.66	1160
2711.54	1130
2712.42	1180
2713.3	1104
2714.17	1086
2715.05	1112
2715.93	1126
2716.81	1100
2717.69	1080
2718.57	1118
2719.44	1086
2720.32	1102
2721.2	1080
2722.08	1096
2722.95	1046
2723.83	1126
2724.71	1084
2725.59	1058
2726.46	1086
2727.34	1046
2728.22	1038
2729.09	1058
2729.97	1030
2730.85	1074
2731.72	1056
2732.6	1038
2733.47	1078
2734.35	1060
2735.23	994
2736.1	1028
2736.98	1038
2737.85	1004
2738.73	998
2739.6	1016
2740.48	1018
2741.35	1026
2742.23	992
2743.1	1026
2743.98	992
2744.85	1000
2745.72	982
2746.6	1022
2747.47	1004
2748.35	972
2749.22	974
2750.09	996
2750.97	962
2751.84	978
2752.71	988
2753.59	984
2754.46	980
2755.33	958
2756.2	904
2757.08	952
2757.95	944
2758.82	902
2759.69	932
2760.57	946
2761.44	976
2762.31	966
2763.18	952
2764.05	918
2764.92	952
2765.79	948
2766.67	946
2767.54	916
2768.41	906
2769.28	926
2770.15	914
2771.02	912
2771.89	884
2772.76	906
2773.63	864
2774.5	938
2775.37	886
2776.24	874
2777.11	882
2777.98	888
2778.85	864
2779.72	894
2780.59	842
2781.46	888
2782.32	892
2783.19	880
2784.06	898
2784.93	896
2785.8	874
2786.67	860
2787.53	858
2788.4	862
2789.27	840
2790.14	844
2791.01	826
2791.87	844
2792.74	842
2793.61	868
2794.47	826
2795.34	798
2796.21	806
2797.07	818
2797.94	832
2798.81	824
2799.67	850
2800.54	840
2801.41	814
2802.27	788
2803.14	806
2804	792
2804.87	782
2805.74	796
2806.6	834
2807.47	810
2808.33	792
2809.2	776
2810.06	740
2810.93	770
2811.79	758
2812.65	776
2813.52	756
2814.38	774
2815.25	734
2816.11	774
2816.98	776
2817.84	762
2818.7	772
2819.56	712
2820.43	780
2821.29	730
2822.16	730
2823.02	770
2823.88	738
2824.74	752
2825.61	728
2826.47	730
2827.33	704
2828.19	722
2829.05	694
2829.92	720
2830.78	710
2831.64	710
2832.5	698
2833.36	724
2834.23	710
2835.09	710
2835.95	728
2836.81	704
2837.67	666
2838.53	694
2839.39	714
2840.25	694
2841.11	676
2841.97	698
2842.83	664
2843.69	692
2844.55	646
2845.41	690
2846.27	688
2847.13	646
2847.99	664
2848.85	630
2849.71	628
2850.57	648
2851.43	636
2852.28	662
2853.14	684
2854	650
2854.86	644
2855.72	662
2856.58	678
2857.43	638
2858.29	640
2859.15	654
2860.01	614
2860.86	634
2861.72	664
2862.58	640
2863.44	614
2864.29	636
2865.15	610
2866.01	622
2866.86	628
2867.72	620
2868.58	610
2869.43	602
2870.29	612
2871.14	644
2872	614
2872.86	622
2873.71	615
2874.57	608
2875.42	598
2876.28	632
2877.13	628
2877.99	614
2878.84	574
2879.7	604
2880.55	586
2881.41	582
2882.26	596
2883.11	588
2883.97	554
2884.82	578
2885.68	588
2886.53	570
2887.39	606
2888.24	588
2889.09	580
2889.94	530
2890.8	588
2891.65	602
2892.5	556
2893.36	546
2894.21	530
2895.06	528
2895.91	584
2896.77	550
2897.62	562
2898.47	572
2899.32	586
2900.17	560
2901.03	522
2901.88	522
2902.73	566
2903.58	526
2904.43	534
2905.28	534
2906.13	534
2906.98	578
2907.84	540
2908.69	512
2909.54	568
2910.39	538
2911.24	510
2912.09	526
2912.94	516
2913.79	554
2914.64	528
2915.49	524
2916.34	532
2917.19	510
2918.03	496
2918.88	524
2919.73	540
2920.58	522
2921.43	518
2922.28	506
2923.13	488
2923.98	512
2924.82	512
2925.67	484
2926.52	500
2927.37	514
2928.22	506
2929.06	512
2929.91	492
2930.76	466
2931.61	500
2932.45	502
2933.3	470
2934.15	498
2934.99	488
2935.84	474
2936.69	502
2937.53	500
2938.38	492
2939.23	486
2940.07	508
2940.92	480
2941.76	478
2942.61	472
2943.46	476
2944.3	464
2945.15	482
2945.99	460
2946.84	454
2947.68	460
2948.53	478
2949.37	466
2950.22	464
2951.06	450
2951.9	444
2952.75	464
2953.59	470
2954.44	460
2955.28	448
2956.12	492
2956.97	480
2957.81	472
2958.65	424
2959.5	452
2960.34	436
2961.18	450
2962.03	436
2962.87	446
2963.71	428
2964.56	440
2965.4	454
2966.24	434
2967.08	414
2967.92	444
2968.77	424
2969.61	434
2970.45	442
2971.29	434
2972.13	414
2972.97	434
2973.82	436
2974.66	422
2975.5	452
2976.34	438
2977.18	408
2978.02	410
2978.86	410
2979.7	420
2980.54	420
2981.38	432
2982.22	428
2983.06	390
2983.9	422
2984.74	430
2985.58	418
2986.42	432
2987.26	416
2988.1	402
2988.94	412
2989.78	416
2990.61	398
2991.45	374
2992.29	398
2993.13	402
2993.97	388
2994.81	402
2995.64	412
2996.48	398
2997.32	394
2998.16	368
2999	404
2999.83	364
