#Acq. time (s)=	10
#Accumulations=	1
#Range (cm-¹)=	200...3000
#Windows=	3
#Autofocus=	Off
#AutoExposure=	Off
#Spike filter=	Off
#Delay time (s)=	0
#Binning=	1
#Readout mode=	Signal
#DeNoise=	Off
#ICS correction=	Off
#Dark correction=	Off
#Inst. Process=	Off
#Instrument=	LabRAM HR Evol
#Detector=	Syncerity OE
#Objective=	x100_VIS
#Grating=	600 (500nm)
#ND Filter=	0.01%
#Laser=	633nm_Edge
#Hole=	49.98
#Range=	Visible
#Project=	Omar
#Sample=	03-07-23
#Site=	papal
#Title=	leaf
#Remark=	
#Date=	03.07.2023 16:56
#Acquired=	03.07.2023 16:56:48
201.713	46
202.98	36
204.247	38
205.513	44
206.778	40
208.045	38
209.311	44
210.576	44
211.84	38
213.106	44
214.371	42
215.636	44
216.899	46
218.164	36
219.428	44
220.692	48
221.955	42
223.219	42
224.482	42
225.744	40
227.007	40
228.27	48
229.531	42
230.794	52
232.055	48
233.317	46
234.579	38
235.839	44
237.1	38
238.362	40
239.621	44
240.882	50
242.141	40
243.402	42
244.661	44
245.921	46
247.179	40
248.439	46
249.698	40
250.956	54
252.215	50
253.473	38
254.731	40
255.988	50
257.246	42
258.503	46
259.761	40
261.017	46
262.273	54
263.53	38
264.786	40
266.042	44
267.298	58
268.554	44
269.809	40
271.063	38
272.319	34
273.573	42
274.828	44
276.082	46
277.336	46
278.591	46
279.844	56
281.097	44
282.351	44
283.603	52
284.855	50
286.109	50
287.361	46
288.613	48
289.866	48
291.117	52
292.368	42
293.62	46
294.871	52
296.121	54
297.372	54
298.623	44
299.873	54
301.123	36
302.372	48
303.622	46
304.872	50
306.121	50
307.37	54
308.618	48
309.866	58
311.116	48
312.364	48
313.611	56
314.859	62
316.106	56
317.353	54
318.6	44
319.848	46
321.095	56
322.341	58
323.587	44
324.833	48
326.079	50
327.324	50
328.569	54
329.814	50
331.059	46
332.304	46
333.548	52
334.792	56
336.037	52
337.28	58
338.524	52
339.767	58
341.011	50
342.254	56
343.497	56
344.739	60
345.982	56
347.224	48
348.466	56
349.708	64
350.95	52
352.191	60
353.432	60
354.673	52
355.914	66
357.155	58
358.394	48
359.634	46
360.874	56
362.114	60
363.354	58
364.593	64
365.832	62
367.07	54
368.309	48
369.548	54
370.786	52
372.024	54
373.261	58
374.499	56
375.736	52
376.974	58
378.211	54
379.447	60
380.684	56
381.92	60
383.157	66
384.392	60
385.628	64
386.864	52
388.098	64
389.333	54
390.569	46
391.802	70
393.037	64
394.272	62
395.505	64
396.739	74
397.973	58
399.206	60
400.44	64
401.673	72
402.905	62
404.138	62
405.37	68
406.602	66
407.835	64
409.066	56
410.298	62
411.528	72
412.76	68
413.99	66
415.221	52
416.451	62
417.682	66
418.911	56
420.142	64
421.371	62
422.601	64
423.83	64
425.059	68
426.288	66
427.517	62
428.745	76
429.974	72
431.201	78
432.43	72
433.657	76
434.883	66
436.111	72
437.338	62
438.565	72
439.791	68
441.017	74
442.244	82
443.469	62
444.695	72
445.921	72
447.146	72
448.37	82
449.596	72
450.821	64
452.045	70
453.27	80
454.493	66
455.717	76
456.94	76
458.165	76
459.387	76
460.61	80
461.833	74
463.056	76
464.278	62
465.5	74
466.722	76
467.945	78
469.166	78
470.387	92
471.608	66
472.829	76
474.049	68
475.271	82
476.491	80
477.711	64
478.931	84
480.15	78
481.37	64
482.589	88
483.808	84
485.027	80
486.247	72
487.465	86
488.683	80
489.901	78
491.119	90
492.337	82
493.554	82
494.771	88
495.988	70
497.205	94
498.422	80
499.638	86
500.854	94
502.07	80
503.286	84
504.502	80
505.717	80
506.933	82
508.148	92
509.363	88
510.577	84
511.792	80
513.005	88
514.219	80
515.433	78
516.647	88
517.86	88
519.073	88
520.287	84
521.5	100
522.711	84
523.924	90
525.136	84
526.348	76
527.56	88
528.772	92
529.982	90
531.194	86
532.405	98
533.616	80
534.825	94
536.036	108
537.246	88
538.457	92
539.665	94
540.875	90
542.085	90
543.294	84
544.502	98
545.712	90
546.92	96
548.128	90
549.336	80
550.545	102
551.751	90
552.959	84
554.167	90
555.373	104
556.581	96
557.788	92
558.994	102
560.2	106
561.406	84
562.612	100
563.817	96
565.023	104
566.229	92
567.433	94
568.639	96
569.843	92
571.048	98
572.251	98
573.456	104
574.659	112
575.863	102
577.066	94
578.27	86
579.472	106
580.676	94
581.878	100
583.081	98
584.283	92
585.484	102
586.687	106
587.888	116
589.09	122
590.291	110
591.493	106
592.693	110
593.893	98
595.094	124
596.294	130
597.494	112
598.694	108
599.894	114
601.093	100
602.293	110
603.491	106
604.69	116
605.889	112
607.087	104
608.285	118
609.483	110
610.682	108
611.879	118
613.076	116
614.273	122
615.471	106
616.667	122
617.864	112
619.06	116
620.256	116
621.453	120
622.648	124
623.844	128
625.039	120
626.234	110
627.429	132
628.625	122
629.819	124
631.013	128
632.208	120
633.401	126
634.595	130
635.789	114
636.982	126
638.175	128
639.369	118
640.562	128
641.755	142
642.947	144
644.139	126
645.331	142
646.523	136
647.715	134
648.906	138
650.097	128
651.288	142
652.479	124
653.67	138
654.86	130
656.051	124
657.241	136
658.429	140
659.619	152
660.808	136
661.998	124
663.187	138
664.376	154
665.565	150
666.753	140
667.942	144
669.13	162
670.317	140
671.505	154
672.692	152
673.88	164
675.067	154
676.254	142
677.44	140
678.627	148
679.813	154
681	152
682.184	138
683.37	154
684.556	158
685.742	150
686.926	162
688.111	154
689.296	150
690.481	154
691.664	160
692.849	160
694.033	160
695.216	154
696.4	156
697.584	166
698.766	172
699.949	160
701.133	156
702.314	178
703.497	168
704.678	162
705.861	160
707.043	160
708.224	174
709.406	176
710.586	180
711.768	184
712.949	182
714.129	178
715.31	174
716.489	180
717.67	170
718.849	186
720.029	194
721.208	186
722.388	204
723.566	184
724.746	190
725.924	176
727.103	174
728.28	174
729.458	172
730.636	186
731.814	198
732.992	190
734.168	196
735.345	190
736.523	186
737.699	188
738.876	202
740.052	192
741.227	194
742.404	198
743.579	172
744.754	186
745.931	194
747.105	200
748.28	204
749.455	212
750.629	212
751.803	204
752.977	222
754.152	200
755.325	214
756.499	220
757.672	224
758.846	202
760.018	232
761.191	202
762.363	218
763.535	220
764.708	216
765.88	224
767.052	220
768.223	220
769.394	222
770.565	220
771.737	218
772.908	226
774.078	238
775.249	250
776.419	228
777.589	242
778.758	212
779.928	230
781.097	224
782.266	226
783.435	228
784.604	240
785.773	238
786.941	246
788.11	264
789.278	232
790.446	238
791.613	262
792.781	256
793.948	244
795.115	248
796.282	246
797.449	244
798.616	254
799.782	262
800.948	260
802.115	272
803.28	254
804.446	264
805.612	250
806.777	270
807.941	276
809.106	270
810.271	300
811.435	274
812.6	298
813.764	278
814.927	280
816.091	284
817.254	268
818.418	298
819.581	280
820.743	296
821.906	276
823.069	288
824.232	282
825.393	312
826.555	304
827.717	286
828.879	312
830.039	316
831.201	284
832.362	308
833.522	318
834.683	308
835.844	304
837.003	326
838.164	318
839.324	326
840.483	314
841.643	334
842.801	338
843.961	314
845.12	316
846.278	336
847.437	324
848.594	360
849.753	312
850.91	346
852.069	344
853.227	338
854.383	314
855.541	356
856.697	330
857.855	356
859.011	342
860.168	370
861.323	356
862.48	358
863.635	362
864.79	342
865.946	366
867.101	380
868.257	354
869.411	356
870.567	374
871.721	372
872.874	370
874.029	392
875.183	372
876.336	370
877.49	396
878.643	388
879.796	404
880.95	384
882.102	398
883.254	386
884.407	402
885.559	388
886.711	390
887.862	402
889.015	386
890.166	398
891.317	402
892.467	406
893.619	388
894.77	372
895.92	390
897.07	422
898.221	402
899.371	414
900.52	416
901.669	412
902.819	420
903.968	414
905.116	404
906.266	420
907.415	406
908.563	426
909.711	440
910.859	444
912.007	446
913.154	472
914.301	430
915.449	448
916.596	434
917.742	454
918.889	450
920.036	466
921.183	482
922.329	464
923.475	454
924.621	480
925.765	462
926.911	510
928.056	472
929.201	448
930.346	482
931.49	456
932.635	484
933.779	482
934.924	464
936.068	480
937.211	506
938.355	498
939.498	522
940.64	498
941.784	518
942.926	524
944.069	506
945.212	508
946.354	542
947.495	512
948.637	526
949.779	550
950.921	538
952.062	514
953.202	520
954.344	552
955.484	528
956.625	544
957.765	542
958.905	554
960.045	556
961.184	558
962.324	528
963.464	556
964.604	530
965.742	568
966.881	598
968.02	564
969.158	564
970.296	560
971.434	568
972.572	564
973.71	588
974.847	564
975.985	590
977.121	578
978.259	604
979.396	600
980.532	580
981.669	592
982.804	584
983.941	604
985.076	608
986.212	626
987.347	620
988.483	618
989.617	594
990.753	648
991.887	620
993.022	642
994.156	612
995.29	636
996.424	638
997.558	652
998.692	650
999.825	636
1000.96	660
1002.09	674
1003.22	632
1004.36	636
1005.49	662
1006.62	682
1007.75	644
1008.89	692
1010.02	688
1011.15	658
1012.28	688
1013.41	690
1014.54	666
1015.67	700
1016.8	716
1017.93	712
1019.07	680
1020.19	666
1021.32	722
1022.45	724
1023.58	722
1024.71	704
1025.84	740
1026.97	734
1028.1	690
1029.23	778
1030.36	724
1031.49	724
1032.61	756
1033.74	732
1034.87	768
1036	776
1037.12	776
1038.25	780
1039.38	758
1040.5	776
1041.63	786
1042.76	826
1043.88	794
1045.01	804
1046.14	794
1047.26	794
1048.39	810
1049.51	816
1050.64	808
1051.76	784
1052.89	816
1054.01	822
1055.14	826
1056.26	822
1057.38	814
1058.51	838
1059.63	870
1060.75	804
1061.88	842
1063	880
1064.12	888
1065.25	914
1066.37	882
1067.49	870
1068.61	904
1069.73	862
1070.86	904
1071.98	820
1073.1	906
1074.22	898
1075.34	896
1076.46	876
1077.58	904
1078.7	916
1079.82	856
1080.94	910
1082.06	896
1083.18	892
1084.3	898
1085.42	906
1086.54	924
1087.66	960
1088.78	898
1089.9	902
1091.02	908
1092.14	926
1093.25	912
1094.37	910
1095.49	922
1096.61	898
1097.72	946
1098.84	982
1099.96	974
1101.08	934
1102.19	978
1103.31	976
1104.43	960
1105.54	944
1106.66	968
1107.77	992
1108.89	944
1110	978
1111.12	976
1112.23	980
1113.35	998
1114.46	996
1115.58	998
1116.69	1016
1117.81	994
1118.92	1002
1120.03	972
1121.15	994
1122.26	984
1123.37	982
1124.49	1026
1125.6	980
1126.71	1008
1127.83	1030
1128.94	1062
1130.05	1068
1131.16	1050
1132.27	1024
1133.39	1030
1134.5	1030
1135.61	1040
1136.72	1034
1137.83	1088
1138.94	1050
1140.05	1064
1141.16	1090
1142.27	1050
1143.38	1060
1144.49	1056
1145.6	1030
1146.71	1062
1147.82	1094
1148.93	1064
1150.04	1056
1151.15	1064
1152.26	1082
1153.36	1078
1154.47	1050
1155.58	1092
1156.69	1078
1157.8	1072
1158.9	1094
1160.01	1116
1161.12	1092
1162.22	1106
1163.33	1084
1164.44	1126
1165.54	1082
1166.65	1138
1167.76	1134
1168.86	1086
1169.97	1122
1171.07	1108
1172.18	1100
1173.28	1072
1174.39	1102
1175.49	1068
1176.6	1104
1177.7	1094
1178.81	1078
1179.91	1092
1181.02	1074
1182.12	1108
1183.22	1086
1184.33	1118
1185.43	1084
1186.53	1132
1187.63	1140
1188.74	1068
1189.84	1034
1190.94	1104
1192.04	1088
1193.15	1122
1194.25	1090
1195.35	1128
1196.45	1068
1197.55	1124
1198.65	1126
1199.75	1098
1200.85	1076
1201.95	1104
1203.05	1086
1204.16	1138
1205.25	1088
1206.35	1068
1207.45	1102
1208.55	1062
1209.65	1068
1210.75	1094
1211.85	1094
1212.95	1078
1214.05	1062
1215.15	1032
1216.24	1048
1217.34	1084
1218.44	1058
1219.54	1084
1220.64	1040
1221.73	1064
1222.83	1092
1223.93	1056
1225.02	1038
1226.12	1102
1227.22	1008
1228.31	1030
1229.41	1094
1230.5	1020
1231.6	1044
1232.7	1034
1233.79	1038
1234.89	1052
1235.98	1024
1237.08	1004
1238.17	1054
1239.26	1014
1240.36	996
1241.45	1014
1242.55	1062
1243.64	1026
1244.73	1022
1245.83	1020
1246.92	1004
1248.01	994
1249.11	1014
1250.2	976
1251.29	1018
1252.38	1042
1253.48	1020
1254.57	996
1255.66	1030
1256.75	988
1257.84	1000
1258.93	978
1260.03	964
1261.12	920
1262.21	972
1263.3	972
1264.39	946
1265.48	984
1266.57	964
1267.66	958
1268.75	958
1269.84	982
1270.93	988
1272.02	958
1273.11	968
1274.19	932
1275.28	968
1276.37	914
1277.46	936
1278.55	940
1279.64	980
1280.72	900
1281.81	940
1282.9	928
1283.98	897.935
1285.07	925.499
1286.16	898.331
1287.25	941.297
1288.33	915.421
1289.42	944.645
1290.5	882.275
1291.59	906.856
1292.68	915.1
1293.76	895.277
1294.85	891.81
1295.93	866.46
1297.02	885.263
1298.1	920.506
1299.19	880.53
1300.27	888.849
1301.36	875.247
1302.44	867.379
1303.53	825.665
1304.61	884.565
1305.69	864.897
1306.78	859.812
1307.86	883.322
1308.94	859.613
1310.03	843.079
1311.11	851.839
1312.19	825.479
1313.27	846.95
1314.36	844.974
1315.44	800.614
1316.52	828.278
1317.6	836.419
1318.68	791.312
1319.77	795.577
1320.85	792.439
1321.93	836.7
1323.01	814.668
1324.09	792.481
1325.17	782.516
1326.25	818.3
1327.33	795.489
1328.41	777.338
1329.49	805.307
1330.57	781.378
1331.65	757.791
1332.73	789.433
1333.81	761.657
1334.89	757.481
1335.97	745.608
1337.04	748.247
1338.12	739.335
1339.2	738.83
1340.28	727.442
1341.36	731.276
1342.44	753.534
1343.51	763.382
1344.59	732.998
1345.67	756.503
1346.75	737.826
1347.82	712.442
1348.9	703.049
1349.98	710.66
1351.05	716.348
1352.13	721.891
1353.2	733.174
1354.28	689.235
1355.36	727.402
1356.43	687.317
1357.51	708
1358.58	701.159
1359.66	707.824
1360.73	708.234
1361.81	677.404
1362.88	674.028
1363.96	671.552
1365.03	691.053
1366.1	661.511
1367.18	663.699
1368.25	674.109
1369.33	672.643
1370.4	677.749
1371.47	674.525
1372.54	663.237
1373.62	655.067
1374.69	652.07
1375.76	663.94
1376.83	668.023
1377.91	637.663
1378.98	643.775
1380.05	616.09
1381.12	625.997
1382.19	636.015
1383.26	667.567
1384.34	632.139
1385.41	639.441
1386.48	636.673
1387.55	619.271
1388.62	615.511
1389.69	596.462
1390.76	603.923
1391.83	627.218
1392.9	615.848
1393.02	614
1394.1	650
1395.17	614
1396.25	630
1397.32	612
1398.4	598
1399.47	600
1400.55	564
1401.62	612
1402.69	594
1403.77	586
1404.84	604
1405.91	542
1406.99	588
1408.06	610
1409.13	588
1410.2	578
1411.27	592
1412.35	580
1413.42	586
1414.49	582
1415.56	608
1416.63	560
1417.7	556
1418.78	584
1419.85	584
1420.92	550
1421.99	584
1423.06	560
1424.13	532
1425.2	574
1426.27	554
1427.34	570
1428.41	558
1429.48	556
1430.55	510
1431.61	536
1432.68	558
1433.75	526
1434.82	530
1435.89	574
1436.96	562
1438.02	528
1439.09	540
1440.16	542
1441.23	558
1442.3	530
1443.36	538
1444.43	520
1445.5	542
1446.56	526
1447.63	534
1448.7	518
1449.76	510
1450.83	534
1451.89	526
1452.96	542
1454.02	522
1455.09	512
1456.15	488
1457.22	510
1458.28	502
1459.35	506
1460.41	514
1461.48	504
1462.54	528
1463.61	512
1464.67	502
1465.73	514
1466.8	502
1467.86	522
1468.92	510
1469.98	488
1471.05	502
1472.11	506
1473.17	482
1474.24	492
1475.3	494
1476.36	482
1477.42	466
1478.48	490
1479.54	484
1480.6	488
1481.67	474
1482.73	494
1483.79	474
1484.85	474
1485.91	502
1486.97	478
1488.03	494
1489.09	462
1490.15	492
1491.21	464
1492.27	504
1493.33	462
1494.38	446
1495.44	478
1496.5	442
1497.56	470
1498.62	476
1499.68	462
1500.74	476
1501.79	450
1502.85	454
1503.91	466
1504.97	436
1506.02	452
1507.08	460
1508.14	456
1509.2	462
1510.25	466
1511.31	438
1512.36	458
1513.42	468
1514.48	466
1515.53	430
1516.59	440
1517.64	454
1518.7	450
1519.75	454
1520.81	456
1521.86	454
1522.92	452
1523.97	456
1525.02	440
1526.08	446
1527.13	458
1528.19	422
1529.24	430
1530.29	440
1531.35	430
1532.4	430
1533.45	426
1534.51	416
1535.56	438
1536.61	456
1537.66	438
1538.72	416
1539.77	420
1540.82	442
1541.87	438
1542.92	422
1543.97	412
1545.02	408
1546.08	416
1547.13	408
1548.18	430
1549.23	416
1550.28	412
1551.33	370
1552.38	416
1553.43	414
1554.48	386
1555.53	400
1556.57	422
1557.62	410
1558.67	424
1559.72	392
1560.77	392
1561.82	430
1562.87	394
1563.92	406
1564.96	410
1566.01	372
1567.06	398
1568.11	402
1569.15	396
1570.2	404
1571.25	396
1572.29	408
1573.34	400
1574.39	386
1575.43	402
1576.48	400
1577.53	394
1578.57	404
1579.62	412
1580.66	400
1581.71	386
1582.75	372
1583.8	382
1584.84	394
1585.89	374
1586.93	364
1587.98	384
1589.02	392
1590.06	378
1591.11	380
1592.15	394
1593.2	380
1594.24	394
1595.28	386
1596.33	404
1597.37	388
1598.41	352
1599.45	390
1600.5	352
1601.54	390
1602.58	378
1603.62	372
1604.66	374
1605.7	378
1606.75	384
1607.79	358
1608.83	394
1609.87	394
1610.91	372
1611.95	344
1612.99	404
1614.03	382
1615.07	350
1616.11	366
1617.15	364
1618.19	380
1619.23	370
1620.27	368
1621.31	360
1622.35	372
1623.39	356
1624.43	374
1625.46	372
1626.5	374
1627.54	366
1628.58	370
1629.62	382
1630.65	372
1631.69	388
1632.73	372
1633.77	378
1634.8	368
1635.84	392
1636.88	366
1637.91	352
1638.95	362
1639.99	352
1641.02	346
1642.06	356
1643.09	366
1644.13	362
1645.16	360
1646.2	372
1647.23	376
1648.27	376
1649.3	354
1650.34	378
1651.37	338
1652.41	352
1653.44	346
1654.47	364
1655.51	354
1656.54	376
1657.57	356
1658.61	360
1659.64	354
1660.67	366
1661.71	360
1662.74	344
1663.77	368
1664.81	362
1665.84	338
1666.87	338
1667.9	364
1668.93	358
1669.96	360
1671	338
1672.03	348
1673.06	352
1674.09	370
1675.12	356
1676.15	352
1677.18	356
1678.21	350
1679.24	346
1680.27	352
1681.3	346
1682.33	354
1683.36	328
1684.39	344
1685.42	346
1686.45	354
1687.47	332
1688.5	336
1689.53	334
1690.56	336
1691.59	360
1692.62	346
1693.64	336
1694.67	340
1695.7	344
1696.73	366
1697.75	348
1698.78	352
1699.81	348
1700.83	350
1701.86	338
1702.89	334
1703.91	334
1704.94	320
1705.97	336
1706.99	348
1708.02	332
1709.04	334
1710.07	348
1711.09	326
1712.12	334
1713.14	334
1714.17	322
1715.19	346
1716.22	318
1717.24	330
1718.26	314
1719.29	332
1720.31	332
1721.33	332
1722.36	322
1723.38	332
1724.4	332
1725.43	346
1726.45	340
1727.47	306
1728.49	342
1729.52	336
1730.54	364
1731.56	306
1732.58	316
1733.6	334
1734.63	334
1735.65	330
1736.67	322
1737.69	318
1738.71	354
1739.73	320
1740.75	324
1741.77	344
1742.79	336
1743.81	306
1744.83	316
1745.85	336
1746.87	320
1747.89	312
1748.91	338
1749.93	342
1750.95	330
1751.97	330
1752.98	308
1754	344
1755.02	316
1756.04	348
1757.06	326
1758.07	306
1759.09	354
1760.11	320
1761.13	324
1762.14	340
1763.16	340
1764.18	342
1765.19	314
1766.21	320
1767.23	340
1768.24	318
1769.26	338
1770.28	322
1771.29	306
1772.31	348
1773.32	324
1774.34	322
1775.35	348
1776.37	326
1777.38	328
1778.4	340
1779.41	324
1780.43	336
1781.44	324
1782.45	318
1783.47	318
1784.48	312
1785.49	328
1786.51	316
1787.52	310
1788.53	326
1789.55	312
1790.56	340
1791.57	340
1792.58	352
1793.6	334
1794.61	336
1795.62	328
1796.63	322
1797.64	320
1798.66	312
1799.67	344
1800.68	346
1801.69	336
1802.7	324
1803.71	350
1804.72	328
1805.73	316
1806.74	340
1807.75	342
1808.76	302
1809.77	336
1810.78	326
1811.79	340
1812.8	318
1813.81	332
1814.82	326
1815.83	308
1816.84	344
1817.84	318
1818.85	322
1819.86	320
1820.87	324
1821.88	362
1822.88	330
1823.89	310
1824.9	312
1825.91	336
1826.91	328
1827.92	326
1828.93	336
1829.93	340
1830.94	326
1831.95	310
1832.95	332
1833.96	342
1834.97	320
1835.97	326
1836.98	334
1837.98	308
1838.99	322
1839.99	326
1841	338
1842	316
1843.01	324
1844.01	314
1845.02	324
1846.02	312
1847.02	350
1848.03	332
1849.03	316
1850.03	310
1851.04	330
1852.04	304
1853.04	316
1854.05	312
1855.05	306
1856.05	308
1857.05	312
1858.06	326
1859.06	304
1860.06	312
1861.06	304
1862.06	314
1863.07	316
1864.07	314
1865.07	304
1866.07	318
1867.07	310
1868.07	352
1869.07	330
1870.07	284
1871.07	336
1872.07	336
1873.07	306
1874.07	322
1875.07	312
1876.07	322
1877.07	330
1878.07	306
1879.07	330
1880.07	312
1881.07	340
1882.07	310
1883.06	304
1884.06	320
1885.06	312
1886.06	312
1887.06	320
1888.05	308
1889.05	300
1890.05	322
1891.05	336
1892.04	314
1893.04	300
1894.04	290
1895.03	330
1896.03	292
1897.03	316
1898.02	324
1899.02	330
1900.01	310
1901.01	302
1902	322
1903	340
1903.99	320
1904.99	310
1905.98	314
1906.98	298
1907.97	338
1908.97	322
1909.96	332
1910.96	316
1911.95	306
1912.94	320
1913.94	328
1914.93	310
1915.93	292
1916.92	306
1917.91	326
1918.9	330
1919.9	320
1920.89	322
1921.88	302
1922.87	304
1923.87	316
1924.86	300
1925.85	330
1926.84	292
1927.83	308
1928.82	302
1929.82	328
1930.81	316
1931.8	318
1932.79	300
1933.78	338
1934.77	336
1935.76	300
1936.75	322
1937.74	298
1938.73	322
1939.72	292
1940.71	312
1941.7	314
1942.69	304
1943.68	328
1944.67	316
1945.65	310
1946.64	334
1947.63	322
1948.62	308
1949.61	322
1950.6	330
1951.58	308
1952.57	294
1953.56	322
1954.55	328
1955.53	302
1956.52	312
1957.51	302
1958.5	310
1959.48	310
1960.47	332
1961.45	318
1962.44	318
1963.43	302
1964.41	300
1965.4	322
1966.38	306
1967.37	308
1968.35	320
1969.34	302
1970.32	320
1971.31	322
1972.29	314
1973.28	326
1974.26	316
1975.25	308
1976.23	314
1977.22	298
1978.2	306
1979.18	292
1980.17	326
1981.15	324
1982.13	308
1983.12	324
1984.1	316
1985.08	324
1986.06	322
1987.05	338
1988.03	316
1989.01	322
1989.99	310
1990.97	290
1991.96	318
1992.94	330
1993.92	318
1994.9	314
1995.88	332
1996.86	330
1997.84	292
1998.82	316
1999.8	302
2000.78	304
2001.76	312
2002.74	308
2003.72	310
2004.7	314
2005.68	300
2006.66	332
2007.64	330
2008.62	326
2009.6	298
2010.58	304
2011.56	296
2012.54	292
2013.51	314
2014.49	322
2015.47	294
2016.45	298
2017.43	316
2018.4	308
2019.38	314
2020.36	302
2021.34	300
2022.31	300
2023.29	288
2024.27	314
2025.24	298
2026.22	290
2027.2	306
2028.17	307
2029.15	308
2030.12	316
2031.1	304
2032.07	312
2033.05	288
2034.03	290
2035	316
2035.98	314
2036.95	282
2037.93	300
2038.9	314
2039.87	312
2040.85	324
2041.82	322
2042.8	290
2043.77	296
2044.74	300
2045.72	332
2046.69	300
2047.66	310
2048.64	310
2049.61	308
2050.58	290
2051.55	306
2052.53	300
2053.5	310
2054.47	314
2055.44	304
2056.41	312
2057.39	310
2058.36	314
2059.33	308
2060.3	306
2061.27	310
2062.24	318
2063.21	314
2064.18	300
2065.15	302
2066.12	298
2067.09	306
2068.06	302
2069.03	314
2070	296
2070.97	320
2071.94	302
2072.91	306
2073.88	300
2074.85	306
2075.82	308
2076.79	302
2077.76	318
2078.73	306
2079.69	302
2080.66	300
2081.63	310
2082.6	302
2083.56	298
2084.53	336
2085.5	300
2086.47	312
2087.43	304
2088.4	302
2089.37	306
2090.33	328
2091.3	290
2092.27	304
2093.23	320
2094.2	308
2095.17	306
2096.13	332
2097.1	300
2098.06	304
2099.03	304
2099.99	290
2100.96	314
2101.92	304
2102.89	302
2103.85	308
2104.82	310
2105.78	270
2106.74	300
2107.71	290
2108.67	276
2109.64	286
2110.6	310
2111.56	286
2112.53	280
2113.49	294
2114.45	312
2115.41	280
2116.38	300
2117.34	286
2118.3	324
2119.26	278
2120.23	278
2121.19	288
2122.15	300
2123.11	312
2124.07	294
2125.03	290
2126	310
2126.96	280
2127.92	304
2128.88	324
2129.84	300
2130.8	308
2131.76	288
2132.72	296
2133.68	312
2134.64	298
2135.6	308
2136.56	308
2137.52	294
2138.48	298
2139.44	312
2140.4	298
2141.35	302
2142.31	300
2143.27	296
2144.23	300
2145.19	290
2146.15	278
2147.1	316
2148.06	296
2149.02	290
2149.98	302
2150.94	304
2151.89	296
2152.85	290
2153.81	290
2154.76	288
2155.72	302
2156.68	302
2157.63	300
2158.59	318
2159.55	276
2160.5	312
2161.46	306
2162.41	288
2163.37	294
2164.32	290
2165.28	294
2166.23	300
2167.19	296
2168.14	296
2169.1	302
2170.05	296
2171.01	286
2171.96	274
2172.91	292
2173.87	286
2174.82	292
2175.78	298
2176.73	300
2177.68	292
2178.64	292
2179.59	296
2180.54	286
2181.49	304
2182.45	296
2183.4	282
2184.35	306
2185.3	282
2186.26	294
2187.21	270
2188.16	280
2189.11	296
2190.06	304
2191.01	296
2191.96	284
2192.92	290
2193.87	276
2194.82	302
2195.77	310
2196.72	308
2197.67	280
2198.62	266
2199.57	272
2200.52	290
2201.47	268
2202.42	294
2203.37	278
2204.32	288
2205.27	278
2206.22	286
2207.16	276
2208.11	292
2209.06	282
2210.01	296
2210.96	272
2211.91	282
2212.85	272
2213.8	270
2214.75	284
2215.7	272
2216.64	302
2217.59	266
2218.54	270
2219.49	284
2220.43	300
2221.38	288
2222.33	290
2223.27	295.89
2224.22	287.796
2225.16	278.076
2226.11	289.044
2227.06	283.73
2228	279.868
2228.95	284.746
2229.89	297.54
2230.84	274.978
2231.78	285.182
2232.73	291.153
2233.67	273.995
2234.62	298.005
2235.56	287.044
2236.51	290.859
2237.45	287.38
2238.4	278.667
2239.34	295.88
2240.28	277.691
2241.23	278.954
2242.17	275.104
2243.11	298.497
2244.06	283.87
2245	277.698
2245.94	293.68
2246.89	291.005
2247.83	275.993
2248.77	276.682
2249.71	288.709
2250.66	274.745
2251.6	280.481
2252.54	270.803
2253.48	279.964
2254.42	281.174
2255.37	281.24
2256.31	265.68
2257.25	260.719
2258.19	300.716
2259.13	282.112
2260.07	274.78
2261.01	268.372
2261.95	298.404
2262.89	280.893
2263.83	276.9
2264.77	277.263
2265.71	280.098
2266.65	277.801
2267.59	290.546
2268.53	267.39
2269.47	276.664
2270.41	264.461
2271.35	281.05
2272.29	287.4
2273.23	276.087
2274.17	283.723
2275.1	294.544
2276.04	279.171
2276.98	291.537
2277.92	284.619
2278.86	282.041
2279.8	277.659
2280.73	276.928
2281.67	275.63
2282.61	274.788
2283.55	268.928
2284.48	265.963
2285.42	278.345
2286.36	285.685
2287.29	272.675
2288.23	273.973
2289.17	279.497
2290.1	270.56
2291.04	263.35
2291.98	277.656
2292.91	270.243
2293.85	261.48
2294.78	266.052
2295.72	270.646
2296.65	273.914
2297.59	276.744
2298.52	274
2299.46	265.996
2300.39	261.852
2301.33	276.546
2302.26	281.532
2303.2	273.673
2304.13	275.739
2305.06	274.338
2306	280.725
2306.93	276.296
2307.87	267.43
2308.8	257.202
2309.73	250.582
2310.67	254.55
2311.6	252.962
2312.53	253.25
2313.46	256.486
2314.4	264.217
2315.33	265.7
2316.26	257.638
2316.69	254
2317.62	254
2318.56	288
2319.5	264
2320.43	258
2321.37	262
2322.31	278
2323.24	252
2324.18	282
2325.12	254
2326.05	248
2326.99	260
2327.92	278
2328.86	282
2329.79	284
2330.73	266
2331.66	254
2332.6	276
2333.53	268
2334.47	270
2335.4	262
2336.34	274
2337.27	262
2338.2	262
2339.14	278
2340.07	258
2341.01	246
2341.94	260
2342.87	236
2343.81	246
2344.74	254
2345.67	232
2346.6	266
2347.54	256
2348.47	244
2349.4	252
2350.33	260
2351.27	250
2352.2	252
2353.13	254
2354.06	266
2354.99	258
2355.93	220
2356.86	242
2357.79	244
2358.72	234
2359.65	256
2360.58	260
2361.51	252
2362.44	250
2363.37	264
2364.3	244
2365.23	248
2366.16	256
2367.09	246
2368.02	274
2368.95	250
2369.88	248
2370.81	236
2371.74	236
2372.67	260
2373.6	242
2374.52	232
2375.45	252
2376.38	256
2377.31	246
2378.24	236
2379.17	238
2380.09	248
2381.02	254
2381.95	270
2382.88	248
2383.8	250
2384.73	228
2385.66	230
2386.58	254
2387.51	224
2388.44	236
2389.36	234
2390.29	246
2391.22	250
2392.14	244
2393.07	264
2393.99	230
2394.92	228
2395.85	248
2396.77	236
2397.7	254
2398.62	238
2399.55	250
2400.47	248
2401.4	238
2402.32	246
2403.25	224
2404.17	254
2405.09	244
2406.02	236
2406.94	240
2407.86	248
2408.79	234
2409.71	232
2410.63	234
2411.56	226
2412.48	262
2413.4	238
2414.33	236
2415.25	222
2416.17	228
2417.09	232
2418.02	238
2418.94	234
2419.86	242
2420.78	216
2421.7	236
2422.63	234
2423.55	228
2424.47	230
2425.39	240
2426.31	228
2427.23	220
2428.15	214
2429.07	228
2429.99	230
2430.91	222
2431.83	236
2432.75	226
2433.67	236
2434.59	228
2435.51	218
2436.43	218
2437.35	240
2438.27	232
2439.19	216
2440.11	228
2441.03	214
2441.95	230
2442.86	216
2443.78	230
2444.7	198
2445.62	214
2446.54	226
2447.46	252
2448.37	218
2449.29	230
2450.21	208
2451.13	214
2452.04	232
2452.96	208
2453.88	218
2454.79	212
2455.71	218
2456.63	206
2457.54	218
2458.46	216
2459.38	220
2460.29	224
2461.21	210
2462.12	224
2463.04	204
2463.95	220
2464.87	196
2465.78	192
2466.7	212
2467.61	198
2468.53	206
2469.44	216
2470.36	188
2471.27	214
2472.19	206
2473.1	206
2474.01	216
2474.93	212
2475.84	220
2476.76	218
2477.67	200
2478.58	208
2479.5	202
2480.41	210
2481.32	194
2482.23	204
2483.15	206
2484.06	206
2484.97	196
2485.88	210
2486.8	218
2487.71	194
2488.62	222
2489.53	194
2490.44	196
2491.35	200
2492.26	198
2493.18	212
2494.09	196
2495	184
2495.91	190
2496.82	182
2497.73	196
2498.64	204
2499.55	196
2500.46	198
2501.37	200
2502.28	170
2503.19	200
2504.1	176
2505.01	206
2505.92	182
2506.83	192
2507.74	212
2508.65	182
2509.55	196
2510.46	178
2511.37	192
2512.28	204
2513.19	194
2514.09	200
2515	184
2515.91	190
2516.82	188
2517.73	202
2518.63	186
2519.54	188
2520.45	202
2521.35	192
2522.26	180
2523.17	174
2524.07	186
2524.98	200
2525.89	202
2526.79	188
2527.7	204
2528.6	172
2529.51	188
2530.42	178
2531.32	186
2532.23	176
2533.13	196
2534.04	194
2534.94	166
2535.85	180
2536.75	172
2537.66	172
2538.56	190
2539.47	190
2540.37	194
2541.27	176
2542.18	184
2543.08	178
2543.98	168
2544.89	196
2545.79	178
2546.7	194
2547.6	186
2548.5	184
2549.4	180
2550.31	172
2551.21	174
2552.11	170
2553.01	178
2553.92	176
2554.82	168
2555.72	170
2556.62	184
2557.52	168
2558.42	172
2559.33	184
2560.23	174
2561.13	154
2562.03	162
2562.93	174
2563.83	164
2564.73	170
2565.63	168
2566.53	178
2567.43	182
2568.33	172
2569.23	172
2570.13	190
2571.03	172
2571.93	168
2572.83	180
2573.73	172
2574.63	174
2575.53	178
2576.43	172
2577.33	162
2578.22	168
2579.12	146
2580.02	176
2580.92	182
2581.82	168
2582.72	166
2583.61	178
2584.51	162
2585.41	184
2586.31	174
2587.2	166
2588.1	158
2589	162
2589.89	158
2590.79	164
2591.69	160
2592.58	182
2593.48	162
2594.38	166
2595.27	162
2596.17	160
2597.06	154
2597.96	162
2598.86	150
2599.75	158
2600.65	148
2601.54	144
2602.44	180
2603.33	148
2604.23	162
2605.12	156
2606.02	168
2606.91	156
2607.81	168
2608.7	146
2609.59	158
2610.49	158
2611.38	146
2612.27	160
2613.17	176
2614.06	150
2614.95	148
2615.85	154
2616.74	152
2617.63	150
2618.53	154
2619.42	142
2620.31	158
2621.2	150
2622.1	148
2622.99	154
2623.88	156
2624.77	146
2625.66	162
2626.55	168
2627.45	144
2628.34	158
2629.23	164
2630.12	154
2631.01	146
2631.9	154
2632.79	138
2633.68	152
2634.57	148
2635.46	134
2636.35	158
2637.24	152
2638.13	146
2639.02	152
2639.91	138
2640.8	136
2641.69	142
2642.58	148
2643.47	142
2644.36	142
2645.25	144
2646.14	142
2647.02	150
2647.91	126
2648.8	136
2649.69	150
2650.58	140
2651.46	134
2652.35	148
2653.24	134
2654.13	146
2655.01	142
2655.9	146
2656.79	140
2657.68	150
2658.56	138
2659.45	152
2660.34	138
2661.22	132
2662.11	134
2662.99	138
2663.88	152
2664.77	132
2665.65	134
2666.54	130
2667.42	142
2668.31	130
2669.2	150
2670.08	132
2670.96	152
2671.85	132
2672.73	140
2673.62	142
2674.5	124
2675.39	146
2676.27	142
2677.16	138
2678.04	122
2678.93	118
2679.81	140
2680.69	126
2681.58	132
2682.46	146
2683.34	136
2684.23	132
2685.11	140
2685.99	128
2686.87	120
2687.76	114
2688.64	126
2689.52	132
2690.4	120
2691.28	134
2692.17	136
2693.05	126
2693.93	128
2694.81	124
2695.69	132
2696.57	124
2697.46	112
2698.34	136
2699.22	128
2700.1	130
2700.98	122
2701.86	130
2702.74	112
2703.62	138
2704.5	120
2705.38	126
2706.26	130
2707.14	134
2708.02	120
2708.9	140
2709.78	126
2710.66	136
2711.54	134
2712.42	124
2713.3	128
2714.17	118
2715.05	134
2715.93	120
2716.81	124
2717.69	116
2718.57	124
2719.44	116
2720.32	118
2721.2	118
2722.08	118
2722.95	122
2723.83	122
2724.71	108
2725.59	120
2726.46	116
2727.34	114
2728.22	122
2729.09	132
2729.97	116
2730.85	112
2731.72	114
2732.6	122
2733.47	138
2734.35	110
2735.23	124
2736.1	114
2736.98	120
2737.85	118
2738.73	118
2739.6	122
2740.48	116
2741.35	120
2742.23	122
2743.1	114
2743.98	116
2744.85	104
2745.72	104
2746.6	118
2747.47	112
2748.35	112
2749.22	116
2750.09	108
2750.97	122
2751.84	112
2752.71	116
2753.59	104
2754.46	102
2755.33	116
2756.2	112
2757.08	104
2757.95	112
2758.82	108
2759.69	104
2760.57	96
2761.44	106
2762.31	104
2763.18	112
2764.05	120
2764.92	100
2765.79	100
2766.67	112
2767.54	108
2768.41	104
2769.28	104
2770.15	108
2771.02	118
2771.89	104
2772.76	108
2773.63	114
2774.5	122
2775.37	110
2776.24	118
2777.11	108
2777.98	94
2778.85	114
2779.72	104
2780.59	94
2781.46	92
2782.32	106
2783.19	112
2784.06	100
2784.93	100
2785.8	92
2786.67	106
2787.53	90
2788.4	104
2789.27	116
2790.14	94
2791.01	106
2791.87	106
2792.74	104
2793.61	100
2794.47	84
2795.34	108
2796.21	100
2797.07	96
2797.94	100
2798.81	98
2799.67	88
2800.54	100
2801.41	104
2802.27	98
2803.14	100
2804	86
2804.87	90
2805.74	102
2806.6	106
2807.47	104
2808.33	96
2809.2	94
2810.06	104
2810.93	110
2811.79	94
2812.65	106
2813.52	96
2814.38	102
2815.25	90
2816.11	94
2816.98	108
2817.84	92
2818.7	92
2819.56	88
2820.43	96
2821.29	90
2822.16	94
2823.02	96
2823.88	92
2824.74	90
2825.61	92
2826.47	88
2827.33	108
2828.19	92
2829.05	94
2829.92	82
2830.78	92
2831.64	88
2832.5	104
2833.36	86
2834.23	96
2835.09	80
2835.95	90
2836.81	88
2837.67	90
2838.53	82
2839.39	90
2840.25	90
2841.11	86
2841.97	96
2842.83	82
2843.69	76
2844.55	78
2845.41	86
2846.27	84
2847.13	88
2847.99	84
2848.85	70
2849.71	84
2850.57	86
2851.43	90
2852.28	80
2853.14	80
2854	82
2854.86	84
2855.72	80
2856.58	90
2857.43	88
2858.29	88
2859.15	88
2860.01	82
2860.86	84
2861.72	76
2862.58	84
2863.44	92
2864.29	86
2865.15	84
2866.01	86
2866.86	68
2867.72	88
2868.58	64
2869.43	82
2870.29	88
2871.14	82
2872	90
2872.86	80
2873.71	77
2874.57	74
2875.42	82
2876.28	80
2877.13	80
2877.99	82
2878.84	76
2879.7	78
2880.55	78
2881.41	94
2882.26	78
2883.11	82
2883.97	84
2884.82	76
2885.68	78
2886.53	78
2887.39	92
2888.24	68
2889.09	76
2889.94	80
2890.8	70
2891.65	84
2892.5	80
2893.36	82
2894.21	88
2895.06	74
2895.91	84
2896.77	68
2897.62	80
2898.47	68
2899.32	82
2900.17	84
2901.03	72
2901.88	76
2902.73	74
2903.58	76
2904.43	68
2905.28	76
2906.13	74
2906.98	82
2907.84	78
2908.69	68
2909.54	72
2910.39	68
2911.24	72
2912.09	80
2912.94	70
2913.79	80
2914.64	72
2915.49	80
2916.34	76
2917.19	72
2918.03	72
2918.88	72
2919.73	76
2920.58	62
2921.43	68
2922.28	76
2923.13	76
2923.98	66
2924.82	74
2925.67	64
2926.52	70
2927.37	78
2928.22	80
2929.06	76
2929.91	68
2930.76	78
2931.61	72
2932.45	72
2933.3	68
2934.15	72
2934.99	76
2935.84	64
2936.69	62
2937.53	62
2938.38	70
2939.23	70
2940.07	68
2940.92	64
2941.76	70
2942.61	70
2943.46	70
2944.3	66
2945.15	74
2945.99	72
2946.84	72
2947.68	60
2948.53	72
2949.37	70
2950.22	66
2951.06	72
2951.9	82
2952.75	62
2953.59	64
2954.44	68
2955.28	70
2956.12	78
2956.97	80
2957.81	66
2958.65	64
2959.5	64
2960.34	64
2961.18	62
2962.03	62
2962.87	78
2963.71	60
2964.56	74
2965.4	62
2966.24	68
2967.08	64
2967.92	72
2968.77	66
2969.61	68
2970.45	62
2971.29	72
2972.13	64
2972.97	70
2973.82	62
2974.66	64
2975.5	68
2976.34	68
2977.18	70
2978.02	72
2978.86	58
2979.7	50
2980.54	62
2981.38	68
2982.22	52
2983.06	68
2983.9	58
2984.74	66
2985.58	64
2986.42	66
2987.26	78
2988.1	60
2988.94	54
2989.78	70
2990.61	68
2991.45	72
2992.29	78
2993.13	58
2993.97	70
2994.81	64
2995.64	64
2996.48	64
2997.32	74
2998.16	56
2999	58
2999.83	64
