#Acq. time (s)=	10
#Accumulations=	1
#Range (cm-¹)=	200...3000
#Windows=	3
#Autofocus=	Off
#AutoExposure=	Off
#Spike filter=	Off
#Delay time (s)=	0
#Binning=	1
#Readout mode=	Signal
#DeNoise=	Off
#ICS correction=	Off
#Dark correction=	Off
#Inst. Process=	Off
#Instrument=	LabRAM HR Evol
#Detector=	Syncerity OE
#Objective=	x100_VIS
#Grating=	600 (500nm)
#ND Filter=	0.1%
#Laser=	633nm_Edge
#Hole=	20.0287
#Range=	Visible
#Project=	Omar
#Sample=	03-07-23
#Site=	papal
#Title=	leaf
#Remark=	
#Date=	03.07.2023 16:49
#Acquired=	03.07.2023 16:49:34
201.713	56
202.98	68
204.247	62
205.513	70
206.778	62
208.045	68
209.311	74
210.576	74
211.84	70
213.106	60
214.371	66
215.636	66
216.899	74
218.164	72
219.428	72
220.692	68
221.955	74
223.219	78
224.482	70
225.744	82
227.007	66
228.27	72
229.531	70
230.794	68
232.055	68
233.317	68
234.579	74
235.839	72
237.1	82
238.362	70
239.621	70
240.882	80
242.141	76
243.402	78
244.661	88
245.921	78
247.179	76
248.439	76
249.698	86
250.956	84
252.215	66
253.473	66
254.731	90
255.988	82
257.246	82
258.503	80
259.761	78
261.017	84
262.273	84
263.53	96
264.786	76
266.042	84
267.298	82
268.554	82
269.809	90
271.063	86
272.319	88
273.573	84
274.828	86
276.082	94
277.336	96
278.591	96
279.844	84
281.097	94
282.351	88
283.603	88
284.855	84
286.109	92
287.361	86
288.613	102
289.866	98
291.117	94
292.368	88
293.62	96
294.871	94
296.121	108
297.372	100
298.623	100
299.873	104
301.123	94
302.372	98
303.622	92
304.872	106
306.121	96
307.37	98
308.618	94
309.866	108
311.116	108
312.364	108
313.611	100
314.859	88
316.106	102
317.353	102
318.6	98
319.848	98
321.095	102
322.341	110
323.587	102
324.833	106
326.079	106
327.324	114
328.569	114
329.814	106
331.059	114
332.304	108
333.548	112
334.792	106
336.037	120
337.28	120
338.524	114
339.767	116
341.011	118
342.254	120
343.497	110
344.739	116
345.982	114
347.224	116
348.466	118
349.708	124
350.95	130
352.191	120
353.432	138
354.673	120
355.914	112
357.155	112
358.394	116
359.634	110
360.874	116
362.114	128
363.354	128
364.593	122
365.832	122
367.07	124
368.309	138
369.548	134
370.786	136
372.024	120
373.261	130
374.499	128
375.736	118
376.974	140
378.211	136
379.447	140
380.684	120
381.92	128
383.157	130
384.392	134
385.628	136
386.864	138
388.098	138
389.333	138
390.569	136
391.802	130
393.037	146
394.272	148
395.505	144
396.739	148
397.973	144
399.206	148
400.44	138
401.673	138
402.905	146
404.138	156
405.37	152
406.602	154
407.835	150
409.066	158
410.298	154
411.528	156
412.76	160
413.99	148
415.221	158
416.451	158
417.682	160
418.911	154
420.142	166
421.371	158
422.601	160
423.83	160
425.059	164
426.288	150
427.517	170
428.745	160
429.974	164
431.201	156
432.43	158
433.657	160
434.883	180
436.111	172
437.338	176
438.565	164
439.791	180
441.017	166
442.244	166
443.469	162
444.695	172
445.921	168
447.146	176
448.37	168
449.596	164
450.821	188
452.045	174
453.27	162
454.493	186
455.717	182
456.94	182
458.165	182
459.387	186
460.61	194
461.833	174
463.056	188
464.278	180
465.5	196
466.722	180
467.945	196
469.166	192
470.387	202
471.608	188
472.829	188
474.049	190
475.271	190
476.491	204
477.711	204
478.931	190
480.15	200
481.37	198
482.589	224
483.808	206
485.027	212
486.247	202
487.465	206
488.683	210
489.901	188
491.119	212
492.337	204
493.554	200
494.771	206
495.988	218
497.205	194
498.422	228
499.638	218
500.854	212
502.07	218
503.286	206
504.502	202
505.717	218
506.933	234
508.148	232
509.363	216
510.577	202
511.792	210
513.005	218
514.219	212
515.433	238
516.647	220
517.86	214
519.073	228
520.287	252
521.5	236
522.711	216
523.924	232
525.136	210
526.348	228
527.56	230
528.772	246
529.982	216
531.194	234
532.405	234
533.616	220
534.825	244
536.036	220
537.246	246
538.457	234
539.665	232
540.875	208
542.085	240
543.294	230
544.502	242
545.712	236
546.92	236
548.128	234
549.336	236
550.545	234
551.751	270
552.959	238
554.167	232
555.373	246
556.581	250
557.788	254
558.994	248
560.2	268
561.406	254
562.612	252
563.817	246
565.023	250
566.229	268
567.433	280
568.639	292
569.843	258
571.048	270
572.251	258
573.456	284
574.659	282
575.863	286
577.066	284
578.27	280
579.472	262
580.676	302
581.878	292
583.081	286
584.283	282
585.484	282
586.687	288
587.888	308
589.09	296
590.291	298
591.493	300
592.693	288
593.893	296
595.094	302
596.294	310
597.494	288
598.694	310
599.894	282
601.093	298
602.293	304
603.491	298
604.69	306
605.889	304
607.087	322
608.285	320
609.483	312
610.682	332
611.879	288
613.076	314
614.273	318
615.471	324
616.667	322
617.864	338
619.06	342
620.256	306
621.453	340
622.648	342
623.844	328
625.039	338
626.234	352
627.429	330
628.625	362
629.819	340
631.013	348
632.208	344
633.401	340
634.595	364
635.789	366
636.982	372
638.175	348
639.369	368
640.562	360
641.755	380
642.947	384
644.139	374
645.331	344
646.523	352
647.715	368
648.906	406
650.097	390
651.288	390
652.479	392
653.67	394
654.86	422
656.051	356
657.241	396
658.429	394
659.619	390
660.808	398
661.998	398
663.187	404
664.376	394
665.565	398
666.753	422
667.942	410
669.13	400
670.317	410
671.505	410
672.692	426
673.88	422
675.067	428
676.254	412
677.44	426
678.627	426
679.813	434
681	440
682.184	418
683.37	438
684.556	450
685.742	470
686.926	432
688.111	428
689.296	468
690.481	452
691.664	448
692.849	452
694.033	488
695.216	476
696.4	450
697.584	432
698.766	478
699.949	482
701.133	486
702.314	492
703.497	472
704.678	500
705.861	470
707.043	500
708.224	510
709.406	488
710.586	486
711.768	498
712.949	504
714.129	504
715.31	506
716.489	524
717.67	482
718.849	512
720.029	552
721.208	540
722.388	512
723.566	508
724.746	546
725.924	532
727.103	538
728.28	530
729.458	546
730.636	546
731.814	550
732.992	550
734.168	576
735.345	564
736.523	560
737.699	560
738.876	546
740.052	586
741.227	576
742.404	604
743.579	594
744.754	580
745.931	584
747.105	582
748.28	590
749.455	576
750.629	578
751.803	612
752.977	592
754.152	596
755.325	596
756.499	654
757.672	624
758.846	604
760.018	592
761.191	626
762.363	622
763.535	666
764.708	648
765.88	618
767.052	678
768.223	652
769.394	628
770.565	672
771.737	662
772.908	694
774.078	672
775.249	678
776.419	712
777.589	674
778.758	682
779.928	692
781.097	730
782.266	684
783.435	710
784.604	704
785.773	728
786.941	708
788.11	712
789.278	718
790.446	706
791.613	724
792.781	702
793.948	708
795.115	752
796.282	768
797.449	792
798.616	764
799.782	768
800.948	784
802.115	766
803.28	788
804.446	798
805.612	806
806.777	816
807.941	824
809.106	788
810.271	832
811.435	824
812.6	808
813.764	844
814.927	838
816.091	830
817.254	866
818.418	860
819.581	846
820.743	872
821.906	852
823.069	872
824.232	842
825.393	856
826.555	880
827.717	888
828.879	864
830.039	872
831.201	898
832.362	922
833.522	918
834.683	950
835.844	906
837.003	876
838.164	930
839.324	904
840.483	934
841.643	974
842.801	916
843.961	986
845.12	986
846.278	1012
847.437	968
848.594	992
849.753	968
850.91	1000
852.069	986
853.227	998
854.383	1058
855.541	1082
856.697	1040
857.855	1016
859.011	1026
860.168	1060
861.323	1044
862.48	1042
863.635	1090
864.79	1058
865.946	1108
867.101	1088
868.257	1096
869.411	1120
870.567	1114
871.721	1084
872.874	1060
874.029	1126
875.183	1158
876.336	1150
877.49	1134
878.643	1132
879.796	1118
880.95	1200
882.102	1190
883.254	1160
884.407	1162
885.559	1140
886.711	1196
887.862	1218
889.015	1232
890.166	1204
891.317	1200
892.467	1184
893.619	1190
894.77	1238
895.92	1198
897.07	1246
898.221	1208
899.371	1260
900.52	1268
901.669	1288
902.819	1240
903.968	1252
905.116	1314
906.266	1274
907.415	1246
908.563	1320
909.711	1332
910.859	1266
912.007	1336
913.154	1336
914.301	1376
915.449	1346
916.596	1302
917.742	1344
918.889	1382
920.036	1384
921.183	1390
922.329	1370
923.475	1402
924.621	1394
925.765	1362
926.911	1410
928.056	1432
929.201	1386
930.346	1404
931.49	1454
932.635	1430
933.779	1472
934.924	1478
936.068	1490
937.211	1470
938.355	1504
939.498	1484
940.64	1496
941.784	1554
942.926	1518
944.069	1538
945.212	1568
946.354	1552
947.495	1594
948.637	1594
949.779	1572
950.921	1632
952.062	1578
953.202	1616
954.344	1574
955.484	1628
956.625	1584
957.765	1606
958.905	1594
960.045	1688
961.184	1650
962.324	1672
963.464	1656
964.604	1686
965.742	1702
966.881	1730
968.02	1704
969.158	1742
970.296	1726
971.434	1794
972.572	1738
973.71	1822
974.847	1756
975.985	1764
977.121	1750
978.259	1776
979.396	1762
980.532	1788
981.669	1792
982.804	1814
983.941	1826
985.076	1814
986.212	1874
987.347	1864
988.483	1848
989.617	1882
990.753	1876
991.887	1840
993.022	1888
994.156	1940
995.29	1882
996.424	1880
997.558	1910
998.692	1926
999.825	1892
1000.96	1932
1002.09	1950
1003.22	1940
1004.36	1984
1005.49	1982
1006.62	1990
1007.75	2060
1008.89	2052
1010.02	2020
1011.15	1992
1012.28	2084
1013.41	2026
1014.54	2016
1015.67	2046
1016.8	2070
1017.93	2056
1019.07	2112
1020.19	2102
1021.32	2116
1022.45	2144
1023.58	2134
1024.71	2168
1025.84	2148
1026.97	2236
1028.1	2174
1029.23	2202
1030.36	2286
1031.49	2210
1032.61	2212
1033.74	2286
1034.87	2258
1036	2234
1037.12	2366
1038.25	2310
1039.38	2344
1040.5	2368
1041.63	2320
1042.76	2384
1043.88	2350
1045.01	2428
1046.14	2344
1047.26	2392
1048.39	2382
1049.51	2430
1050.64	2450
1051.76	2422
1052.89	2398
1054.01	2450
1055.14	2440
1056.26	2428
1057.38	2524
1058.51	2468
1059.63	2516
1060.75	2582
1061.88	2566
1063	2550
1064.12	2506
1065.25	2502
1066.37	2644
1067.49	2584
1068.61	2584
1069.73	2560
1070.86	2602
1071.98	2644
1073.1	2674
1074.22	2658
1075.34	2690
1076.46	2648
1077.58	2606
1078.7	2612
1079.82	2598
1080.94	2650
1082.06	2668
1083.18	2650
1084.3	2636
1085.42	2658
1086.54	2668
1087.66	2766
1088.78	2710
1089.9	2732
1091.02	2764
1092.14	2746
1093.25	2694
1094.37	2706
1095.49	2750
1096.61	2772
1097.72	2778
1098.84	2784
1099.96	2836
1101.08	2768
1102.19	2802
1103.31	2848
1104.43	2800
1105.54	2786
1106.66	2840
1107.77	2884
1108.89	2838
1110	2860
1111.12	2882
1112.23	2890
1113.35	2876
1114.46	2872
1115.58	2878
1116.69	2888
1117.81	2974
1118.92	2896
1120.03	2870
1121.15	3002
1122.26	2926
1123.37	2980
1124.49	2938
1125.6	2944
1126.71	2918
1127.83	2938
1128.94	2960
1130.05	2942
1131.16	2972
1132.27	3032
1133.39	2994
1134.5	3002
1135.61	3054
1136.72	3046
1137.83	3130
1138.94	3090
1140.05	3072
1141.16	3092
1142.27	3128
1143.38	3124
1144.49	3112
1145.6	3082
1146.71	3070
1147.82	3176
1148.93	3118
1150.04	3188
1151.15	3160
1152.26	3184
1153.36	3140
1154.47	3140
1155.58	3140
1156.69	3162
1157.8	3204
1158.9	3132
1160.01	3184
1161.12	3136
1162.22	3168
1163.33	3212
1164.44	3168
1165.54	3184
1166.65	3194
1167.76	3168
1168.86	3184
1169.97	3252
1171.07	3250
1172.18	3254
1173.28	3152
1174.39	3170
1175.49	3176
1176.6	3184
1177.7	3210
1178.81	3234
1179.91	3234
1181.02	3254
1182.12	3170
1183.22	3260
1184.33	3210
1185.43	3100
1186.53	3156
1187.63	3234
1188.74	3240
1189.84	3144
1190.94	3212
1192.04	3214
1193.15	3158
1194.25	3172
1195.35	3194
1196.45	3188
1197.55	3194
1198.65	3142
1199.75	3102
1200.85	3154
1201.95	3162
1203.05	3208
1204.16	3140
1205.25	3162
1206.35	3154
1207.45	3054
1208.55	3112
1209.65	3116
1210.75	3136
1211.85	3116
1212.95	3100
1214.05	3162
1215.15	3088
1216.24	3072
1217.34	3114
1218.44	3060
1219.54	3088
1220.64	3044
1221.73	3114
1222.83	3108
1223.93	3062
1225.02	3058
1226.12	2986
1227.22	3030
1228.31	3014
1229.41	3038
1230.5	2946
1231.6	2952
1232.7	2904
1233.79	2946
1234.89	2940
1235.98	2948
1237.08	3008
1238.17	2996
1239.26	2936
1240.36	2916
1241.45	2934
1242.55	2884
1243.64	2860
1244.73	2950
1245.83	2952
1246.92	2936
1248.01	2828
1249.11	2894
1250.2	2900
1251.29	2852
1252.38	2824
1253.48	2890
1254.57	2910
1255.66	2836
1256.75	2834
1257.84	2858
1258.93	2808
1260.03	2818
1261.12	2860
1262.21	2820
1263.3	2774
1264.39	2852
1265.48	2776
1266.57	2764
1267.66	2758
1268.75	2820
1269.84	2786
1270.93	2754
1272.02	2794
1273.11	2728
1274.19	2762
1275.28	2662
1276.37	2696
1277.46	2702
1278.55	2712
1279.64	2684
1280.72	2652
1281.81	2678
1282.9	2650
1283.98	2624.65
1285.07	2667.08
1286.16	2686.76
1287.25	2697.23
1288.33	2634.53
1289.42	2577.15
1290.5	2615.63
1291.59	2603.48
1292.68	2640.68
1293.76	2631.61
1294.85	2595.67
1295.93	2564.97
1297.02	2519.83
1298.1	2558.7
1299.19	2516.81
1300.27	2554.97
1301.36	2528.17
1302.44	2496.41
1303.53	2468.03
1304.61	2470.18
1305.69	2480.32
1306.78	2469.31
1307.86	2486.63
1308.94	2468.99
1310.03	2411.05
1311.11	2442.3
1312.19	2409.99
1313.27	2411.17
1314.36	2423.15
1315.44	2425.77
1316.52	2360.89
1317.6	2398.93
1318.68	2353.75
1319.77	2398.31
1320.85	2365.5
1321.93	2343.52
1323.01	2374.94
1324.09	2363.62
1325.17	2309.67
1326.25	2344.79
1327.33	2319.11
1328.41	2267.82
1329.49	2245.46
1330.57	2262.98
1331.65	2272.35
1332.73	2252.93
1333.81	2253.93
1334.89	2238.11
1335.97	2230.33
1337.04	2249.44
1338.12	2218.1
1339.2	2213.52
1340.28	2197.23
1341.36	2200.23
1342.44	2191.59
1343.51	2154.86
1344.59	2194.19
1345.67	2172.5
1346.75	2147.81
1347.82	2173.56
1348.9	2130.85
1349.98	2151.07
1351.05	2162.99
1352.13	2134.87
1353.2	2127.08
1354.28	2135.77
1355.36	2116.85
1356.43	2122.27
1357.51	2123.02
1358.58	2025.11
1359.66	2020.54
1360.73	2065.01
1361.81	2080.47
1362.88	2058.77
1363.96	2019.03
1365.03	2027.82
1366.1	2019.02
1367.18	2036.63
1368.25	2021.88
1369.33	1996.46
1370.4	1976.25
1371.47	1997.43
1372.54	2002.1
1373.62	2001.98
1374.69	1935.32
1375.76	1954.57
1376.83	1913.54
1377.91	1915.82
1378.98	1924.28
1380.05	1929.83
1381.12	1906.51
1382.19	1913.4
1383.26	1955.92
1384.34	1875.06
1385.41	1923.68
1386.48	1876.63
1387.55	1867.26
1388.62	1843.07
1389.69	1908.9
1390.76	1866.08
1391.83	1944.51
1392.9	1902.79
1393.02	1896
1394.1	1862
1395.17	1840
1396.25	1820
1397.32	1880
1398.4	1806
1399.47	1810
1400.55	1756
1401.62	1848
1402.69	1784
1403.77	1800
1404.84	1754
1405.91	1768
1406.99	1796
1408.06	1784
1409.13	1762
1410.2	1796
1411.27	1766
1412.35	1720
1413.42	1746
1414.49	1724
1415.56	1726
1416.63	1722
1417.7	1716
1418.78	1694
1419.85	1728
1420.92	1704
1421.99	1728
1423.06	1678
1424.13	1658
1425.2	1690
1426.27	1680
1427.34	1638
1428.41	1662
1429.48	1630
1430.55	1598
1431.61	1654
1432.68	1642
1433.75	1618
1434.82	1614
1435.89	1642
1436.96	1628
1438.02	1606
1439.09	1606
1440.16	1618
1441.23	1608
1442.3	1614
1443.36	1608
1444.43	1598
1445.5	1610
1446.56	1570
1447.63	1616
1448.7	1582
1449.76	1598
1450.83	1564
1451.89	1554
1452.96	1544
1454.02	1566
1455.09	1544
1456.15	1550
1457.22	1534
1458.28	1528
1459.35	1526
1460.41	1552
1461.48	1494
1462.54	1520
1463.61	1526
1464.67	1494
1465.73	1536
1466.8	1482
1467.86	1490
1468.92	1516
1469.98	1482
1471.05	1486
1472.11	1500
1473.17	1484
1474.24	1456
1475.3	1448
1476.36	1466
1477.42	1488
1478.48	1478
1479.54	1424
1480.6	1460
1481.67	1434
1482.73	1418
1483.79	1452
1484.85	1412
1485.91	1456
1486.97	1444
1488.03	1438
1489.09	1448
1490.15	1480
1491.21	1404
1492.27	1440
1493.33	1388
1494.38	1456
1495.44	1404
1496.5	1444
1497.56	1392
1498.62	1470
1499.68	1432
1500.74	1380
1501.79	1432
1502.85	1416
1503.91	1352
1504.97	1412
1506.02	1378
1507.08	1342
1508.14	1336
1509.2	1354
1510.25	1308
1511.31	1324
1512.36	1328
1513.42	1306
1514.48	1330
1515.53	1364
1516.59	1380
1517.64	1294
1518.7	1348
1519.75	1298
1520.81	1356
1521.86	1330
1522.92	1334
1523.97	1338
1525.02	1322
1526.08	1318
1527.13	1278
1528.19	1312
1529.24	1310
1530.29	1288
1531.35	1256
1532.4	1324
1533.45	1276
1534.51	1290
1535.56	1276
1536.61	1280
1537.66	1296
1538.72	1256
1539.77	1264
1540.82	1272
1541.87	1288
1542.92	1222
1543.97	1208
1545.02	1256
1546.08	1252
1547.13	1226
1548.18	1210
1549.23	1224
1550.28	1250
1551.33	1208
1552.38	1198
1553.43	1202
1554.48	1228
1555.53	1208
1556.57	1236
1557.62	1194
1558.67	1184
1559.72	1222
1560.77	1264
1561.82	1180
1562.87	1176
1563.92	1212
1564.96	1196
1566.01	1192
1567.06	1194
1568.11	1166
1569.15	1140
1570.2	1168
1571.25	1162
1572.29	1164
1573.34	1202
1574.39	1164
1575.43	1162
1576.48	1126
1577.53	1146
1578.57	1168
1579.62	1116
1580.66	1124
1581.71	1146
1582.75	1144
1583.8	1148
1584.84	1188
1585.89	1144
1586.93	1130
1587.98	1154
1589.02	1128
1590.06	1212
1591.11	1114
1592.15	1114
1593.2	1116
1594.24	1100
1595.28	1138
1596.33	1168
1597.37	1108
1598.41	1138
1599.45	1094
1600.5	1146
1601.54	1088
1602.58	1144
1603.62	1096
1604.66	1150
1605.7	1150
1606.75	1164
1607.79	1120
1608.83	1110
1609.87	1132
1610.91	1094
1611.95	1070
1612.99	1148
1614.03	1106
1615.07	1094
1616.11	1088
1617.15	1078
1618.19	1086
1619.23	1108
1620.27	1106
1621.31	1116
1622.35	1138
1623.39	1094
1624.43	1070
1625.46	1092
1626.5	1092
1627.54	1078
1628.58	1058
1629.62	1060
1630.65	1102
1631.69	1086
1632.73	1100
1633.77	1070
1634.8	1100
1635.84	1138
1636.88	1044
1637.91	1052
1638.95	1026
1639.99	1088
1641.02	1046
1642.06	1036
1643.09	1052
1644.13	1086
1645.16	1056
1646.2	1064
1647.23	1062
1648.27	1024
1649.3	1022
1650.34	1042
1651.37	1074
1652.41	1092
1653.44	1092
1654.47	1054
1655.51	1048
1656.54	1064
1657.57	1056
1658.61	1040
1659.64	1048
1660.67	1016
1661.71	1044
1662.74	1058
1663.77	1070
1664.81	1024
1665.84	1042
1666.87	1010
1667.9	1020
1668.93	1050
1669.96	1034
1671	1022
1672.03	996
1673.06	1024
1674.09	1034
1675.12	1016
1676.15	1034
1677.18	984
1678.21	1026
1679.24	1010
1680.27	1004
1681.3	950
1682.33	1026
1683.36	988
1684.39	1022
1685.42	964
1686.45	1040
1687.47	1022
1688.5	1014
1689.53	982
1690.56	978
1691.59	1044
1692.62	978
1693.64	1032
1694.67	992
1695.7	992
1696.73	988
1697.75	988
1698.78	1004
1699.81	990
1700.83	972
1701.86	984
1702.89	964
1703.91	940
1704.94	950
1705.97	1000
1706.99	982
1708.02	1000
1709.04	994
1710.07	986
1711.09	1002
1712.12	996
1713.14	966
1714.17	950
1715.19	960
1716.22	972
1717.24	972
1718.26	950
1719.29	984
1720.31	928
1721.33	958
1722.36	986
1723.38	936
1724.4	1018
1725.43	984
1726.45	976
1727.47	944
1728.49	970
1729.52	938
1730.54	924
1731.56	932
1732.58	990
1733.6	980
1734.63	960
1735.65	968
1736.67	946
1737.69	964
1738.71	968
1739.73	1000
1740.75	948
1741.77	966
1742.79	932
1743.81	978
1744.83	940
1745.85	958
1746.87	960
1747.89	960
1748.91	962
1749.93	964
1750.95	952
1751.97	954
1752.98	956
1754	960
1755.02	936
1756.04	906
1757.06	980
1758.07	960
1759.09	938
1760.11	948
1761.13	962
1762.14	962
1763.16	952
1764.18	958
1765.19	938
1766.21	942
1767.23	976
1768.24	948
1769.26	920
1770.28	1018
1771.29	914
1772.31	964
1773.32	942
1774.34	916
1775.35	942
1776.37	946
1777.38	964
1778.4	924
1779.41	922
1780.43	940
1781.44	982
1782.45	914
1783.47	952
1784.48	954
1785.49	906
1786.51	944
1787.52	936
1788.53	940
1789.55	932
1790.56	938
1791.57	984
1792.58	892
1793.6	962
1794.61	936
1795.62	930
1796.63	960
1797.64	956
1798.66	978
1799.67	964
1800.68	920
1801.69	902
1802.7	936
1803.71	932
1804.72	950
1805.73	960
1806.74	918
1807.75	910
1808.76	920
1809.77	916
1810.78	900
1811.79	920
1812.8	910
1813.81	906
1814.82	886
1815.83	916
1816.84	916
1817.84	924
1818.85	906
1819.86	930
1820.87	918
1821.88	946
1822.88	922
1823.89	950
1824.9	926
1825.91	902
1826.91	926
1827.92	894
1828.93	870
1829.93	944
1830.94	898
1831.95	880
1832.95	922
1833.96	876
1834.97	934
1835.97	920
1836.98	904
1837.98	900
1838.99	912
1839.99	936
1841	886
1842	888
1843.01	908
1844.01	934
1845.02	890
1846.02	922
1847.02	874
1848.03	874
1849.03	908
1850.03	882
1851.04	932
1852.04	890
1853.04	914
1854.05	900
1855.05	936
1856.05	908
1857.05	878
1858.06	920
1859.06	894
1860.06	872
1861.06	882
1862.06	916
1863.07	916
1864.07	894
1865.07	888
1866.07	920
1867.07	874
1868.07	898
1869.07	894
1870.07	860
1871.07	938
1872.07	878
1873.07	890
1874.07	908
1875.07	862
1876.07	882
1877.07	896
1878.07	850
1879.07	876
1880.07	908
1881.07	878
1882.07	854
1883.06	940
1884.06	886
1885.06	930
1886.06	894
1887.06	864
1888.05	890
1889.05	894
1890.05	882
1891.05	876
1892.04	894
1893.04	846
1894.04	918
1895.03	906
1896.03	856
1897.03	872
1898.02	874
1899.02	876
1900.01	888
1901.01	846
1902	894
1903	882
1903.99	882
1904.99	854
1905.98	894
1906.98	886
1907.97	868
1908.97	866
1909.96	888
1910.96	852
1911.95	878
1912.94	870
1913.94	912
1914.93	884
1915.93	900
1916.92	894
1917.91	894
1918.9	892
1919.9	856
1920.89	848
1921.88	868
1922.87	880
1923.87	878
1924.86	878
1925.85	868
1926.84	870
1927.83	854
1928.82	898
1929.82	868
1930.81	902
1931.8	880
1932.79	888
1933.78	878
1934.77	872
1935.76	890
1936.75	948
1937.74	862
1938.73	894
1939.72	838
1940.71	872
1941.7	868
1942.69	836
1943.68	854
1944.67	888
1945.65	860
1946.64	900
1947.63	880
1948.62	840
1949.61	870
1950.6	858
1951.58	846
1952.57	892
1953.56	858
1954.55	870
1955.53	838
1956.52	882
1957.51	842
1958.5	866
1959.48	822
1960.47	882
1961.45	864
1962.44	858
1963.43	872
1964.41	814
1965.4	842
1966.38	848
1967.37	890
1968.35	878
1969.34	856
1970.32	854
1971.31	854
1972.29	828
1973.28	848
1974.26	864
1975.25	852
1976.23	860
1977.22	874
1978.2	834
1979.18	832
1980.17	820
1981.15	854
1982.13	856
1983.12	814
1984.1	878
1985.08	844
1986.06	828
1987.05	812
1988.03	862
1989.01	854
1989.99	866
1990.97	886
1991.96	842
1992.94	844
1993.92	846
1994.9	834
1995.88	894
1996.86	860
1997.84	850
1998.82	852
1999.8	842
2000.78	842
2001.76	862
2002.74	830
2003.72	830
2004.7	876
2005.68	860
2006.66	850
2007.64	854
2008.62	858
2009.6	844
2010.58	858
2011.56	848
2012.54	858
2013.51	836
2014.49	854
2015.47	842
2016.45	866
2017.43	866
2018.4	828
2019.38	828
2020.36	838
2021.34	844
2022.31	826
2023.29	826
2024.27	870
2025.24	818
2026.22	822
2027.2	830
2028.17	835
2029.15	840
2030.12	804
2031.1	840
2032.07	834
2033.05	808
2034.03	834
2035	854
2035.98	816
2036.95	830
2037.93	888
2038.9	802
2039.87	782
2040.85	858
2041.82	818
2042.8	824
2043.77	816
2044.74	842
2045.72	830
2046.69	848
2047.66	812
2048.64	846
2049.61	810
2050.58	812
2051.55	838
2052.53	838
2053.5	824
2054.47	806
2055.44	838
2056.41	790
2057.39	834
2058.36	838
2059.33	822
2060.3	832
2061.27	850
2062.24	830
2063.21	842
2064.18	846
2065.15	820
2066.12	854
2067.09	826
2068.06	836
2069.03	828
2070	814
2070.97	846
2071.94	818
2072.91	820
2073.88	818
2074.85	822
2075.82	826
2076.79	822
2077.76	824
2078.73	792
2079.69	836
2080.66	798
2081.63	798
2082.6	848
2083.56	782
2084.53	792
2085.5	822
2086.47	850
2087.43	822
2088.4	810
2089.37	816
2090.33	790
2091.3	808
2092.27	796
2093.23	816
2094.2	788
2095.17	768
2096.13	802
2097.1	818
2098.06	804
2099.03	786
2099.99	830
2100.96	800
2101.92	834
2102.89	834
2103.85	812
2104.82	806
2105.78	806
2106.74	832
2107.71	786
2108.67	808
2109.64	828
2110.6	800
2111.56	830
2112.53	782
2113.49	794
2114.45	812
2115.41	812
2116.38	752
2117.34	808
2118.3	804
2119.26	808
2120.23	806
2121.19	776
2122.15	800
2123.11	792
2124.07	784
2125.03	810
2126	792
2126.96	776
2127.92	792
2128.88	792
2129.84	780
2130.8	800
2131.76	798
2132.72	806
2133.68	816
2134.64	786
2135.6	788
2136.56	790
2137.52	776
2138.48	816
2139.44	792
2140.4	786
2141.35	812
2142.31	820
2143.27	780
2144.23	816
2145.19	790
2146.15	810
2147.1	802
2148.06	802
2149.02	780
2149.98	808
2150.94	802
2151.89	816
2152.85	794
2153.81	770
2154.76	798
2155.72	802
2156.68	772
2157.63	776
2158.59	792
2159.55	778
2160.5	814
2161.46	792
2162.41	802
2163.37	776
2164.32	762
2165.28	784
2166.23	766
2167.19	762
2168.14	762
2169.1	768
2170.05	756
2171.01	776
2171.96	752
2172.91	774
2173.87	744
2174.82	786
2175.78	760
2176.73	792
2177.68	766
2178.64	754
2179.59	772
2180.54	764
2181.49	806
2182.45	756
2183.4	770
2184.35	780
2185.3	748
2186.26	768
2187.21	758
2188.16	728
2189.11	764
2190.06	778
2191.01	790
2191.96	772
2192.92	736
2193.87	758
2194.82	756
2195.77	770
2196.72	758
2197.67	750
2198.62	782
2199.57	724
2200.52	806
2201.47	724
2202.42	744
2203.37	756
2204.32	774
2205.27	768
2206.22	768
2207.16	772
2208.11	744
2209.06	786
2210.01	720
2210.96	752
2211.91	742
2212.85	744
2213.8	756
2214.75	742
2215.7	760
2216.64	752
2217.59	738
2218.54	758
2219.49	776
2220.43	736
2221.38	758
2222.33	750
2223.27	767.798
2224.22	747.583
2225.16	747.428
2226.11	746.037
2227.06	748.961
2228	770.757
2228.95	765.607
2229.89	729.814
2230.84	734.501
2231.78	712.305
2232.73	737.887
2233.67	739.368
2234.62	763.763
2235.56	729.587
2236.51	761.371
2237.45	745.936
2238.4	743.766
2239.34	731.81
2240.28	736.922
2241.23	736.49
2242.17	756.721
2243.11	706.179
2244.06	738.874
2245	738.029
2245.94	739.202
2246.89	735.82
2247.83	715.893
2248.77	727.624
2249.71	733.808
2250.66	730.034
2251.6	731.747
2252.54	748.96
2253.48	715.21
2254.42	719.893
2255.37	724.602
2256.31	728.19
2257.25	718.428
2258.19	730.531
2259.13	708.831
2260.07	731.886
2261.01	708.334
2261.95	714.891
2262.89	732.701
2263.83	726.29
2264.77	704.152
2265.71	741.42
2266.65	738.755
2267.59	704.728
2268.53	712.662
2269.47	729.714
2270.41	719.311
2271.35	732.824
2272.29	729.068
2273.23	709.28
2274.17	710.123
2275.1	744.905
2276.04	719.778
2276.98	711.068
2277.92	730.005
2278.86	722.181
2279.8	720.006
2280.73	719.655
2281.67	721.112
2282.61	712.74
2283.55	712.055
2284.48	723.186
2285.42	711.622
2286.36	707.935
2287.29	719.095
2288.23	717.617
2289.17	690.042
2290.1	688.237
2291.04	705.449
2291.98	702.667
2292.91	716.221
2293.85	699.731
2294.78	689.558
2295.72	698.445
2296.65	696.043
2297.59	683.62
2298.52	680.496
2299.46	687.868
2300.39	684.396
2301.33	685.829
2302.26	696.312
2303.2	708.473
2304.13	689.528
2305.06	690.554
2306	680.202
2306.93	676.272
2307.87	707.215
2308.8	705.933
2309.73	677.445
2310.67	686.789
2311.6	687.441
2312.53	697.694
2313.46	704.96
2314.4	695.874
2315.33	665.929
2316.26	659.776
2316.69	674
2317.62	682
2318.56	660
2319.5	660
2320.43	690
2321.37	690
2322.31	670
2323.24	702
2324.18	686
2325.12	676
2326.05	674
2326.99	664
2327.92	680
2328.86	696
2329.79	656
2330.73	634
2331.66	676
2332.6	684
2333.53	648
2334.47	676
2335.4	652
2336.34	642
2337.27	696
2338.2	644
2339.14	636
2340.07	632
2341.01	656
2341.94	654
2342.87	672
2343.81	674
2344.74	664
2345.67	650
2346.6	662
2347.54	660
2348.47	654
2349.4	644
2350.33	676
2351.27	630
2352.2	678
2353.13	664
2354.06	652
2354.99	626
2355.93	632
2356.86	640
2357.79	656
2358.72	614
2359.65	638
2360.58	650
2361.51	648
2362.44	640
2363.37	636
2364.3	634
2365.23	658
2366.16	626
2367.09	618
2368.02	652
2368.95	654
2369.88	650
2370.81	660
2371.74	628
2372.67	630
2373.6	640
2374.52	638
2375.45	634
2376.38	650
2377.31	632
2378.24	644
2379.17	602
2380.09	638
2381.02	622
2381.95	628
2382.88	628
2383.8	580
2384.73	596
2385.66	632
2386.58	622
2387.51	620
2388.44	614
2389.36	614
2390.29	620
2391.22	598
2392.14	634
2393.07	630
2393.99	600
2394.92	602
2395.85	604
2396.77	642
2397.7	614
2398.62	598
2399.55	612
2400.47	622
2401.4	600
2402.32	606
2403.25	616
2404.17	608
2405.09	592
2406.02	586
2406.94	602
2407.86	580
2408.79	582
2409.71	600
2410.63	590
2411.56	602
2412.48	596
2413.4	584
2414.33	590
2415.25	600
2416.17	612
2417.09	566
2418.02	608
2418.94	572
2419.86	558
2420.78	572
2421.7	602
2422.63	594
2423.55	598
2424.47	572
2425.39	572
2426.31	592
2427.23	566
2428.15	560
2429.07	612
2429.99	588
2430.91	576
2431.83	558
2432.75	580
2433.67	546
2434.59	586
2435.51	582
2436.43	558
2437.35	542
2438.27	550
2439.19	556
2440.11	560
2441.03	590
2441.95	572
2442.86	558
2443.78	560
2444.7	532
2445.62	554
2446.54	550
2447.46	530
2448.37	530
2449.29	522
2450.21	546
2451.13	552
2452.04	546
2452.96	562
2453.88	526
2454.79	554
2455.71	542
2456.63	536
2457.54	550
2458.46	504
2459.38	522
2460.29	558
2461.21	512
2462.12	518
2463.04	550
2463.95	528
2464.87	546
2465.78	506
2466.7	528
2467.61	520
2468.53	508
2469.44	530
2470.36	508
2471.27	518
2472.19	526
2473.1	494
2474.01	538
2474.93	526
2475.84	528
2476.76	520
2477.67	528
2478.58	512
2479.5	528
2480.41	494
2481.32	518
2482.23	538
2483.15	502
2484.06	516
2484.97	504
2485.88	522
2486.8	512
2487.71	502
2488.62	510
2489.53	498
2490.44	498
2491.35	492
2492.26	512
2493.18	506
2494.09	492
2495	494
2495.91	498
2496.82	492
2497.73	510
2498.64	496
2499.55	486
2500.46	496
2501.37	478
2502.28	482
2503.19	456
2504.1	478
2505.01	482
2505.92	460
2506.83	498
2507.74	474
2508.65	462
2509.55	474
2510.46	462
2511.37	488
2512.28	464
2513.19	492
2514.09	444
2515	486
2515.91	480
2516.82	440
2517.73	460
2518.63	460
2519.54	480
2520.45	460
2521.35	480
2522.26	502
2523.17	456
2524.07	438
2524.98	444
2525.89	448
2526.79	454
2527.7	450
2528.6	452
2529.51	460
2530.42	470
2531.32	432
2532.23	408
2533.13	434
2534.04	466
2534.94	438
2535.85	430
2536.75	450
2537.66	438
2538.56	434
2539.47	452
2540.37	466
2541.27	456
2542.18	454
2543.08	434
2543.98	426
2544.89	450
2545.79	440
2546.7	458
2547.6	446
2548.5	428
2549.4	428
2550.31	448
2551.21	452
2552.11	436
2553.01	400
2553.92	450
2554.82	402
2555.72	448
2556.62	434
2557.52	400
2558.42	404
2559.33	404
2560.23	418
2561.13	396
2562.03	406
2562.93	426
2563.83	400
2564.73	412
2565.63	428
2566.53	416
2567.43	404
2568.33	412
2569.23	436
2570.13	406
2571.03	414
2571.93	408
2572.83	376
2573.73	442
2574.63	402
2575.53	410
2576.43	404
2577.33	404
2578.22	396
2579.12	408
2580.02	426
2580.92	398
2581.82	410
2582.72	428
2583.61	394
2584.51	390
2585.41	400
2586.31	400
2587.2	384
2588.1	374
2589	402
2589.89	374
2590.79	420
2591.69	374
2592.58	394
2593.48	414
2594.38	398
2595.27	394
2596.17	400
2597.06	392
2597.96	372
2598.86	398
2599.75	376
2600.65	372
2601.54	390
2602.44	376
2603.33	398
2604.23	360
2605.12	380
2606.02	364
2606.91	362
2607.81	386
2608.7	370
2609.59	370
2610.49	372
2611.38	368
2612.27	390
2613.17	362
2614.06	368
2614.95	356
2615.85	378
2616.74	384
2617.63	368
2618.53	384
2619.42	358
2620.31	344
2621.2	378
2622.1	348
2622.99	358
2623.88	352
2624.77	348
2625.66	374
2626.55	346
2627.45	338
2628.34	364
2629.23	330
2630.12	386
2631.01	360
2631.9	364
2632.79	368
2633.68	370
2634.57	348
2635.46	342
2636.35	330
2637.24	332
2638.13	346
2639.02	348
2639.91	354
2640.8	350
2641.69	360
2642.58	326
2643.47	330
2644.36	350
2645.25	346
2646.14	346
2647.02	340
2647.91	336
2648.8	320
2649.69	344
2650.58	338
2651.46	342
2652.35	312
2653.24	344
2654.13	314
2655.01	326
2655.9	314
2656.79	326
2657.68	322
2658.56	340
2659.45	304
2660.34	332
2661.22	326
2662.11	324
2662.99	298
2663.88	330
2664.77	316
2665.65	306
2666.54	334
2667.42	334
2668.31	314
2669.2	312
2670.08	314
2670.96	318
2671.85	308
2672.73	322
2673.62	316
2674.5	320
2675.39	326
2676.27	330
2677.16	308
2678.04	298
2678.93	330
2679.81	314
2680.69	336
2681.58	314
2682.46	300
2683.34	320
2684.23	302
2685.11	306
2685.99	312
2686.87	312
2687.76	284
2688.64	306
2689.52	312
2690.4	292
2691.28	278
2692.17	306
2693.05	308
2693.93	296
2694.81	270
2695.69	304
2696.57	280
2697.46	276
2698.34	290
2699.22	294
2700.1	294
2700.98	302
2701.86	294
2702.74	288
2703.62	312
2704.5	308
2705.38	276
2706.26	276
2707.14	280
2708.02	302
2708.9	308
2709.78	280
2710.66	294
2711.54	294
2712.42	298
2713.3	284
2714.17	256
2715.05	298
2715.93	288
2716.81	278
2717.69	280
2718.57	292
2719.44	298
2720.32	278
2721.2	278
2722.08	264
2722.95	260
2723.83	262
2724.71	266
2725.59	258
2726.46	268
2727.34	268
2728.22	250
2729.09	270
2729.97	278
2730.85	268
2731.72	250
2732.6	290
2733.47	260
2734.35	270
2735.23	252
2736.1	270
2736.98	266
2737.85	270
2738.73	266
2739.6	256
2740.48	246
2741.35	266
2742.23	260
2743.1	250
2743.98	272
2744.85	270
2745.72	264
2746.6	258
2747.47	264
2748.35	236
2749.22	246
2750.09	248
2750.97	238
2751.84	236
2752.71	252
2753.59	244
2754.46	218
2755.33	252
2756.2	270
2757.08	262
2757.95	258
2758.82	232
2759.69	246
2760.57	240
2761.44	224
2762.31	220
2763.18	258
2764.05	248
2764.92	228
2765.79	238
2766.67	226
2767.54	264
2768.41	240
2769.28	226
2770.15	238
2771.02	224
2771.89	236
2772.76	220
2773.63	222
2774.5	234
2775.37	218
2776.24	232
2777.11	218
2777.98	236
2778.85	232
2779.72	224
2780.59	232
2781.46	232
2782.32	224
2783.19	244
2784.06	242
2784.93	218
2785.8	222
2786.67	212
2787.53	240
2788.4	232
2789.27	228
2790.14	210
2791.01	220
2791.87	222
2792.74	222
2793.61	242
2794.47	238
2795.34	222
2796.21	212
2797.07	208
2797.94	224
2798.81	226
2799.67	214
2800.54	206
2801.41	214
2802.27	194
2803.14	220
2804	208
2804.87	206
2805.74	200
2806.6	230
2807.47	214
2808.33	208
2809.2	220
2810.06	198
2810.93	196
2811.79	192
2812.65	196
2813.52	232
2814.38	206
2815.25	216
2816.11	210
2816.98	208
2817.84	202
2818.7	198
2819.56	202
2820.43	204
2821.29	198
2822.16	194
2823.02	222
2823.88	200
2824.74	208
2825.61	196
2826.47	206
2827.33	204
2828.19	196
2829.05	210
2829.92	208
2830.78	202
2831.64	210
2832.5	204
2833.36	194
2834.23	200
2835.09	200
2835.95	208
2836.81	192
2837.67	192
2838.53	190
2839.39	176
2840.25	184
2841.11	190
2841.97	198
2842.83	180
2843.69	184
2844.55	196
2845.41	176
2846.27	192
2847.13	190
2847.99	186
2848.85	198
2849.71	180
2850.57	194
2851.43	172
2852.28	184
2853.14	188
2854	184
2854.86	176
2855.72	178
2856.58	176
2857.43	176
2858.29	176
2859.15	196
2860.01	160
2860.86	170
2861.72	182
2862.58	174
2863.44	162
2864.29	190
2865.15	180
2866.01	178
2866.86	170
2867.72	172
2868.58	168
2869.43	164
2870.29	180
2871.14	164
2872	178
2872.86	168
2873.71	163
2874.57	158
2875.42	164
2876.28	178
2877.13	156
2877.99	156
2878.84	170
2879.7	156
2880.55	178
2881.41	176
2882.26	170
2883.11	172
2883.97	162
2884.82	160
2885.68	166
2886.53	166
2887.39	182
2888.24	146
2889.09	166
2889.94	164
2890.8	162
2891.65	170
2892.5	158
2893.36	156
2894.21	156
2895.06	154
2895.91	148
2896.77	158
2897.62	168
2898.47	158
2899.32	138
2900.17	158
2901.03	160
2901.88	164
2902.73	154
2903.58	164
2904.43	158
2905.28	160
2906.13	156
2906.98	148
2907.84	156
2908.69	154
2909.54	142
2910.39	162
2911.24	142
2912.09	136
2912.94	140
2913.79	158
2914.64	144
2915.49	152
2916.34	154
2917.19	140
2918.03	138
2918.88	140
2919.73	146
2920.58	150
2921.43	158
2922.28	140
2923.13	154
2923.98	138
2924.82	142
2925.67	130
2926.52	156
2927.37	144
2928.22	144
2929.06	136
2929.91	140
2930.76	138
2931.61	148
2932.45	118
2933.3	150
2934.15	140
2934.99	158
2935.84	146
2936.69	146
2937.53	142
2938.38	154
2939.23	146
2940.07	138
2940.92	152
2941.76	136
2942.61	144
2943.46	146
2944.3	132
2945.15	142
2945.99	148
2946.84	136
2947.68	154
2948.53	134
2949.37	134
2950.22	144
2951.06	136
2951.9	148
2952.75	120
2953.59	130
2954.44	144
2955.28	138
2956.12	132
2956.97	128
2957.81	132
2958.65	140
2959.5	128
2960.34	138
2961.18	134
2962.03	142
2962.87	130
2963.71	126
2964.56	130
2965.4	134
2966.24	140
2967.08	126
2967.92	136
2968.77	122
2969.61	128
2970.45	134
2971.29	134
2972.13	130
2972.97	126
2973.82	118
2974.66	134
2975.5	132
2976.34	116
2977.18	126
2978.02	130
2978.86	124
2979.7	120
2980.54	138
2981.38	126
2982.22	122
2983.06	134
2983.9	138
2984.74	134
2985.58	130
2986.42	118
2987.26	122
2988.1	136
2988.94	124
2989.78	128
2990.61	130
2991.45	110
2992.29	118
2993.13	118
2993.97	120
2994.81	110
2995.64	126
2996.48	118
2997.32	118
2998.16	116
2999	120
2999.83	118
