#Acq. time (s)=	10
#Accumulations=	1
#Range (cm-¹)=	200...3000
#Windows=	3
#Autofocus=	Off
#AutoExposure=	Off
#Spike filter=	Off
#Delay time (s)=	0
#Binning=	1
#Readout mode=	Signal
#DeNoise=	Off
#ICS correction=	Off
#Dark correction=	Off
#Inst. Process=	Off
#Instrument=	LabRAM HR Evol
#Detector=	Syncerity OE
#Objective=	x100_VIS
#Grating=	600 (500nm)
#ND Filter=	0.1%
#Laser=	633nm_Edge
#Hole=	100.021
#Range=	Visible
#Project=	Omar
#Sample=	03-07-23
#Site=	papal
#Title=	leaf_100x
#Remark=	
#Date=	03.07.2023 17:23
#Acquired=	03.07.2023 17:23:43
201.713	114
202.98	108
204.247	112
205.513	118
206.778	126
208.045	124
209.311	106
210.576	122
211.84	110
213.106	128
214.371	118
215.636	112
216.899	124
218.164	128
219.428	114
220.692	120
221.955	130
223.219	130
224.482	132
225.744	124
227.007	140
228.27	148
229.531	130
230.794	146
232.055	132
233.317	130
234.579	150
235.839	124
237.1	138
238.362	140
239.621	128
240.882	146
242.141	140
243.402	148
244.661	140
245.921	148
247.179	152
248.439	146
249.698	152
250.956	154
252.215	150
253.473	132
254.731	144
255.988	152
257.246	146
258.503	166
259.761	156
261.017	152
262.273	130
263.53	154
264.786	150
266.042	152
267.298	160
268.554	154
269.809	164
271.063	160
272.319	162
273.573	164
274.828	162
276.082	180
277.336	172
278.591	156
279.844	156
281.097	176
282.351	164
283.603	176
284.855	164
286.109	154
287.361	182
288.613	170
289.866	186
291.117	184
292.368	164
293.62	180
294.871	178
296.121	182
297.372	188
298.623	194
299.873	186
301.123	188
302.372	182
303.622	188
304.872	200
306.121	200
307.37	196
308.618	190
309.866	188
311.116	186
312.364	202
313.611	206
314.859	208
316.106	204
317.353	192
318.6	202
319.848	216
321.095	206
322.341	234
323.587	206
324.833	208
326.079	214
327.324	210
328.569	224
329.814	214
331.059	220
332.304	226
333.548	208
334.792	214
336.037	226
337.28	230
338.524	212
339.767	220
341.011	228
342.254	230
343.497	228
344.739	236
345.982	232
347.224	228
348.466	220
349.708	240
350.95	212
352.191	238
353.432	246
354.673	254
355.914	252
357.155	260
358.394	252
359.634	266
360.874	274
362.114	240
363.354	276
364.593	260
365.832	284
367.07	246
368.309	262
369.548	258
370.786	278
372.024	266
373.261	258
374.499	270
375.736	256
376.974	278
378.211	280
379.447	280
380.684	276
381.92	258
383.157	264
384.392	266
385.628	286
386.864	284
388.098	306
389.333	264
390.569	288
391.802	290
393.037	278
394.272	288
395.505	302
396.739	302
397.973	290
399.206	292
400.44	304
401.673	276
402.905	316
404.138	342
405.37	316
406.602	286
407.835	314
409.066	310
410.298	322
411.528	312
412.76	306
413.99	302
415.221	322
416.451	330
417.682	356
418.911	314
420.142	346
421.371	338
422.601	330
423.83	332
425.059	326
426.288	358
427.517	330
428.745	340
429.974	340
431.201	378
432.43	360
433.657	362
434.883	372
436.111	340
437.338	364
438.565	362
439.791	354
441.017	378
442.244	358
443.469	378
444.695	370
445.921	362
447.146	376
448.37	360
449.596	400
450.821	382
452.045	372
453.27	380
454.493	362
455.717	368
456.94	386
458.165	396
459.387	388
460.61	394
461.833	376
463.056	402
464.278	390
465.5	372
466.722	424
467.945	404
469.166	392
470.387	424
471.608	410
472.829	414
474.049	406
475.271	444
476.491	420
477.711	404
478.931	412
480.15	432
481.37	414
482.589	436
483.808	424
485.027	426
486.247	426
487.465	456
488.683	458
489.901	426
491.119	456
492.337	454
493.554	442
494.771	456
495.988	462
497.205	466
498.422	458
499.638	434
500.854	472
502.07	494
503.286	476
504.502	486
505.717	486
506.933	482
508.148	486
509.363	484
510.577	472
511.792	514
513.005	482
514.219	496
515.433	468
516.647	490
517.86	500
519.073	464
520.287	502
521.5	500
522.711	522
523.924	484
525.136	500
526.348	530
527.56	522
528.772	514
529.982	520
531.194	506
532.405	506
533.616	526
534.825	520
536.036	546
537.246	528
538.457	542
539.665	546
540.875	564
542.085	558
543.294	524
544.502	530
545.712	526
546.92	572
548.128	516
549.336	576
550.545	578
551.751	562
552.959	554
554.167	566
555.373	570
556.581	570
557.788	562
558.994	522
560.2	582
561.406	614
562.612	582
563.817	588
565.023	592
566.229	562
567.433	616
568.639	598
569.843	588
571.048	634
572.251	630
573.456	612
574.659	666
575.863	600
577.066	618
578.27	610
579.472	650
580.676	650
581.878	652
583.081	616
584.283	622
585.484	670
586.687	692
587.888	694
589.09	664
590.291	666
591.493	682
592.693	708
593.893	672
595.094	670
596.294	688
597.494	666
598.694	700
599.894	708
601.093	704
602.293	708
603.491	702
604.69	720
605.889	726
607.087	712
608.285	720
609.483	734
610.682	722
611.879	744
613.076	730
614.273	750
615.471	774
616.667	786
617.864	778
619.06	756
620.256	782
621.453	796
622.648	794
623.844	778
625.039	792
626.234	802
627.429	836
628.625	810
629.819	808
631.013	798
632.208	824
633.401	828
634.595	818
635.789	818
636.982	824
638.175	816
639.369	854
640.562	858
641.755	870
642.947	852
644.139	882
645.331	864
646.523	908
647.715	886
648.906	874
650.097	848
651.288	898
652.479	896
653.67	880
654.86	904
656.051	936
657.241	876
658.429	908
659.619	934
660.808	944
661.998	912
663.187	916
664.376	962
665.565	944
666.753	966
667.942	952
669.13	972
670.317	990
671.505	976
672.692	1006
673.88	998
675.067	1002
676.254	968
677.44	1006
678.627	992
679.813	1022
681	1060
682.184	1014
683.37	1050
684.556	1020
685.742	1038
686.926	1050
688.111	1032
689.296	1076
690.481	1064
691.664	1062
692.849	1072
694.033	1072
695.216	1090
696.4	1110
697.584	1066
698.766	1078
699.949	1110
701.133	1116
702.314	1152
703.497	1134
704.678	1096
705.861	1174
707.043	1138
708.224	1154
709.406	1156
710.586	1176
711.768	1200
712.949	1178
714.129	1204
715.31	1178
716.489	1242
717.67	1200
718.849	1208
720.029	1254
721.208	1250
722.388	1264
723.566	1268
724.746	1294
725.924	1286
727.103	1286
728.28	1280
729.458	1306
730.636	1310
731.814	1300
732.992	1348
734.168	1338
735.345	1322
736.523	1342
737.699	1338
738.876	1330
740.052	1382
741.227	1396
742.404	1398
743.579	1396
744.754	1404
745.931	1406
747.105	1424
748.28	1414
749.455	1446
750.629	1432
751.803	1498
752.977	1460
754.152	1460
755.325	1450
756.499	1424
757.672	1462
758.846	1512
760.018	1478
761.191	1524
762.363	1528
763.535	1568
764.708	1534
765.88	1536
767.052	1526
768.223	1564
769.394	1584
770.565	1576
771.737	1620
772.908	1610
774.078	1616
775.249	1646
776.419	1612
777.589	1634
778.758	1642
779.928	1654
781.097	1622
782.266	1662
783.435	1696
784.604	1754
785.773	1738
786.941	1696
788.11	1668
789.278	1768
790.446	1768
791.613	1708
792.781	1776
793.948	1764
795.115	1798
796.282	1810
797.449	1768
798.616	1822
799.782	1828
800.948	1810
802.115	1830
803.28	1820
804.446	1944
805.612	1884
806.777	1928
807.941	1886
809.106	1924
810.271	1982
811.435	1978
812.6	1920
813.764	2026
814.927	1962
816.091	1972
817.254	2066
818.418	1974
819.581	2078
820.743	2052
821.906	2066
823.069	2076
824.232	2068
825.393	2076
826.555	2138
827.717	2118
828.879	2164
830.039	2104
831.201	2160
832.362	2188
833.522	2226
834.683	2202
835.844	2220
837.003	2296
838.164	2224
839.324	2268
840.483	2288
841.643	2296
842.801	2340
843.961	2344
845.12	2310
846.278	2326
847.437	2328
848.594	2374
849.753	2400
850.91	2436
852.069	2442
853.227	2370
854.383	2442
855.541	2434
856.697	2528
857.855	2488
859.011	2484
860.168	2552
861.323	2550
862.48	2500
863.635	2618
864.79	2554
865.946	2568
867.101	2642
868.257	2602
869.411	2694
870.567	2620
871.721	2650
872.874	2748
874.029	2698
875.183	2694
876.336	2770
877.49	2696
878.643	2758
879.796	2728
880.95	2790
882.102	2868
883.254	2786
884.407	2736
885.559	2794
886.711	2826
887.862	2880
889.015	2868
890.166	2888
891.317	2880
892.467	2938
893.619	2968
894.77	2950
895.92	3000
897.07	2966
898.221	2948
899.371	2952
900.52	3026
901.669	3036
902.819	3030
903.968	3044
905.116	3048
906.266	3022
907.415	3122
908.563	3100
909.711	3130
910.859	3110
912.007	3194
913.154	3240
914.301	3232
915.449	3194
916.596	3278
917.742	3250
918.889	3298
920.036	3294
921.183	3270
922.329	3326
923.475	3322
924.621	3314
925.765	3382
926.911	3372
928.056	3432
929.201	3384
930.346	3452
931.49	3478
932.635	3500
933.779	3492
934.924	3548
936.068	3492
937.211	3622
938.355	3606
939.498	3618
940.64	3618
941.784	3654
942.926	3714
944.069	3706
945.212	3664
946.354	3732
947.495	3818
948.637	3754
949.779	3742
950.921	3768
952.062	3788
953.202	3846
954.344	3880
955.484	3894
956.625	4016
957.765	3952
958.905	3984
960.045	4018
961.184	4056
962.324	4016
963.464	4022
964.604	4030
965.742	4104
966.881	4152
968.02	4116
969.158	4080
970.296	4192
971.434	4220
972.572	4188
973.71	4208
974.847	4334
975.985	4274
977.121	4306
978.259	4278
979.396	4362
980.532	4368
981.669	4384
982.804	4482
983.941	4402
985.076	4382
986.212	4474
987.347	4524
988.483	4490
989.617	4482
990.753	4606
991.887	4506
993.022	4586
994.156	4676
995.29	4640
996.424	4646
997.558	4686
998.692	4698
999.825	4664
1000.96	4718
1002.09	4670
1003.22	4828
1004.36	4740
1005.49	4858
1006.62	4880
1007.75	4946
1008.89	4836
1010.02	4950
1011.15	5026
1012.28	4976
1013.41	4996
1014.54	5006
1015.67	5092
1016.8	4984
1017.93	5166
1019.07	5144
1020.19	5066
1021.32	5138
1022.45	5252
1023.58	5216
1024.71	5234
1025.84	5346
1026.97	5298
1028.1	5294
1029.23	5374
1030.36	5506
1031.49	5442
1032.61	5488
1033.74	5426
1034.87	5536
1036	5490
1037.12	5568
1038.25	5636
1039.38	5634
1040.5	5610
1041.63	5738
1042.76	5712
1043.88	5826
1045.01	5676
1046.14	5908
1047.26	5916
1048.39	5866
1049.51	5914
1050.64	5920
1051.76	5936
1052.89	6064
1054.01	6048
1055.14	5968
1056.26	6040
1057.38	6030
1058.51	6148
1059.63	6178
1060.75	6192
1061.88	6219
1063	6246
1064.12	6252
1065.25	6290
1066.37	6268
1067.49	6360
1068.61	6280
1069.73	6344
1070.86	6402
1071.98	6382
1073.1	6498
1074.22	6472
1075.34	6586
1076.46	6518
1077.58	6434
1078.7	6566
1079.82	6598
1080.94	6548
1082.06	6622
1083.18	6654
1084.3	6570
1085.42	6736
1086.54	6596
1087.66	6800
1088.78	6764
1089.9	6744
1091.02	6776
1092.14	6800
1093.25	6766
1094.37	6786
1095.49	6878
1096.61	6850
1097.72	6942
1098.84	6950
1099.96	7040
1101.08	6960
1102.19	6998
1103.31	6944
1104.43	6940
1105.54	7044
1106.66	7018
1107.77	7124
1108.89	7070
1110	7072
1111.12	7228
1112.23	7170
1113.35	7228
1114.46	7268
1115.58	7328
1116.69	7360
1117.81	7400
1118.92	7412
1120.03	7338
1121.15	7274
1122.26	7314
1123.37	7424
1124.49	7350
1125.6	7430
1126.71	7522
1127.83	7394
1128.94	7562
1130.05	7552
1131.16	7702
1132.27	7710
1133.39	7562
1134.5	7700
1135.61	7750
1136.72	7782
1137.83	7650
1138.94	7756
1140.05	7642
1141.16	7738
1142.27	7798
1143.38	7762
1144.49	7822
1145.6	7900
1146.71	7842
1147.82	7926
1148.93	7826
1150.04	7992
1151.15	8144
1152.26	8026
1153.36	8092
1154.47	8030
1155.58	8110
1156.69	8070
1157.8	8020
1158.9	8134
1160.01	8064
1161.12	8206
1162.22	8198
1163.33	8140
1164.44	8186
1165.54	8130
1166.65	8232
1167.76	8254
1168.86	8272
1169.97	8264
1171.07	8232
1172.18	8260
1173.28	8288
1174.39	8306
1175.49	8224
1176.6	8210
1177.7	8286
1178.81	8396
1179.91	8404
1181.02	8346
1182.12	8308
1183.22	8338
1184.33	8362
1185.43	8488
1186.53	8286
1187.63	8378
1188.74	8374
1189.84	8378
1190.94	8414
1192.04	8406
1193.15	8264
1194.25	8386
1195.35	8304
1196.45	8368
1197.55	8320
1198.65	8278
1199.75	8356
1200.85	8274
1201.95	8306
1203.05	8304
1204.16	8252
1205.25	8168
1206.35	8184
1207.45	8282
1208.55	8164
1209.65	8364
1210.75	8146
1211.85	8220
1212.95	8180
1214.05	8172
1215.15	8212
1216.24	8254
1217.34	8170
1218.44	8126
1219.54	8116
1220.64	8096
1221.73	8174
1222.83	8186
1223.93	8106
1225.02	8096
1226.12	8220
1227.22	8074
1228.31	8112
1229.41	8050
1230.5	8052
1231.6	8028
1232.7	8110
1233.79	7938
1234.89	7956
1235.98	7994
1237.08	8014
1238.17	8026
1239.26	7868
1240.36	7928
1241.45	7826
1242.55	7914
1243.64	7870
1244.73	7892
1245.83	7948
1246.92	7912
1248.01	7894
1249.11	7878
1250.2	7822
1251.29	7856
1252.38	7806
1253.48	7734
1254.57	7822
1255.66	7678
1256.75	7810
1257.84	7824
1258.93	7756
1260.03	7734
1261.12	7720
1262.21	7644
1263.3	7690
1264.39	7654
1265.48	7580
1266.57	7626
1267.66	7572
1268.75	7542
1269.84	7606
1270.93	7602
1272.02	7516
1273.11	7472
1274.19	7470
1275.28	7390
1276.37	7448
1277.46	7362
1278.55	7338
1279.64	7394
1280.72	7394
1281.81	7354
1282.9	7290
1283.98	7253.6
1285.07	7193.44
1286.16	7244.45
1287.25	7302.94
1288.33	7112.35
1289.42	7134.89
1290.5	7175.23
1291.59	7043.83
1292.68	7032.62
1293.76	7035.19
1294.85	6854.27
1295.93	7023.69
1297.02	6952.22
1298.1	6954.67
1299.19	6894.22
1300.27	6794.22
1301.36	6830.5
1302.44	6803.3
1303.53	6820.45
1304.61	6688.55
1305.69	6660.55
1306.78	6636.34
1307.86	6510.51
1308.94	6601.38
1310.03	6549.15
1311.11	6445.1
1312.19	6460.92
1313.27	6422.69
1314.36	6352.6
1315.44	6406.01
1316.52	6378.19
1317.6	6375.53
1318.68	6284.98
1319.77	6224.68
1320.85	6170.12
1321.93	6183.51
1323.01	6125.43
1324.09	6165.39
1325.17	6084.69
1326.25	6064.2
1327.33	5961.07
1328.41	5996.98
1329.49	5876.59
1330.57	5858.23
1331.65	5944.89
1332.73	5851.52
1333.81	5850.1
1334.89	5734.96
1335.97	5806.53
1337.04	5679.49
1338.12	5713.05
1339.2	5689.21
1340.28	5627.26
1341.36	5545.3
1342.44	5625.18
1343.51	5570.99
1344.59	5518.83
1345.67	5530.95
1346.75	5379.96
1347.82	5474.55
1348.9	5327.11
1349.98	5314.78
1351.05	5388.19
1352.13	5371.24
1353.2	5283.4
1354.28	5255.02
1355.36	5269.01
1356.43	5169.12
1357.51	5201.37
1358.58	5164.66
1359.66	5172.71
1360.73	5039.9
1361.81	5095.83
1362.88	5035.34
1363.96	4972.42
1365.03	4928.05
1366.1	4962.39
1367.18	4958.73
1368.25	4942.01
1369.33	4880.13
1370.4	4854.93
1371.47	4799.42
1372.54	4880.83
1373.62	4742.94
1374.69	4713.24
1375.76	4766.57
1376.83	4723.47
1377.91	4741.57
1378.98	4692.57
1380.05	4601.7
1381.12	4608.61
1382.19	4673.38
1383.26	4549
1384.34	4602.96
1385.41	4516.67
1386.48	4554.02
1387.55	4435.05
1388.62	4428.8
1389.69	4471.15
1390.76	4406.32
1391.83	4396.6
1392.9	4338.65
1393.02	4328
1394.1	4384
1395.17	4366
1396.25	4304
1397.32	4250
1398.4	4248
1399.47	4234
1400.55	4190
1401.62	4206
1402.69	4344
1403.77	4164
1404.84	4238
1405.91	4142
1406.99	4152
1408.06	4130
1409.13	4074
1410.2	4082
1411.27	4146
1412.35	4042
1413.42	4160
1414.49	4054
1415.56	4090
1416.63	3982
1417.7	4028
1418.78	4020
1419.85	3966
1420.92	3940
1421.99	3888
1423.06	3960
1424.13	3946
1425.2	3986
1426.27	3884
1427.34	3986
1428.41	3888
1429.48	3832
1430.55	3836
1431.61	3826
1432.68	3838
1433.75	3850
1434.82	3842
1435.89	3830
1436.96	3828
1438.02	3740
1439.09	3768
1440.16	3734
1441.23	3786
1442.3	3738
1443.36	3690
1444.43	3694
1445.5	3696
1446.56	3680
1447.63	3674
1448.7	3674
1449.76	3654
1450.83	3652
1451.89	3598
1452.96	3664
1454.02	3586
1455.09	3628
1456.15	3656
1457.22	3598
1458.28	3538
1459.35	3620
1460.41	3524
1461.48	3572
1462.54	3568
1463.61	3590
1464.67	3552
1465.73	3450
1466.8	3448
1467.86	3546
1468.92	3510
1469.98	3516
1471.05	3494
1472.11	3494
1473.17	3540
1474.24	3428
1475.3	3438
1476.36	3450
1477.42	3524
1478.48	3438
1479.54	3426
1480.6	3362
1481.67	3376
1482.73	3360
1483.79	3380
1484.85	3370
1485.91	3362
1486.97	3306
1488.03	3334
1489.09	3304
1490.15	3382
1491.21	3278
1492.27	3280
1493.33	3320
1494.38	3264
1495.44	3256
1496.5	3240
1497.56	3200
1498.62	3346
1499.68	3202
1500.74	3206
1501.79	3196
1502.85	3184
1503.91	3238
1504.97	3196
1506.02	3198
1507.08	3080
1508.14	3208
1509.2	3182
1510.25	3210
1511.31	3116
1512.36	3126
1513.42	3098
1514.48	3136
1515.53	3052
1516.59	3088
1517.64	3068
1518.7	3100
1519.75	3030
1520.81	3074
1521.86	3046
1522.92	3022
1523.97	3064
1525.02	2960
1526.08	3048
1527.13	3022
1528.19	3018
1529.24	3002
1530.29	3004
1531.35	2968
1532.4	2904
1533.45	2978
1534.51	2974
1535.56	2970
1536.61	2924
1537.66	2968
1538.72	2924
1539.77	2926
1540.82	2876
1541.87	2912
1542.92	2894
1543.97	2886
1545.02	2876
1546.08	2846
1547.13	2936
1548.18	2824
1549.23	2888
1550.28	2832
1551.33	2856
1552.38	2762
1553.43	2812
1554.48	2830
1555.53	2760
1556.57	2814
1557.62	2774
1558.67	2752
1559.72	2762
1560.77	2722
1561.82	2736
1562.87	2752
1563.92	2750
1564.96	2776
1566.01	2750
1567.06	2720
1568.11	2694
1569.15	2772
1570.2	2692
1571.25	2732
1572.29	2758
1573.34	2746
1574.39	2678
1575.43	2656
1576.48	2726
1577.53	2696
1578.57	2674
1579.62	2668
1580.66	2660
1581.71	2658
1582.75	2676
1583.8	2664
1584.84	2696
1585.89	2644
1586.93	2644
1587.98	2658
1589.02	2572
1590.06	2574
1591.11	2632
1592.15	2654
1593.2	2572
1594.24	2586
1595.28	2628
1596.33	2544
1597.37	2624
1598.41	2538
1599.45	2624
1600.5	2590
1601.54	2600
1602.58	2546
1603.62	2542
1604.66	2598
1605.7	2568
1606.75	2542
1607.79	2566
1608.83	2598
1609.87	2550
1610.91	2522
1611.95	2490
1612.99	2570
1614.03	2530
1615.07	2538
1616.11	2580
1617.15	2572
1618.19	2516
1619.23	2502
1620.27	2482
1621.31	2504
1622.35	2528
1623.39	2506
1624.43	2606
1625.46	2520
1626.5	2486
1627.54	2560
1628.58	2532
1629.62	2540
1630.65	2528
1631.69	2462
1632.73	2480
1633.77	2450
1634.8	2450
1635.84	2438
1636.88	2448
1637.91	2442
1638.95	2428
1639.99	2450
1641.02	2480
1642.06	2444
1643.09	2462
1644.13	2466
1645.16	2426
1646.2	2424
1647.23	2390
1648.27	2472
1649.3	2392
1650.34	2404
1651.37	2424
1652.41	2432
1653.44	2464
1654.47	2412
1655.51	2390
1656.54	2370
1657.57	2418
1658.61	2350
1659.64	2410
1660.67	2378
1661.71	2378
1662.74	2336
1663.77	2326
1664.81	2378
1665.84	2368
1666.87	2416
1667.9	2364
1668.93	2410
1669.96	2348
1671	2288
1672.03	2326
1673.06	2372
1674.09	2358
1675.12	2362
1676.15	2344
1677.18	2348
1678.21	2292
1679.24	2262
1680.27	2314
1681.3	2308
1682.33	2354
1683.36	2264
1684.39	2298
1685.42	2344
1686.45	2330
1687.47	2318
1688.5	2270
1689.53	2272
1690.56	2246
1691.59	2276
1692.62	2302
1693.64	2230
1694.67	2270
1695.7	2288
1696.73	2310
1697.75	2246
1698.78	2252
1699.81	2282
1700.83	2264
1701.86	2270
1702.89	2226
1703.91	2250
1704.94	2222
1705.97	2234
1706.99	2216
1708.02	2212
1709.04	2280
1710.07	2200
1711.09	2254
1712.12	2266
1713.14	2266
1714.17	2212
1715.19	2214
1716.22	2202
1717.24	2240
1718.26	2166
1719.29	2186
1720.31	2270
1721.33	2182
1722.36	2204
1723.38	2184
1724.4	2194
1725.43	2198
1726.45	2206
1727.47	2190
1728.49	2144
1729.52	2174
1730.54	2148
1731.56	2224
1732.58	2212
1733.6	2226
1734.63	2194
1735.65	2152
1736.67	2174
1737.69	2146
1738.71	2172
1739.73	2086
1740.75	2168
1741.77	2174
1742.79	2146
1743.81	2116
1744.83	2160
1745.85	2188
1746.87	2156
1747.89	2166
1748.91	2202
1749.93	2154
1750.95	2074
1751.97	2132
1752.98	2162
1754	2146
1755.02	2138
1756.04	2144
1757.06	2146
1758.07	2118
1759.09	2226
1760.11	2106
1761.13	2154
1762.14	2156
1763.16	2114
1764.18	2136
1765.19	2146
1766.21	2172
1767.23	2144
1768.24	2158
1769.26	2224
1770.28	2212
1771.29	2148
1772.31	2126
1773.32	2128
1774.34	2174
1775.35	2168
1776.37	2138
1777.38	2148
1778.4	2170
1779.41	2170
1780.43	2136
1781.44	2184
1782.45	2130
1783.47	2126
1784.48	2172
1785.49	2144
1786.51	2128
1787.52	2122
1788.53	2166
1789.55	2164
1790.56	2152
1791.57	2140
1792.58	2098
1793.6	2106
1794.61	2130
1795.62	2136
1796.63	2182
1797.64	2114
1798.66	2174
1799.67	2192
1800.68	2144
1801.69	2060
1802.7	2154
1803.71	2152
1804.72	2110
1805.73	2100
1806.74	2080
1807.75	2066
1808.76	2148
1809.77	2088
1810.78	2096
1811.79	2072
1812.8	2084
1813.81	2128
1814.82	2116
1815.83	2096
1816.84	2084
1817.84	2056
1818.85	2154
1819.86	2076
1820.87	2042
1821.88	2122
1822.88	2108
1823.89	2100
1824.9	2122
1825.91	2116
1826.91	2076
1827.92	2078
1828.93	2082
1829.93	1996
1830.94	2112
1831.95	2040
1832.95	2100
1833.96	2074
1834.97	2038
1835.97	2026
1836.98	2076
1837.98	2104
1838.99	2080
1839.99	2124
1841	2098
1842	2080
1843.01	2080
1844.01	2024
1845.02	2068
1846.02	2022
1847.02	2066
1848.03	2062
1849.03	2076
1850.03	2060
1851.04	2088
1852.04	2086
1853.04	2018
1854.05	2016
1855.05	2060
1856.05	2042
1857.05	2088
1858.06	2036
1859.06	2062
1860.06	2002
1861.06	2042
1862.06	1980
1863.07	2078
1864.07	2098
1865.07	2094
1866.07	2034
1867.07	2040
1868.07	2098
1869.07	2008
1870.07	2108
1871.07	2000
1872.07	2072
1873.07	2012
1874.07	2046
1875.07	2044
1876.07	2064
1877.07	2008
1878.07	2058
1879.07	2038
1880.07	2014
1881.07	2046
1882.07	2084
1883.06	1972
1884.06	2108
1885.06	2048
1886.06	1982
1887.06	2064
1888.05	2034
1889.05	1998
1890.05	2028
1891.05	2008
1892.04	1972
1893.04	2030
1894.04	2046
1895.03	1994
1896.03	2012
1897.03	2020
1898.02	2046
1899.02	1998
1900.01	2002
1901.01	2024
1902	2036
1903	2076
1903.99	2084
1904.99	2014
1905.98	2040
1906.98	1984
1907.97	2038
1908.97	2066
1909.96	2016
1910.96	2038
1911.95	2016
1912.94	1980
1913.94	1954
1914.93	2000
1915.93	2016
1916.92	2058
1917.91	2052
1918.9	2032
1919.9	1990
1920.89	2046
1921.88	2028
1922.87	1992
1923.87	2022
1924.86	1994
1925.85	1992
1926.84	2034
1927.83	2052
1928.82	1994
1929.82	1982
1930.81	2046
1931.8	2008
1932.79	2024
1933.78	1994
1934.77	2010
1935.76	1996
1936.75	2010
1937.74	1998
1938.73	1988
1939.72	2016
1940.71	2022
1941.7	1984
1942.69	2002
1943.68	2028
1944.67	1984
1945.65	1958
1946.64	1978
1947.63	1996
1948.62	1980
1949.61	2008
1950.6	1974
1951.58	1986
1952.57	2030
1953.56	1984
1954.55	2022
1955.53	1984
1956.52	2004
1957.51	1962
1958.5	2040
1959.48	2022
1960.47	2020
1961.45	1978
1962.44	1990
1963.43	1998
1964.41	1970
1965.4	1922
1966.38	2022
1967.37	2008
1968.35	2016
1969.34	1938
1970.32	2010
1971.31	1978
1972.29	1938
1973.28	1972
1974.26	1970
1975.25	1938
1976.23	1934
1977.22	1998
1978.2	2000
1979.18	1974
1980.17	1936
1981.15	1950
1982.13	1928
1983.12	1934
1984.1	1966
1985.08	1928
1986.06	1920
1987.05	1934
1988.03	1954
1989.01	1952
1989.99	1964
1990.97	1980
1991.96	1910
1992.94	1912
1993.92	1910
1994.9	1942
1995.88	1960
1996.86	1872
1997.84	1948
1998.82	1964
1999.8	1944
2000.78	1892
2001.76	1924
2002.74	1938
2003.72	1948
2004.7	1928
2005.68	1944
2006.66	1852
2007.64	1896
2008.62	1996
2009.6	1926
2010.58	1894
2011.56	1940
2012.54	1944
2013.51	1892
2014.49	1902
2015.47	1930
2016.45	1912
2017.43	1928
2018.4	1882
2019.38	1970
2020.36	1932
2021.34	1920
2022.31	1892
2023.29	1878
2024.27	1934
2025.24	1908
2026.22	1892
2027.2	1912
2028.17	1916
2029.15	1920
2030.12	1992
2031.1	1878
2032.07	1878
2033.05	1916
2034.03	1860
2035	1948
2035.98	1928
2036.95	1890
2037.93	1882
2038.9	1940
2039.87	1924
2040.85	1948
2041.82	1874
2042.8	1906
2043.77	1898
2044.74	1910
2045.72	1860
2046.69	1884
2047.66	1912
2048.64	1916
2049.61	1872
2050.58	1958
2051.55	1842
2052.53	1912
2053.5	1892
2054.47	1920
2055.44	1916
2056.41	1886
2057.39	1868
2058.36	1872
2059.33	1876
2060.3	1852
2061.27	1872
2062.24	1890
2063.21	1936
2064.18	1880
2065.15	1916
2066.12	1910
2067.09	1906
2068.06	1866
2069.03	1842
2070	1904
2070.97	1856
2071.94	1882
2072.91	1890
2073.88	1946
2074.85	1888
2075.82	1946
2076.79	1856
2077.76	1868
2078.73	1894
2079.69	1896
2080.66	1924
2081.63	1818
2082.6	1856
2083.56	1848
2084.53	1888
2085.5	1878
2086.47	1892
2087.43	1874
2088.4	1852
2089.37	1900
2090.33	1858
2091.3	1902
2092.27	1846
2093.23	1868
2094.2	1842
2095.17	1910
2096.13	1836
2097.1	1836
2098.06	1832
2099.03	1864
2099.99	1822
2100.96	1876
2101.92	1932
2102.89	1886
2103.85	1810
2104.82	1820
2105.78	1898
2106.74	1864
2107.71	1912
2108.67	1824
2109.64	1908
2110.6	1898
2111.56	1832
2112.53	1814
2113.49	1874
2114.45	1864
2115.41	1856
2116.38	1856
2117.34	1852
2118.3	1840
2119.26	1832
2120.23	1838
2121.19	1820
2122.15	1838
2123.11	1828
2124.07	1846
2125.03	1854
2126	1810
2126.96	1850
2127.92	1828
2128.88	1848
2129.84	1844
2130.8	1862
2131.76	1862
2132.72	1818
2133.68	1830
2134.64	1842
2135.6	1850
2136.56	1848
2137.52	1806
2138.48	1828
2139.44	1836
2140.4	1806
2141.35	1798
2142.31	1844
2143.27	1814
2144.23	1820
2145.19	1862
2146.15	1836
2147.1	1790
2148.06	1800
2149.02	1802
2149.98	1808
2150.94	1818
2151.89	1850
2152.85	1804
2153.81	1788
2154.76	1860
2155.72	1794
2156.68	1826
2157.63	1826
2158.59	1864
2159.55	1786
2160.5	1762
2161.46	1828
2162.41	1804
2163.37	1844
2164.32	1806
2165.28	1830
2166.23	1788
2167.19	1788
2168.14	1780
2169.1	1806
2170.05	1764
2171.01	1842
2171.96	1820
2172.91	1716
2173.87	1818
2174.82	1774
2175.78	1830
2176.73	1792
2177.68	1758
2178.64	1802
2179.59	1834
2180.54	1794
2181.49	1766
2182.45	1756
2183.4	1784
2184.35	1804
2185.3	1760
2186.26	1782
2187.21	1754
2188.16	1802
2189.11	1774
2190.06	1742
2191.01	1794
2191.96	1754
2192.92	1784
2193.87	1738
2194.82	1744
2195.77	1766
2196.72	1738
2197.67	1712
2198.62	1740
2199.57	1722
2200.52	1720
2201.47	1760
2202.42	1744
2203.37	1786
2204.32	1746
2205.27	1754
2206.22	1734
2207.16	1740
2208.11	1730
2209.06	1698
2210.01	1746
2210.96	1744
2211.91	1686
2212.85	1696
2213.8	1740
2214.75	1720
2215.7	1702
2216.64	1752
2217.59	1702
2218.54	1712
2219.49	1722
2220.43	1708
2221.38	1758
2222.33	1688
2223.27	1703.36
2224.22	1679.02
2225.16	1694.52
2226.11	1680.73
2227.06	1718.92
2228	1665.39
2228.95	1715.4
2229.89	1726.33
2230.84	1687.81
2231.78	1663.15
2232.73	1746.19
2233.67	1700.35
2234.62	1687.26
2235.56	1689.6
2236.51	1657.74
2237.45	1720.45
2238.4	1656.64
2239.34	1685.31
2240.28	1706.05
2241.23	1641.03
2242.17	1669.53
2243.11	1699.68
2244.06	1681.89
2245	1716.32
2245.94	1670.13
2246.89	1655.17
2247.83	1666.37
2248.77	1671.65
2249.71	1654.21
2250.66	1680.31
2251.6	1646.63
2252.54	1673.01
2253.48	1651.48
2254.42	1644.99
2255.37	1647.03
2256.31	1633.73
2257.25	1656.75
2258.19	1639.35
2259.13	1655.04
2260.07	1626.27
2261.01	1634.58
2261.95	1672.23
2262.89	1640.33
2263.83	1637.86
2264.77	1641.14
2265.71	1639.99
2266.65	1630.44
2267.59	1609.03
2268.53	1598.34
2269.47	1603.7
2270.41	1588.9
2271.35	1617.91
2272.29	1589.42
2273.23	1594.03
2274.17	1600.11
2275.1	1606.79
2276.04	1589.76
2276.98	1563.85
2277.92	1595.71
2278.86	1572.52
2279.8	1581.81
2280.73	1569.36
2281.67	1597.09
2282.61	1590.34
2283.55	1582.61
2284.48	1554
2285.42	1580.93
2286.36	1540.49
2287.29	1568.75
2288.23	1560.81
2289.17	1577.89
2290.1	1555.68
2291.04	1548.3
2291.98	1567.02
2292.91	1525.22
2293.85	1527.49
2294.78	1526.9
2295.72	1523.09
2296.65	1532.29
2297.59	1562.6
2298.52	1552.82
2299.46	1507.16
2300.39	1519.21
2301.33	1505.01
2302.26	1508.76
2303.2	1531.58
2304.13	1520.61
2305.06	1501.21
2306	1506.19
2306.93	1489.63
2307.87	1477.46
2308.8	1487.27
2309.73	1501.49
2310.67	1496.05
2311.6	1485.08
2312.53	1480.48
2313.46	1486.35
2314.4	1474.07
2315.33	1486.65
2316.26	1508.36
2316.69	1506
2317.62	1480
2318.56	1464
2319.5	1448
2320.43	1450
2321.37	1464
2322.31	1430
2323.24	1426
2324.18	1448
2325.12	1410
2326.05	1458
2326.99	1458
2327.92	1454
2328.86	1412
2329.79	1416
2330.73	1460
2331.66	1398
2332.6	1432
2333.53	1438
2334.47	1364
2335.4	1390
2336.34	1434
2337.27	1444
2338.2	1418
2339.14	1438
2340.07	1400
2341.01	1426
2341.94	1414
2342.87	1454
2343.81	1480
2344.74	1404
2345.67	1412
2346.6	1394
2347.54	1432
2348.47	1378
2349.4	1400
2350.33	1396
2351.27	1406
2352.2	1388
2353.13	1354
2354.06	1398
2354.99	1362
2355.93	1390
2356.86	1366
2357.79	1348
2358.72	1418
2359.65	1394
2360.58	1384
2361.51	1388
2362.44	1366
2363.37	1354
2364.3	1424
2365.23	1376
2366.16	1348
2367.09	1370
2368.02	1354
2368.95	1384
2369.88	1364
2370.81	1408
2371.74	1360
2372.67	1376
2373.6	1344
2374.52	1372
2375.45	1336
2376.38	1350
2377.31	1382
2378.24	1340
2379.17	1348
2380.09	1292
2381.02	1352
2381.95	1352
2382.88	1350
2383.8	1340
2384.73	1308
2385.66	1312
2386.58	1312
2387.51	1330
2388.44	1290
2389.36	1340
2390.29	1258
2391.22	1298
2392.14	1288
2393.07	1326
2393.99	1320
2394.92	1276
2395.85	1300
2396.77	1278
2397.7	1266
2398.62	1352
2399.55	1264
2400.47	1308
2401.4	1286
2402.32	1238
2403.25	1258
2404.17	1272
2405.09	1276
2406.02	1282
2406.94	1320
2407.86	1286
2408.79	1282
2409.71	1332
2410.63	1254
2411.56	1248
2412.48	1282
2413.4	1244
2414.33	1258
2415.25	1282
2416.17	1216
2417.09	1262
2418.02	1252
2418.94	1230
2419.86	1268
2420.78	1234
2421.7	1248
2422.63	1236
2423.55	1228
2424.47	1230
2425.39	1222
2426.31	1188
2427.23	1198
2428.15	1228
2429.07	1216
2429.99	1236
2430.91	1226
2431.83	1186
2432.75	1204
2433.67	1224
2434.59	1232
2435.51	1198
2436.43	1160
2437.35	1174
2438.27	1202
2439.19	1208
2440.11	1192
2441.03	1194
2441.95	1200
2442.86	1168
2443.78	1190
2444.7	1138
2445.62	1150
2446.54	1184
2447.46	1184
2448.37	1170
2449.29	1152
2450.21	1174
2451.13	1116
2452.04	1154
2452.96	1160
2453.88	1122
2454.79	1166
2455.71	1158
2456.63	1148
2457.54	1128
2458.46	1148
2459.38	1142
2460.29	1128
2461.21	1110
2462.12	1134
2463.04	1130
2463.95	1114
2464.87	1156
2465.78	1118
2466.7	1124
2467.61	1092
2468.53	1118
2469.44	1120
2470.36	1102
2471.27	1104
2472.19	1102
2473.1	1110
2474.01	1090
2474.93	1094
2475.84	1076
2476.76	1060
2477.67	1078
2478.58	1088
2479.5	1068
2480.41	1058
2481.32	1056
2482.23	1066
2483.15	1052
2484.06	1056
2484.97	1078
2485.88	1048
2486.8	1054
2487.71	1062
2488.62	1046
2489.53	1038
2490.44	1096
2491.35	1026
2492.26	1026
2493.18	1070
2494.09	1006
2495	1054
2495.91	996
2496.82	1058
2497.73	1024
2498.64	1016
2499.55	1014
2500.46	986
2501.37	1010
2502.28	1018
2503.19	1012
2504.1	994
2505.01	1058
2505.92	1020
2506.83	976
2507.74	988
2508.65	990
2509.55	992
2510.46	968
2511.37	988
2512.28	1006
2513.19	986
2514.09	1028
2515	970
2515.91	962
2516.82	944
2517.73	962
2518.63	976
2519.54	966
2520.45	960
2521.35	968
2522.26	958
2523.17	942
2524.07	948
2524.98	926
2525.89	938
2526.79	934
2527.7	940
2528.6	962
2529.51	940
2530.42	968
2531.32	942
2532.23	942
2533.13	896
2534.04	930
2534.94	918
2535.85	960
2536.75	912
2537.66	914
2538.56	896
2539.47	930
2540.37	912
2541.27	908
2542.18	876
2543.08	924
2543.98	912
2544.89	914
2545.79	926
2546.7	922
2547.6	922
2548.5	904
2549.4	888
2550.31	900
2551.21	896
2552.11	902
2553.01	866
2553.92	886
2554.82	864
2555.72	860
2556.62	872
2557.52	864
2558.42	898
2559.33	864
2560.23	842
2561.13	858
2562.03	858
2562.93	856
2563.83	864
2564.73	860
2565.63	836
2566.53	872
2567.43	822
2568.33	866
2569.23	844
2570.13	830
2571.03	836
2571.93	840
2572.83	840
2573.73	838
2574.63	830
2575.53	832
2576.43	820
2577.33	806
2578.22	834
2579.12	796
2580.02	804
2580.92	826
2581.82	818
2582.72	794
2583.61	802
2584.51	794
2585.41	798
2586.31	808
2587.2	796
2588.1	806
2589	816
2589.89	782
2590.79	820
2591.69	834
2592.58	786
2593.48	782
2594.38	786
2595.27	772
2596.17	760
2597.06	740
2597.96	794
2598.86	792
2599.75	764
2600.65	744
2601.54	792
2602.44	770
2603.33	792
2604.23	772
2605.12	758
2606.02	734
2606.91	740
2607.81	774
2608.7	746
2609.59	758
2610.49	770
2611.38	748
2612.27	768
2613.17	728
2614.06	732
2614.95	736
2615.85	708
2616.74	730
2617.63	748
2618.53	738
2619.42	724
2620.31	684
2621.2	720
2622.1	742
2622.99	720
2623.88	744
2624.77	740
2625.66	710
2626.55	712
2627.45	712
2628.34	710
2629.23	726
2630.12	696
2631.01	718
2631.9	712
2632.79	706
2633.68	698
2634.57	696
2635.46	718
2636.35	708
2637.24	704
2638.13	660
2639.02	672
2639.91	700
2640.8	668
2641.69	684
2642.58	670
2643.47	652
2644.36	666
2645.25	654
2646.14	668
2647.02	660
2647.91	674
2648.8	686
2649.69	668
2650.58	682
2651.46	644
2652.35	648
2653.24	666
2654.13	672
2655.01	652
2655.9	660
2656.79	656
2657.68	628
2658.56	630
2659.45	642
2660.34	660
2661.22	696
2662.11	628
2662.99	652
2663.88	638
2664.77	626
2665.65	632
2666.54	654
2667.42	616
2668.31	666
2669.2	620
2670.08	600
2670.96	654
2671.85	652
2672.73	616
2673.62	622
2674.5	640
2675.39	650
2676.27	622
2677.16	600
2678.04	624
2678.93	618
2679.81	620
2680.69	612
2681.58	624
2682.46	600
2683.34	594
2684.23	590
2685.11	600
2685.99	612
2686.87	594
2687.76	582
2688.64	600
2689.52	588
2690.4	594
2691.28	598
2692.17	604
2693.05	596
2693.93	614
2694.81	558
2695.69	592
2696.57	602
2697.46	566
2698.34	582
2699.22	578
2700.1	560
2700.98	598
2701.86	566
2702.74	578
2703.62	572
2704.5	582
2705.38	554
2706.26	574
2707.14	566
2708.02	538
2708.9	584
2709.78	576
2710.66	538
2711.54	546
2712.42	546
2713.3	516
2714.17	572
2715.05	542
2715.93	556
2716.81	562
2717.69	528
2718.57	528
2719.44	548
2720.32	528
2721.2	530
2722.08	550
2722.95	502
2723.83	522
2724.71	530
2725.59	528
2726.46	524
2727.34	512
2728.22	524
2729.09	550
2729.97	510
2730.85	512
2731.72	516
2732.6	518
2733.47	530
2734.35	508
2735.23	526
2736.1	476
2736.98	496
2737.85	510
2738.73	492
2739.6	500
2740.48	492
2741.35	504
2742.23	490
2743.1	496
2743.98	498
2744.85	490
2745.72	506
2746.6	490
2747.47	470
2748.35	490
2749.22	490
2750.09	472
2750.97	496
2751.84	488
2752.71	480
2753.59	494
2754.46	478
2755.33	490
2756.2	442
2757.08	472
2757.95	468
2758.82	460
2759.69	490
2760.57	450
2761.44	480
2762.31	480
2763.18	462
2764.05	458
2764.92	462
2765.79	470
2766.67	458
2767.54	466
2768.41	464
2769.28	464
2770.15	438
2771.02	468
2771.89	474
2772.76	428
2773.63	446
2774.5	470
2775.37	442
2776.24	444
2777.11	440
2777.98	430
2778.85	444
2779.72	402
2780.59	418
2781.46	412
2782.32	434
2783.19	436
2784.06	412
2784.93	426
2785.8	414
2786.67	418
2787.53	404
2788.4	424
2789.27	394
2790.14	434
2791.01	408
2791.87	424
2792.74	412
2793.61	418
2794.47	430
2795.34	388
2796.21	408
2797.07	430
2797.94	384
2798.81	400
2799.67	400
2800.54	398
2801.41	402
2802.27	402
2803.14	430
2804	382
2804.87	404
2805.74	394
2806.6	394
2807.47	394
2808.33	410
2809.2	388
2810.06	402
2810.93	356
2811.79	380
2812.65	386
2813.52	390
2814.38	378
2815.25	390
2816.11	382
2816.98	386
2817.84	382
2818.7	382
2819.56	362
2820.43	364
2821.29	384
2822.16	368
2823.02	362
2823.88	364
2824.74	390
2825.61	344
2826.47	394
2827.33	366
2828.19	354
2829.05	352
2829.92	348
2830.78	340
2831.64	384
2832.5	350
2833.36	340
2834.23	346
2835.09	368
2835.95	364
2836.81	336
2837.67	346
2838.53	352
2839.39	352
2840.25	332
2841.11	332
2841.97	346
2842.83	340
2843.69	324
2844.55	332
2845.41	350
2846.27	340
2847.13	318
2847.99	328
2848.85	346
2849.71	336
2850.57	332
2851.43	322
2852.28	322
2853.14	336
2854	328
2854.86	320
2855.72	316
2856.58	328
2857.43	312
2858.29	318
2859.15	352
2860.01	336
2860.86	322
2861.72	308
2862.58	320
2863.44	310
2864.29	318
2865.15	314
2866.01	304
2866.86	312
2867.72	320
2868.58	326
2869.43	312
2870.29	286
2871.14	286
2872	292
2872.86	308
2873.71	312
2874.57	316
2875.42	298
2876.28	298
2877.13	284
2877.99	292
2878.84	294
2879.7	300
2880.55	286
2881.41	294
2882.26	304
2883.11	292
2883.97	308
2884.82	292
2885.68	278
2886.53	290
2887.39	274
2888.24	286
2889.09	284
2889.94	294
2890.8	290
2891.65	286
2892.5	288
2893.36	282
2894.21	294
2895.06	272
2895.91	268
2896.77	276
2897.62	294
2898.47	268
2899.32	278
2900.17	280
2901.03	264
2901.88	272
2902.73	282
2903.58	264
2904.43	258
2905.28	274
2906.13	272
2906.98	260
2907.84	278
2908.69	254
2909.54	262
2910.39	268
2911.24	264
2912.09	256
2912.94	262
2913.79	276
2914.64	246
2915.49	274
2916.34	270
2917.19	268
2918.03	258
2918.88	278
2919.73	258
2920.58	260
2921.43	270
2922.28	248
2923.13	260
2923.98	284
2924.82	260
2925.67	260
2926.52	254
2927.37	234
2928.22	254
2929.06	246
2929.91	272
2930.76	250
2931.61	246
2932.45	256
2933.3	240
2934.15	248
2934.99	248
2935.84	228
2936.69	230
2937.53	252
2938.38	260
2939.23	250
2940.07	248
2940.92	234
2941.76	232
2942.61	256
2943.46	250
2944.3	266
2945.15	228
2945.99	226
2946.84	254
2947.68	240
2948.53	242
2949.37	216
2950.22	228
2951.06	244
2951.9	232
2952.75	244
2953.59	252
2954.44	234
2955.28	222
2956.12	246
2956.97	214
2957.81	222
2958.65	220
2959.5	232
2960.34	222
2961.18	220
2962.03	224
2962.87	210
2963.71	226
2964.56	212
2965.4	218
2966.24	226
2967.08	226
2967.92	214
2968.77	224
2969.61	222
2970.45	224
2971.29	220
2972.13	200
2972.97	202
2973.82	212
2974.66	216
2975.5	210
2976.34	230
2977.18	222
2978.02	202
2978.86	222
2979.7	208
2980.54	216
2981.38	216
2982.22	220
2983.06	206
2983.9	196
2984.74	198
2985.58	204
2986.42	204
2987.26	212
2988.1	196
2988.94	206
2989.78	202
2990.61	206
2991.45	220
2992.29	212
2993.13	210
2993.97	230
2994.81	190
2995.64	206
2996.48	212
2997.32	222
2998.16	218
2999	202
2999.83	204
