#Acq. time (s)=	10
#Accumulations=	1
#Range (cm-¹)=	200...3000
#Windows=	3
#Autofocus=	Off
#AutoExposure=	Off
#Spike filter=	Off
#Delay time (s)=	0
#Binning=	1
#Readout mode=	Signal
#DeNoise=	Off
#ICS correction=	Off
#Dark correction=	Off
#Inst. Process=	Off
#Instrument=	LabRAM HR Evol
#Detector=	Syncerity OE
#Objective=	x100_VIS
#Grating=	600 (500nm)
#ND Filter=	0.1%
#Laser=	633nm_Edge
#Hole=	100.021
#Range=	Visible
#Project=	Omar
#Sample=	03-07-23
#Site=	papal
#Title=	leaf_100x
#Remark=	
#Date=	03.07.2023 17:20
#Acquired=	03.07.2023 17:20:22
201.713	118
202.98	120
204.247	136
205.513	128
206.778	146
208.045	134
209.311	134
210.576	150
211.84	136
213.106	130
214.371	146
215.636	138
216.899	154
218.164	134
219.428	148
220.692	138
221.955	130
223.219	146
224.482	150
225.744	156
227.007	156
228.27	158
229.531	156
230.794	146
232.055	158
233.317	162
234.579	154
235.839	172
237.1	166
238.362	168
239.621	162
240.882	152
242.141	164
243.402	156
244.661	174
245.921	164
247.179	158
248.439	172
249.698	176
250.956	184
252.215	182
253.473	180
254.731	170
255.988	182
257.246	158
258.503	164
259.761	182
261.017	174
262.273	186
263.53	188
264.786	180
266.042	176
267.298	188
268.554	186
269.809	196
271.063	186
272.319	210
273.573	186
274.828	188
276.082	190
277.336	206
278.591	182
279.844	196
281.097	198
282.351	208
283.603	208
284.855	188
286.109	206
287.361	196
288.613	196
289.866	192
291.117	222
292.368	220
293.62	194
294.871	206
296.121	218
297.372	214
298.623	230
299.873	212
301.123	228
302.372	226
303.622	200
304.872	236
306.121	216
307.37	236
308.618	218
309.866	234
311.116	232
312.364	220
313.611	250
314.859	230
316.106	232
317.353	232
318.6	248
319.848	240
321.095	244
322.341	252
323.587	234
324.833	246
326.079	264
327.324	248
328.569	242
329.814	254
331.059	254
332.304	230
333.548	262
334.792	270
336.037	254
337.28	262
338.524	266
339.767	262
341.011	292
342.254	260
343.497	280
344.739	276
345.982	276
347.224	288
348.466	282
349.708	276
350.95	280
352.191	282
353.432	292
354.673	292
355.914	294
357.155	288
358.394	282
359.634	294
360.874	306
362.114	300
363.354	304
364.593	286
365.832	284
367.07	298
368.309	316
369.548	314
370.786	320
372.024	320
373.261	318
374.499	318
375.736	296
376.974	312
378.211	340
379.447	326
380.684	328
381.92	340
383.157	326
384.392	344
385.628	336
386.864	350
388.098	328
389.333	358
390.569	320
391.802	346
393.037	326
394.272	324
395.505	354
396.739	362
397.973	366
399.206	356
400.44	360
401.673	348
402.905	356
404.138	356
405.37	376
406.602	378
407.835	352
409.066	384
410.298	374
411.528	386
412.76	372
413.99	390
415.221	386
416.451	388
417.682	408
418.911	384
420.142	408
421.371	398
422.601	414
423.83	392
425.059	402
426.288	404
427.517	442
428.745	432
429.974	442
431.201	436
432.43	410
433.657	416
434.883	412
436.111	436
437.338	418
438.565	438
439.791	420
441.017	440
442.244	448
443.469	414
444.695	470
445.921	452
447.146	460
448.37	470
449.596	452
450.821	428
452.045	430
453.27	448
454.493	456
455.717	458
456.94	464
458.165	472
459.387	468
460.61	482
461.833	466
463.056	466
464.278	480
465.5	454
466.722	482
467.945	486
469.166	508
470.387	486
471.608	500
472.829	480
474.049	460
475.271	496
476.491	496
477.711	520
478.931	506
480.15	502
481.37	510
482.589	472
483.808	530
485.027	518
486.247	518
487.465	534
488.683	512
489.901	570
491.119	538
492.337	534
493.554	522
494.771	554
495.988	554
497.205	580
498.422	546
499.638	488
500.854	556
502.07	538
503.286	576
504.502	580
505.717	580
506.933	588
508.148	582
509.363	600
510.577	616
511.792	574
513.005	594
514.219	574
515.433	604
516.647	592
517.86	602
519.073	596
520.287	606
521.5	588
522.711	636
523.924	604
525.136	594
526.348	602
527.56	630
528.772	604
529.982	646
531.194	626
532.405	618
533.616	604
534.825	662
536.036	606
537.246	620
538.457	616
539.665	638
540.875	680
542.085	658
543.294	666
544.502	650
545.712	662
546.92	664
548.128	692
549.336	652
550.545	700
551.751	706
552.959	672
554.167	650
555.373	680
556.581	710
557.788	710
558.994	706
560.2	656
561.406	718
562.612	724
563.817	712
565.023	724
566.229	722
567.433	718
568.639	724
569.843	740
571.048	726
572.251	752
573.456	742
574.659	778
575.863	758
577.066	792
578.27	762
579.472	730
580.676	774
581.878	764
583.081	778
584.283	762
585.484	788
586.687	788
587.888	786
589.09	798
590.291	818
591.493	798
592.693	814
593.893	818
595.094	812
596.294	804
597.494	810
598.694	852
599.894	832
601.093	822
602.293	824
603.491	844
604.69	858
605.889	862
607.087	834
608.285	860
609.483	884
610.682	904
611.879	886
613.076	868
614.273	880
615.471	926
616.667	900
617.864	946
619.06	956
620.256	954
621.453	906
622.648	938
623.844	950
625.039	972
626.234	960
627.429	984
628.625	998
629.819	994
631.013	974
632.208	1004
633.401	980
634.595	1028
635.789	1008
636.982	1008
638.175	1014
639.369	998
640.562	1044
641.755	1082
642.947	1046
644.139	1028
645.331	1050
646.523	1060
647.715	1070
648.906	1086
650.097	1076
651.288	1096
652.479	1122
653.67	1108
654.86	1098
656.051	1146
657.241	1126
658.429	1138
659.619	1156
660.808	1114
661.998	1162
663.187	1142
664.376	1188
665.565	1212
666.753	1166
667.942	1154
669.13	1170
670.317	1208
671.505	1226
672.692	1162
673.88	1196
675.067	1170
676.254	1198
677.44	1190
678.627	1220
679.813	1238
681	1204
682.184	1246
683.37	1264
684.556	1294
685.742	1274
686.926	1284
688.111	1300
689.296	1328
690.481	1310
691.664	1290
692.849	1320
694.033	1314
695.216	1346
696.4	1328
697.584	1326
698.766	1358
699.949	1344
701.133	1418
702.314	1390
703.497	1404
704.678	1414
705.861	1410
707.043	1412
708.224	1382
709.406	1422
710.586	1448
711.768	1424
712.949	1458
714.129	1464
715.31	1504
716.489	1476
717.67	1476
718.849	1536
720.029	1516
721.208	1506
722.388	1514
723.566	1510
724.746	1588
725.924	1552
727.103	1570
728.28	1558
729.458	1540
730.636	1554
731.814	1608
732.992	1608
734.168	1632
735.345	1654
736.523	1620
737.699	1680
738.876	1636
740.052	1666
741.227	1704
742.404	1708
743.579	1656
744.754	1698
745.931	1678
747.105	1724
748.28	1696
749.455	1746
750.629	1744
751.803	1748
752.977	1788
754.152	1762
755.325	1814
756.499	1788
757.672	1820
758.846	1830
760.018	1866
761.191	1838
762.363	1888
763.535	1934
764.708	1876
765.88	1858
767.052	1910
768.223	1920
769.394	1894
770.565	1962
771.737	1942
772.908	1950
774.078	1964
775.249	1926
776.419	1954
777.589	1972
778.758	2038
779.928	2026
781.097	2024
782.266	2060
783.435	2122
784.604	2138
785.773	2082
786.941	2110
788.11	2092
789.278	2080
790.446	2136
791.613	2152
792.781	2184
793.948	2176
795.115	2206
796.282	2144
797.449	2210
798.616	2194
799.782	2264
800.948	2256
802.115	2312
803.28	2226
804.446	2304
805.612	2344
806.777	2320
807.941	2316
809.106	2296
810.271	2346
811.435	2430
812.6	2368
813.764	2384
814.927	2432
816.091	2446
817.254	2478
818.418	2450
819.581	2432
820.743	2576
821.906	2548
823.069	2496
824.232	2490
825.393	2612
826.555	2698
827.717	2604
828.879	2618
830.039	2674
831.201	2620
832.362	2700
833.522	2708
834.683	2694
835.844	2732
837.003	2754
838.164	2784
839.324	2794
840.483	2778
841.643	2814
842.801	2828
843.961	2854
845.12	2844
846.278	2892
847.437	2904
848.594	2926
849.753	2950
850.91	3004
852.069	3016
853.227	2996
854.383	3018
855.541	3030
856.697	3076
857.855	3032
859.011	3034
860.168	3142
861.323	3098
862.48	3156
863.635	3152
864.79	3194
865.946	3206
867.101	3260
868.257	3242
869.411	3248
870.567	3208
871.721	3254
872.874	3298
874.029	3410
875.183	3360
876.336	3312
877.49	3366
878.643	3392
879.796	3414
880.95	3436
882.102	3390
883.254	3534
884.407	3500
885.559	3476
886.711	3454
887.862	3556
889.015	3548
890.166	3612
891.317	3560
892.467	3578
893.619	3504
894.77	3590
895.92	3654
897.07	3626
898.221	3630
899.371	3714
900.52	3718
901.669	3714
902.819	3704
903.968	3784
905.116	3826
906.266	3706
907.415	3824
908.563	3808
909.711	3884
910.859	3902
912.007	3872
913.154	3924
914.301	3890
915.449	4008
916.596	4002
917.742	3978
918.889	3984
920.036	4046
921.183	4102
922.329	4046
923.475	4100
924.621	4154
925.765	4138
926.911	4256
928.056	4318
929.201	4162
930.346	4188
931.49	4342
932.635	4322
933.779	4346
934.924	4414
936.068	4372
937.211	4300
938.355	4448
939.498	4420
940.64	4432
941.784	4426
942.926	4472
944.069	4568
945.212	4574
946.354	4568
947.495	4622
948.637	4580
949.779	4694
950.921	4686
952.062	4634
953.202	4686
954.344	4762
955.484	4776
956.625	4848
957.765	4878
958.905	4842
960.045	4920
961.184	4924
962.324	4950
963.464	4956
964.604	5034
965.742	5052
966.881	5046
968.02	5070
969.158	5106
970.296	5122
971.434	5230
972.572	5168
973.71	5202
974.847	5200
975.985	5286
977.121	5248
978.259	5430
979.396	5336
980.532	5316
981.669	5486
982.804	5402
983.941	5434
985.076	5516
986.212	5430
987.347	5484
988.483	5530
989.617	5586
990.753	5606
991.887	5618
993.022	5688
994.156	5576
995.29	5706
996.424	5694
997.558	5658
998.692	5700
999.825	5844
1000.96	5838
1002.09	5794
1003.22	5864
1004.36	5922
1005.49	5926
1006.62	5938
1007.75	6034
1008.89	6032
1010.02	6032
1011.15	6094
1012.28	6154
1013.41	6216
1014.54	6110
1015.67	6228
1016.8	6210
1017.93	6200
1019.07	6296
1020.19	6328
1021.32	6352
1022.45	6338
1023.58	6418
1024.71	6452
1025.84	6510
1026.97	6502
1028.1	6514
1029.23	6536
1030.36	6748
1031.49	6672
1032.61	6630
1033.74	6698
1034.87	6786
1036	6782
1037.12	6858
1038.25	6832
1039.38	6834
1040.5	7010
1041.63	6958
1042.76	7000
1043.88	7042
1045.01	7104
1046.14	7088
1047.26	7172
1048.39	7184
1049.51	7318
1050.64	7164
1051.76	7166
1052.89	7352
1054.01	7362
1055.14	7180
1056.26	7438
1057.38	7474
1058.51	7496
1059.63	7592
1060.75	7548
1061.88	7635
1063	7722
1064.12	7610
1065.25	7654
1066.37	7742
1067.49	7776
1068.61	7704
1069.73	7752
1070.86	7832
1071.98	7882
1073.1	7882
1074.22	7950
1075.34	7856
1076.46	7948
1077.58	7988
1078.7	8050
1079.82	8100
1080.94	7972
1082.06	8084
1083.18	8118
1084.3	8076
1085.42	8178
1086.54	8194
1087.66	8226
1088.78	8236
1089.9	8286
1091.02	8334
1092.14	8362
1093.25	8482
1094.37	8342
1095.49	8442
1096.61	8446
1097.72	8550
1098.84	8450
1099.96	8420
1101.08	8438
1102.19	8542
1103.31	8474
1104.43	8576
1105.54	8636
1106.66	8678
1107.77	8600
1108.89	8778
1110	8742
1111.12	8818
1112.23	8706
1113.35	8828
1114.46	8820
1115.58	8834
1116.69	8958
1117.81	8946
1118.92	8924
1120.03	8908
1121.15	9094
1122.26	9080
1123.37	9090
1124.49	9102
1125.6	9218
1126.71	9278
1127.83	9148
1128.94	9252
1130.05	9200
1131.16	9134
1132.27	9274
1133.39	9234
1134.5	9410
1135.61	9498
1136.72	9350
1137.83	9552
1138.94	9474
1140.05	9624
1141.16	9574
1142.27	9478
1143.38	9646
1144.49	9660
1145.6	9662
1146.71	9542
1147.82	9624
1148.93	9582
1150.04	9688
1151.15	9856
1152.26	9758
1153.36	9796
1154.47	9830
1155.58	9894
1156.69	9944
1157.8	9992
1158.9	9976
1160.01	9940
1161.12	9902
1162.22	9906
1163.33	10020
1164.44	9936
1165.54	10032
1166.65	10048
1167.76	9998
1168.86	10144
1169.97	9950
1171.07	10124
1172.18	10132
1173.28	10160
1174.39	10092
1175.49	10062
1176.6	10196
1177.7	9978
1178.81	10110
1179.91	10322
1181.02	10066
1182.12	10092
1183.22	10158
1184.33	10106
1185.43	10144
1186.53	10212
1187.63	10092
1188.74	10096
1189.84	10124
1190.94	10122
1192.04	10170
1193.15	10038
1194.25	10118
1195.35	10194
1196.45	10202
1197.55	10038
1198.65	10124
1199.75	10136
1200.85	10090
1201.95	10046
1203.05	10074
1204.16	10066
1205.25	10132
1206.35	10076
1207.45	10072
1208.55	10098
1209.65	10088
1210.75	10024
1211.85	10010
1212.95	9940
1214.05	10090
1215.15	10144
1216.24	9912
1217.34	9982
1218.44	9850
1219.54	9802
1220.64	9928
1221.73	9772
1222.83	9906
1223.93	9860
1225.02	9848
1226.12	9852
1227.22	9854
1228.31	9764
1229.41	9768
1230.5	9728
1231.6	9700
1232.7	9788
1233.79	9896
1234.89	9722
1235.98	9632
1237.08	9658
1238.17	9730
1239.26	9802
1240.36	9684
1241.45	9608
1242.55	9618
1243.64	9550
1244.73	9552
1245.83	9578
1246.92	9540
1248.01	9588
1249.11	9406
1250.2	9466
1251.29	9462
1252.38	9562
1253.48	9574
1254.57	9520
1255.66	9516
1256.75	9392
1257.84	9376
1258.93	9330
1260.03	9304
1261.12	9322
1262.21	9296
1263.3	9232
1264.39	9188
1265.48	9212
1266.57	9180
1267.66	9140
1268.75	9094
1269.84	9184
1270.93	9044
1272.02	9124
1273.11	9162
1274.19	9132
1275.28	9068
1276.37	8930
1277.46	8926
1278.55	8842
1279.64	8908
1280.72	8862
1281.81	8830
1282.9	8840
1283.98	8921.83
1285.07	8799.08
1286.16	8763.38
1287.25	8661.88
1288.33	8624.58
1289.42	8683.23
1290.5	8691.07
1291.59	8565.57
1292.68	8561.65
1293.76	8464.46
1294.85	8457.33
1295.93	8401.32
1297.02	8396.66
1298.1	8259.85
1299.19	8362.15
1300.27	8283.08
1301.36	8220.41
1302.44	8191.48
1303.53	8160.97
1304.61	8083.29
1305.69	8066.23
1306.78	7964.09
1307.86	7961.31
1308.94	7879.06
1310.03	7941.34
1311.11	7965.44
1312.19	7803.09
1313.27	7896.96
1314.36	7823.86
1315.44	7657.85
1316.52	7786.73
1317.6	7703.5
1318.68	7644.2
1319.77	7636.61
1320.85	7632.2
1321.93	7590.19
1323.01	7579.38
1324.09	7584.44
1325.17	7519.09
1326.25	7395.59
1327.33	7376.86
1328.41	7349.86
1329.49	7331.27
1330.57	7254.42
1331.65	7278.74
1332.73	7185.63
1333.81	7148.38
1334.89	7069.12
1335.97	7095.34
1337.04	7115.55
1338.12	7037.34
1339.2	7013.6
1340.28	7015.64
1341.36	6926.52
1342.44	6968.15
1343.51	6910.81
1344.59	6842.57
1345.67	6853.87
1346.75	6804.56
1347.82	6726.9
1348.9	6746.4
1349.98	6666.06
1351.05	6660.71
1352.13	6634.51
1353.2	6523.73
1354.28	6473.55
1355.36	6620.44
1356.43	6518.63
1357.51	6509.64
1358.58	6442.99
1359.66	6420.94
1360.73	6361.25
1361.81	6347.5
1362.88	6375.88
1363.96	6235.02
1365.03	6249.54
1366.1	6184.07
1367.18	6216.02
1368.25	6184
1369.33	6193.73
1370.4	6149.28
1371.47	6089
1372.54	6059.74
1373.62	5979.55
1374.69	6113.95
1375.76	6057.26
1376.83	6011.85
1377.91	5846.79
1378.98	5874.54
1380.05	5898.11
1381.12	5930.23
1382.19	5852.54
1383.26	5840.73
1384.34	5796.59
1385.41	5685.88
1386.48	5711.31
1387.55	5675.97
1388.62	5720.51
1389.69	5728.94
1390.76	5639.26
1391.83	5714.63
1392.9	5604.17
1393.02	5586
1394.1	5482
1395.17	5486
1396.25	5548
1397.32	5462
1398.4	5456
1399.47	5486
1400.55	5420
1401.62	5346
1402.69	5376
1403.77	5290
1404.84	5226
1405.91	5284
1406.99	5374
1408.06	5210
1409.13	5206
1410.2	5296
1411.27	5190
1412.35	5178
1413.42	5258
1414.49	5122
1415.56	5018
1416.63	5146
1417.7	5248
1418.78	5210
1419.85	5048
1420.92	4996
1421.99	5022
1423.06	5030
1424.13	4916
1425.2	5060
1426.27	4976
1427.34	4966
1428.41	4976
1429.48	5034
1430.55	4844
1431.61	4876
1432.68	4926
1433.75	4906
1434.82	4896
1435.89	4762
1436.96	4806
1438.02	4822
1439.09	4774
1440.16	4714
1441.23	4814
1442.3	4718
1443.36	4766
1444.43	4806
1445.5	4724
1446.56	4654
1447.63	4688
1448.7	4690
1449.76	4666
1450.83	4712
1451.89	4686
1452.96	4682
1454.02	4670
1455.09	4612
1456.15	4582
1457.22	4552
1458.28	4546
1459.35	4598
1460.41	4548
1461.48	4562
1462.54	4520
1463.61	4380
1464.67	4536
1465.73	4458
1466.8	4482
1467.86	4394
1468.92	4490
1469.98	4564
1471.05	4434
1472.11	4422
1473.17	4400
1474.24	4464
1475.3	4440
1476.36	4416
1477.42	4354
1478.48	4356
1479.54	4406
1480.6	4344
1481.67	4340
1482.73	4314
1483.79	4332
1484.85	4316
1485.91	4184
1486.97	4186
1488.03	4236
1489.09	4290
1490.15	4140
1491.21	4252
1492.27	4238
1493.33	4216
1494.38	4166
1495.44	4132
1496.5	4208
1497.56	4198
1498.62	4182
1499.68	4096
1500.74	4120
1501.79	4072
1502.85	4046
1503.91	4072
1504.97	4094
1506.02	4058
1507.08	4044
1508.14	4038
1509.2	4080
1510.25	4052
1511.31	3948
1512.36	3904
1513.42	4002
1514.48	3962
1515.53	3858
1516.59	3906
1517.64	3962
1518.7	3892
1519.75	3962
1520.81	3868
1521.86	3906
1522.92	3878
1523.97	3892
1525.02	3832
1526.08	3806
1527.13	3810
1528.19	3822
1529.24	3754
1530.29	3824
1531.35	3766
1532.4	3834
1533.45	3710
1534.51	3816
1535.56	3740
1536.61	3730
1537.66	3688
1538.72	3678
1539.77	3666
1540.82	3706
1541.87	3678
1542.92	3736
1543.97	3648
1545.02	3674
1546.08	3616
1547.13	3616
1548.18	3600
1549.23	3602
1550.28	3660
1551.33	3584
1552.38	3558
1553.43	3588
1554.48	3614
1555.53	3504
1556.57	3596
1557.62	3570
1558.67	3554
1559.72	3532
1560.77	3526
1561.82	3482
1562.87	3478
1563.92	3526
1564.96	3524
1566.01	3536
1567.06	3464
1568.11	3534
1569.15	3440
1570.2	3488
1571.25	3446
1572.29	3426
1573.34	3496
1574.39	3428
1575.43	3492
1576.48	3390
1577.53	3432
1578.57	3468
1579.62	3420
1580.66	3458
1581.71	3408
1582.75	3370
1583.8	3328
1584.84	3362
1585.89	3346
1586.93	3360
1587.98	3408
1589.02	3394
1590.06	3400
1591.11	3302
1592.15	3308
1593.2	3290
1594.24	3344
1595.28	3286
1596.33	3316
1597.37	3332
1598.41	3296
1599.45	3322
1600.5	3322
1601.54	3362
1602.58	3296
1603.62	3278
1604.66	3234
1605.7	3286
1606.75	3278
1607.79	3228
1608.83	3240
1609.87	3188
1610.91	3212
1611.95	3240
1612.99	3206
1614.03	3274
1615.07	3248
1616.11	3218
1617.15	3240
1618.19	3156
1619.23	3266
1620.27	3186
1621.31	3288
1622.35	3242
1623.39	3178
1624.43	3204
1625.46	3206
1626.5	3200
1627.54	3180
1628.58	3224
1629.62	3156
1630.65	3124
1631.69	3182
1632.73	3182
1633.77	3188
1634.8	3162
1635.84	3088
1636.88	3152
1637.91	3136
1638.95	3144
1639.99	3100
1641.02	3202
1642.06	3126
1643.09	3120
1644.13	3126
1645.16	3088
1646.2	3184
1647.23	3158
1648.27	3078
1649.3	3060
1650.34	3102
1651.37	3014
1652.41	3138
1653.44	3090
1654.47	3074
1655.51	3052
1656.54	3026
1657.57	3058
1658.61	3026
1659.64	3070
1660.67	2994
1661.71	3048
1662.74	2970
1663.77	3064
1664.81	2994
1665.84	3040
1666.87	2998
1667.9	3032
1668.93	3012
1669.96	2992
1671	2992
1672.03	3052
1673.06	2980
1674.09	3024
1675.12	3070
1676.15	2926
1677.18	2960
1678.21	2906
1679.24	2982
1680.27	2936
1681.3	2956
1682.33	2958
1683.36	2958
1684.39	2912
1685.42	2916
1686.45	2988
1687.47	2930
1688.5	2928
1689.53	2970
1690.56	2868
1691.59	2900
1692.62	2912
1693.64	2882
1694.67	2904
1695.7	2962
1696.73	2940
1697.75	2848
1698.78	2848
1699.81	2840
1700.83	2964
1701.86	2852
1702.89	2968
1703.91	2904
1704.94	2848
1705.97	2790
1706.99	2862
1708.02	2886
1709.04	2824
1710.07	2856
1711.09	2892
1712.12	2908
1713.14	2852
1714.17	2844
1715.19	2820
1716.22	2808
1717.24	2880
1718.26	2892
1719.29	2852
1720.31	2786
1721.33	2836
1722.36	2830
1723.38	2840
1724.4	2860
1725.43	2790
1726.45	2826
1727.47	2826
1728.49	2796
1729.52	2854
1730.54	2840
1731.56	2780
1732.58	2772
1733.6	2744
1734.63	2872
1735.65	2838
1736.67	2814
1737.69	2802
1738.71	2796
1739.73	2782
1740.75	2812
1741.77	2778
1742.79	2720
1743.81	2764
1744.83	2770
1745.85	2792
1746.87	2768
1747.89	2728
1748.91	2798
1749.93	2794
1750.95	2750
1751.97	2768
1752.98	2792
1754	2766
1755.02	2724
1756.04	2828
1757.06	2764
1758.07	2740
1759.09	2778
1760.11	2802
1761.13	2710
1762.14	2774
1763.16	2728
1764.18	2766
1765.19	2756
1766.21	2734
1767.23	2756
1768.24	2728
1769.26	2800
1770.28	2784
1771.29	2774
1772.31	2794
1773.32	2776
1774.34	2746
1775.35	2766
1776.37	2754
1777.38	2812
1778.4	2752
1779.41	2736
1780.43	2780
1781.44	2714
1782.45	2708
1783.47	2724
1784.48	2706
1785.49	2746
1786.51	2726
1787.52	2776
1788.53	2734
1789.55	2756
1790.56	2782
1791.57	2732
1792.58	2698
1793.6	2704
1794.61	2774
1795.62	2732
1796.63	2704
1797.64	2694
1798.66	2690
1799.67	2802
1800.68	2692
1801.69	2670
1802.7	2748
1803.71	2728
1804.72	2712
1805.73	2654
1806.74	2758
1807.75	2672
1808.76	2686
1809.77	2718
1810.78	2756
1811.79	2674
1812.8	2724
1813.81	2676
1814.82	2716
1815.83	2728
1816.84	2728
1817.84	2732
1818.85	2756
1819.86	2762
1820.87	2698
1821.88	2628
1822.88	2758
1823.89	2702
1824.9	2678
1825.91	2726
1826.91	2652
1827.92	2718
1828.93	2704
1829.93	2674
1830.94	2626
1831.95	2682
1832.95	2666
1833.96	2658
1834.97	2640
1835.97	2638
1836.98	2662
1837.98	2608
1838.99	2640
1839.99	2592
1841	2652
1842	2704
1843.01	2660
1844.01	2646
1845.02	2602
1846.02	2674
1847.02	2648
1848.03	2654
1849.03	2636
1850.03	2552
1851.04	2716
1852.04	2684
1853.04	2632
1854.05	2610
1855.05	2592
1856.05	2628
1857.05	2544
1858.06	2616
1859.06	2606
1860.06	2544
1861.06	2714
1862.06	2582
1863.07	2624
1864.07	2638
1865.07	2610
1866.07	2600
1867.07	2652
1868.07	2612
1869.07	2584
1870.07	2596
1871.07	2586
1872.07	2610
1873.07	2572
1874.07	2640
1875.07	2662
1876.07	2632
1877.07	2600
1878.07	2626
1879.07	2522
1880.07	2610
1881.07	2592
1882.07	2580
1883.06	2562
1884.06	2610
1885.06	2622
1886.06	2590
1887.06	2586
1888.05	2636
1889.05	2536
1890.05	2566
1891.05	2620
1892.04	2580
1893.04	2630
1894.04	2582
1895.03	2562
1896.03	2618
1897.03	2590
1898.02	2542
1899.02	2622
1900.01	2616
1901.01	2564
1902	2550
1903	2642
1903.99	2572
1904.99	2572
1905.98	2544
1906.98	2648
1907.97	2566
1908.97	2496
1909.96	2566
1910.96	2572
1911.95	2604
1912.94	2564
1913.94	2596
1914.93	2580
1915.93	2538
1916.92	2580
1917.91	2594
1918.9	2508
1919.9	2556
1920.89	2588
1921.88	2534
1922.87	2572
1923.87	2576
1924.86	2548
1925.85	2566
1926.84	2562
1927.83	2572
1928.82	2542
1929.82	2590
1930.81	2622
1931.8	2564
1932.79	2538
1933.78	2532
1934.77	2590
1935.76	2512
1936.75	2502
1937.74	2584
1938.73	2580
1939.72	2584
1940.71	2578
1941.7	2580
1942.69	2576
1943.68	2552
1944.67	2600
1945.65	2498
1946.64	2614
1947.63	2494
1948.62	2524
1949.61	2504
1950.6	2604
1951.58	2612
1952.57	2574
1953.56	2594
1954.55	2542
1955.53	2518
1956.52	2516
1957.51	2522
1958.5	2548
1959.48	2548
1960.47	2498
1961.45	2486
1962.44	2538
1963.43	2552
1964.41	2540
1965.4	2516
1966.38	2476
1967.37	2540
1968.35	2564
1969.34	2512
1970.32	2498
1971.31	2536
1972.29	2486
1973.28	2494
1974.26	2542
1975.25	2504
1976.23	2460
1977.22	2504
1978.2	2482
1979.18	2518
1980.17	2504
1981.15	2474
1982.13	2442
1983.12	2524
1984.1	2458
1985.08	2470
1986.06	2468
1987.05	2498
1988.03	2520
1989.01	2432
1989.99	2478
1990.97	2478
1991.96	2452
1992.94	2490
1993.92	2482
1994.9	2466
1995.88	2484
1996.86	2444
1997.84	2490
1998.82	2506
1999.8	2542
2000.78	2474
2001.76	2506
2002.74	2400
2003.72	2476
2004.7	2434
2005.68	2426
2006.66	2460
2007.64	2468
2008.62	2434
2009.6	2512
2010.58	2436
2011.56	2476
2012.54	2452
2013.51	2418
2014.49	2494
2015.47	2406
2016.45	2464
2017.43	2436
2018.4	2486
2019.38	2494
2020.36	2414
2021.34	2444
2022.31	2488
2023.29	2392
2024.27	2442
2025.24	2428
2026.22	2442
2027.2	2430
2028.17	2416
2029.15	2402
2030.12	2462
2031.1	2400
2032.07	2414
2033.05	2474
2034.03	2386
2035	2442
2035.98	2400
2036.95	2454
2037.93	2432
2038.9	2424
2039.87	2462
2040.85	2422
2041.82	2464
2042.8	2398
2043.77	2362
2044.74	2400
2045.72	2456
2046.69	2408
2047.66	2402
2048.64	2368
2049.61	2436
2050.58	2398
2051.55	2432
2052.53	2414
2053.5	2432
2054.47	2356
2055.44	2400
2056.41	2400
2057.39	2390
2058.36	2376
2059.33	2418
2060.3	2406
2061.27	2330
2062.24	2418
2063.21	2390
2064.18	2388
2065.15	2402
2066.12	2454
2067.09	2402
2068.06	2380
2069.03	2392
2070	2402
2070.97	2360
2071.94	2376
2072.91	2346
2073.88	2404
2074.85	2350
2075.82	2310
2076.79	2406
2077.76	2354
2078.73	2364
2079.69	2366
2080.66	2376
2081.63	2352
2082.6	2334
2083.56	2418
2084.53	2368
2085.5	2356
2086.47	2346
2087.43	2330
2088.4	2370
2089.37	2388
2090.33	2348
2091.3	2324
2092.27	2330
2093.23	2342
2094.2	2374
2095.17	2388
2096.13	2382
2097.1	2346
2098.06	2390
2099.03	2362
2099.99	2372
2100.96	2338
2101.92	2364
2102.89	2352
2103.85	2418
2104.82	2386
2105.78	2344
2106.74	2366
2107.71	2352
2108.67	2352
2109.64	2356
2110.6	2352
2111.56	2330
2112.53	2360
2113.49	2360
2114.45	2344
2115.41	2252
2116.38	2328
2117.34	2350
2118.3	2374
2119.26	2326
2120.23	2322
2121.19	2328
2122.15	2344
2123.11	2388
2124.07	2344
2125.03	2330
2126	2282
2126.96	2316
2127.92	2350
2128.88	2366
2129.84	2366
2130.8	2308
2131.76	2346
2132.72	2292
2133.68	2310
2134.64	2302
2135.6	2314
2136.56	2280
2137.52	2290
2138.48	2262
2139.44	2320
2140.4	2358
2141.35	2270
2142.31	2284
2143.27	2282
2144.23	2294
2145.19	2358
2146.15	2276
2147.1	2304
2148.06	2288
2149.02	2306
2149.98	2318
2150.94	2248
2151.89	2288
2152.85	2290
2153.81	2244
2154.76	2308
2155.72	2324
2156.68	2266
2157.63	2254
2158.59	2278
2159.55	2334
2160.5	2234
2161.46	2284
2162.41	2248
2163.37	2260
2164.32	2246
2165.28	2312
2166.23	2236
2167.19	2264
2168.14	2284
2169.1	2226
2170.05	2296
2171.01	2282
2171.96	2298
2172.91	2260
2173.87	2200
2174.82	2210
2175.78	2306
2176.73	2254
2177.68	2232
2178.64	2218
2179.59	2298
2180.54	2234
2181.49	2260
2182.45	2258
2183.4	2250
2184.35	2224
2185.3	2206
2186.26	2254
2187.21	2256
2188.16	2294
2189.11	2256
2190.06	2196
2191.01	2204
2191.96	2222
2192.92	2176
2193.87	2202
2194.82	2228
2195.77	2184
2196.72	2174
2197.67	2162
2198.62	2128
2199.57	2174
2200.52	2226
2201.47	2208
2202.42	2154
2203.37	2192
2204.32	2144
2205.27	2122
2206.22	2230
2207.16	2200
2208.11	2212
2209.06	2222
2210.01	2164
2210.96	2202
2211.91	2092
2212.85	2128
2213.8	2182
2214.75	2178
2215.7	2164
2216.64	2128
2217.59	2238
2218.54	2134
2219.49	2144
2220.43	2126
2221.38	2152
2222.33	2184
2223.27	2185.37
2224.22	2148.89
2225.16	2132.56
2226.11	2127.67
2227.06	2132.56
2228	2162.41
2228.95	2124.64
2229.89	2172.67
2230.84	2108.57
2231.78	2135.25
2232.73	2150.94
2233.67	2096.84
2234.62	2158.48
2235.56	2145.53
2236.51	2102.13
2237.45	2116.56
2238.4	2100.65
2239.34	2178.23
2240.28	2085.05
2241.23	2138.71
2242.17	2131.79
2243.11	2099.51
2244.06	2116.38
2245	2067.52
2245.94	2103.43
2246.89	2114.05
2247.83	2075.79
2248.77	2053.42
2249.71	2066.99
2250.66	2126.14
2251.6	2047.55
2252.54	2071.14
2253.48	2058.53
2254.42	2088.18
2255.37	2056.44
2256.31	2125.49
2257.25	2038.03
2258.19	2087.18
2259.13	2072.8
2260.07	2099.18
2261.01	2067.26
2261.95	2081.36
2262.89	2058.27
2263.83	2095.92
2264.77	2039.41
2265.71	2037.65
2266.65	2052.58
2267.59	2044.29
2268.53	2013.14
2269.47	2025.76
2270.41	2035.07
2271.35	2016.9
2272.29	2018.99
2273.23	2013.47
2274.17	2050.71
2275.1	2028.94
2276.04	2041.09
2276.98	2017.86
2277.92	2024.86
2278.86	2018.99
2279.8	2024.79
2280.73	1999.3
2281.67	2025.74
2282.61	2004.16
2283.55	1992.67
2284.48	2008.86
2285.42	1972.12
2286.36	1981.07
2287.29	1963.6
2288.23	1942.36
2289.17	1969.45
2290.1	1976.41
2291.04	1954.9
2291.98	1949.92
2292.91	1976.79
2293.85	1977.43
2294.78	1972.77
2295.72	1963.22
2296.65	1953.11
2297.59	1958.15
2298.52	1938.28
2299.46	1963.2
2300.39	1930.98
2301.33	1923.45
2302.26	1931.96
2303.2	1951.35
2304.13	1926.9
2305.06	1922.26
2306	1935.99
2306.93	1929.49
2307.87	1901.93
2308.8	1886.3
2309.73	1903.23
2310.67	1901.69
2311.6	1871.81
2312.53	1882.99
2313.46	1904.01
2314.4	1901.09
2315.33	1895.07
2316.26	1893.27
2316.69	1890
2317.62	1866
2318.56	1888
2319.5	1860
2320.43	1878
2321.37	1878
2322.31	1916
2323.24	1852
2324.18	1882
2325.12	1876
2326.05	1854
2326.99	1906
2327.92	1844
2328.86	1848
2329.79	1886
2330.73	1808
2331.66	1814
2332.6	1896
2333.53	1812
2334.47	1842
2335.4	1846
2336.34	1844
2337.27	1840
2338.2	1886
2339.14	1862
2340.07	1840
2341.01	1778
2341.94	1834
2342.87	1812
2343.81	1832
2344.74	1834
2345.67	1840
2346.6	1786
2347.54	1760
2348.47	1792
2349.4	1804
2350.33	1784
2351.27	1760
2352.2	1864
2353.13	1862
2354.06	1802
2354.99	1764
2355.93	1788
2356.86	1800
2357.79	1792
2358.72	1800
2359.65	1828
2360.58	1752
2361.51	1792
2362.44	1776
2363.37	1758
2364.3	1786
2365.23	1774
2366.16	1810
2367.09	1674
2368.02	1752
2368.95	1718
2369.88	1778
2370.81	1766
2371.74	1712
2372.67	1766
2373.6	1748
2374.52	1734
2375.45	1738
2376.38	1726
2377.31	1794
2378.24	1780
2379.17	1792
2380.09	1752
2381.02	1750
2381.95	1746
2382.88	1706
2383.8	1684
2384.73	1750
2385.66	1676
2386.58	1704
2387.51	1692
2388.44	1698
2389.36	1724
2390.29	1696
2391.22	1632
2392.14	1688
2393.07	1650
2393.99	1684
2394.92	1682
2395.85	1612
2396.77	1636
2397.7	1682
2398.62	1674
2399.55	1650
2400.47	1672
2401.4	1674
2402.32	1632
2403.25	1652
2404.17	1620
2405.09	1670
2406.02	1630
2406.94	1644
2407.86	1606
2408.79	1644
2409.71	1640
2410.63	1602
2411.56	1596
2412.48	1612
2413.4	1658
2414.33	1620
2415.25	1594
2416.17	1634
2417.09	1580
2418.02	1634
2418.94	1588
2419.86	1604
2420.78	1596
2421.7	1590
2422.63	1556
2423.55	1514
2424.47	1596
2425.39	1562
2426.31	1582
2427.23	1576
2428.15	1588
2429.07	1588
2429.99	1588
2430.91	1558
2431.83	1522
2432.75	1484
2433.67	1540
2434.59	1538
2435.51	1522
2436.43	1526
2437.35	1552
2438.27	1530
2439.19	1492
2440.11	1556
2441.03	1510
2441.95	1538
2442.86	1518
2443.78	1470
2444.7	1502
2445.62	1476
2446.54	1516
2447.46	1458
2448.37	1480
2449.29	1468
2450.21	1472
2451.13	1476
2452.04	1462
2452.96	1478
2453.88	1454
2454.79	1490
2455.71	1460
2456.63	1442
2457.54	1434
2458.46	1406
2459.38	1480
2460.29	1440
2461.21	1448
2462.12	1410
2463.04	1434
2463.95	1424
2464.87	1416
2465.78	1426
2466.7	1440
2467.61	1380
2468.53	1502
2469.44	1368
2470.36	1390
2471.27	1400
2472.19	1416
2473.1	1382
2474.01	1398
2474.93	1382
2475.84	1370
2476.76	1392
2477.67	1410
2478.58	1392
2479.5	1378
2480.41	1408
2481.32	1360
2482.23	1372
2483.15	1378
2484.06	1392
2484.97	1334
2485.88	1376
2486.8	1370
2487.71	1336
2488.62	1320
2489.53	1346
2490.44	1336
2491.35	1348
2492.26	1346
2493.18	1356
2494.09	1270
2495	1330
2495.91	1326
2496.82	1340
2497.73	1330
2498.64	1312
2499.55	1308
2500.46	1364
2501.37	1280
2502.28	1264
2503.19	1288
2504.1	1284
2505.01	1292
2505.92	1284
2506.83	1304
2507.74	1324
2508.65	1272
2509.55	1296
2510.46	1248
2511.37	1254
2512.28	1302
2513.19	1250
2514.09	1228
2515	1288
2515.91	1250
2516.82	1226
2517.73	1278
2518.63	1192
2519.54	1248
2520.45	1226
2521.35	1246
2522.26	1200
2523.17	1240
2524.07	1216
2524.98	1214
2525.89	1206
2526.79	1196
2527.7	1164
2528.6	1208
2529.51	1168
2530.42	1232
2531.32	1178
2532.23	1196
2533.13	1192
2534.04	1208
2534.94	1196
2535.85	1164
2536.75	1178
2537.66	1126
2538.56	1180
2539.47	1124
2540.37	1178
2541.27	1152
2542.18	1166
2543.08	1176
2543.98	1180
2544.89	1160
2545.79	1112
2546.7	1118
2547.6	1130
2548.5	1038
2549.4	1172
2550.31	1116
2551.21	1182
2552.11	1108
2553.01	1102
2553.92	1130
2554.82	1098
2555.72	1126
2556.62	1100
2557.52	1064
2558.42	1114
2559.33	1112
2560.23	1106
2561.13	1086
2562.03	1084
2562.93	1126
2563.83	1094
2564.73	1124
2565.63	1082
2566.53	1062
2567.43	1082
2568.33	1116
2569.23	1072
2570.13	1070
2571.03	1090
2571.93	1050
2572.83	1086
2573.73	1094
2574.63	1088
2575.53	1062
2576.43	1048
2577.33	1056
2578.22	1058
2579.12	1036
2580.02	1070
2580.92	1020
2581.82	1030
2582.72	1050
2583.61	1044
2584.51	1030
2585.41	1030
2586.31	1040
2587.2	1036
2588.1	1000
2589	1028
2589.89	1006
2590.79	1012
2591.69	1030
2592.58	996
2593.48	1010
2594.38	958
2595.27	1004
2596.17	994
2597.06	996
2597.96	970
2598.86	994
2599.75	958
2600.65	962
2601.54	960
2602.44	980
2603.33	970
2604.23	954
2605.12	958
2606.02	956
2606.91	964
2607.81	950
2608.7	994
2609.59	928
2610.49	960
2611.38	960
2612.27	940
2613.17	930
2614.06	952
2614.95	934
2615.85	916
2616.74	950
2617.63	944
2618.53	912
2619.42	916
2620.31	930
2621.2	928
2622.1	938
2622.99	954
2623.88	906
2624.77	934
2625.66	936
2626.55	936
2627.45	910
2628.34	906
2629.23	864
2630.12	898
2631.01	910
2631.9	876
2632.79	902
2633.68	920
2634.57	912
2635.46	886
2636.35	870
2637.24	868
2638.13	926
2639.02	860
2639.91	878
2640.8	890
2641.69	842
2642.58	864
2643.47	854
2644.36	862
2645.25	864
2646.14	880
2647.02	872
2647.91	890
2648.8	854
2649.69	858
2650.58	854
2651.46	844
2652.35	872
2653.24	812
2654.13	860
2655.01	834
2655.9	862
2656.79	834
2657.68	844
2658.56	806
2659.45	864
2660.34	844
2661.22	774
2662.11	800
2662.99	816
2663.88	802
2664.77	826
2665.65	816
2666.54	812
2667.42	820
2668.31	832
2669.2	778
2670.08	754
2670.96	810
2671.85	832
2672.73	842
2673.62	810
2674.5	818
2675.39	774
2676.27	798
2677.16	814
2678.04	778
2678.93	820
2679.81	786
2680.69	786
2681.58	776
2682.46	820
2683.34	738
2684.23	784
2685.11	744
2685.99	800
2686.87	768
2687.76	778
2688.64	766
2689.52	772
2690.4	754
2691.28	744
2692.17	736
2693.05	714
2693.93	732
2694.81	730
2695.69	768
2696.57	774
2697.46	728
2698.34	738
2699.22	730
2700.1	736
2700.98	740
2701.86	740
2702.74	724
2703.62	728
2704.5	750
2705.38	702
2706.26	702
2707.14	704
2708.02	722
2708.9	688
2709.78	702
2710.66	710
2711.54	716
2712.42	710
2713.3	698
2714.17	708
2715.05	668
2715.93	698
2716.81	724
2717.69	708
2718.57	670
2719.44	676
2720.32	720
2721.2	672
2722.08	674
2722.95	670
2723.83	678
2724.71	660
2725.59	638
2726.46	680
2727.34	656
2728.22	640
2729.09	678
2729.97	646
2730.85	644
2731.72	660
2732.6	646
2733.47	648
2734.35	628
2735.23	678
2736.1	662
2736.98	658
2737.85	614
2738.73	642
2739.6	628
2740.48	634
2741.35	618
2742.23	630
2743.1	616
2743.98	620
2744.85	620
2745.72	648
2746.6	600
2747.47	610
2748.35	604
2749.22	626
2750.09	596
2750.97	626
2751.84	604
2752.71	606
2753.59	618
2754.46	614
2755.33	582
2756.2	564
2757.08	576
2757.95	606
2758.82	620
2759.69	592
2760.57	596
2761.44	604
2762.31	568
2763.18	586
2764.05	584
2764.92	562
2765.79	572
2766.67	594
2767.54	582
2768.41	572
2769.28	562
2770.15	574
2771.02	548
2771.89	572
2772.76	568
2773.63	562
2774.5	558
2775.37	562
2776.24	564
2777.11	562
2777.98	574
2778.85	542
2779.72	558
2780.59	548
2781.46	534
2782.32	544
2783.19	576
2784.06	526
2784.93	520
2785.8	524
2786.67	526
2787.53	548
2788.4	534
2789.27	526
2790.14	526
2791.01	516
2791.87	506
2792.74	520
2793.61	534
2794.47	506
2795.34	544
2796.21	522
2797.07	520
2797.94	516
2798.81	564
2799.67	506
2800.54	526
2801.41	524
2802.27	492
2803.14	520
2804	504
2804.87	514
2805.74	510
2806.6	528
2807.47	496
2808.33	514
2809.2	498
2810.06	484
2810.93	502
2811.79	494
2812.65	478
2813.52	476
2814.38	490
2815.25	490
2816.11	488
2816.98	508
2817.84	494
2818.7	472
2819.56	500
2820.43	486
2821.29	490
2822.16	456
2823.02	466
2823.88	458
2824.74	460
2825.61	464
2826.47	468
2827.33	450
2828.19	456
2829.05	472
2829.92	474
2830.78	484
2831.64	458
2832.5	444
2833.36	444
2834.23	470
2835.09	436
2835.95	444
2836.81	452
2837.67	454
2838.53	446
2839.39	432
2840.25	428
2841.11	418
2841.97	426
2842.83	434
2843.69	436
2844.55	428
2845.41	456
2846.27	422
2847.13	434
2847.99	440
2848.85	414
2849.71	402
2850.57	438
2851.43	430
2852.28	430
2853.14	422
2854	414
2854.86	396
2855.72	424
2856.58	416
2857.43	452
2858.29	408
2859.15	406
2860.01	412
2860.86	398
2861.72	410
2862.58	416
2863.44	400
2864.29	406
2865.15	400
2866.01	408
2866.86	426
2867.72	376
2868.58	400
2869.43	392
2870.29	398
2871.14	386
2872	382
2872.86	398
2873.71	391
2874.57	384
2875.42	404
2876.28	392
2877.13	380
2877.99	368
2878.84	360
2879.7	372
2880.55	392
2881.41	382
2882.26	376
2883.11	378
2883.97	368
2884.82	372
2885.68	374
2886.53	358
2887.39	354
2888.24	352
2889.09	366
2889.94	352
2890.8	358
2891.65	372
2892.5	378
2893.36	354
2894.21	358
2895.06	348
2895.91	376
2896.77	334
2897.62	356
2898.47	358
2899.32	368
2900.17	338
2901.03	332
2901.88	358
2902.73	350
2903.58	348
2904.43	340
2905.28	346
2906.13	346
2906.98	336
2907.84	366
2908.69	326
2909.54	342
2910.39	330
2911.24	320
2912.09	350
2912.94	336
2913.79	330
2914.64	330
2915.49	334
2916.34	354
2917.19	342
2918.03	324
2918.88	344
2919.73	338
2920.58	332
2921.43	318
2922.28	330
2923.13	306
2923.98	316
2924.82	336
2925.67	324
2926.52	320
2927.37	306
2928.22	312
2929.06	314
2929.91	316
2930.76	334
2931.61	310
2932.45	314
2933.3	320
2934.15	338
2934.99	314
2935.84	314
2936.69	322
2937.53	292
2938.38	302
2939.23	306
2940.07	312
2940.92	318
2941.76	300
2942.61	312
2943.46	324
2944.3	318
2945.15	308
2945.99	294
2946.84	294
2947.68	300
2948.53	300
2949.37	286
2950.22	316
2951.06	296
2951.9	304
2952.75	304
2953.59	302
2954.44	282
2955.28	288
2956.12	314
2956.97	312
2957.81	288
2958.65	288
2959.5	268
2960.34	292
2961.18	284
2962.03	268
2962.87	284
2963.71	282
2964.56	280
2965.4	280
2966.24	306
2967.08	294
2967.92	278
2968.77	296
2969.61	272
2970.45	310
2971.29	280
2972.13	280
2972.97	260
2973.82	280
2974.66	286
2975.5	290
2976.34	284
2977.18	282
2978.02	284
2978.86	270
2979.7	260
2980.54	276
2981.38	280
2982.22	276
2983.06	266
2983.9	282
2984.74	284
2985.58	284
2986.42	252
2987.26	262
2988.1	272
2988.94	280
2989.78	250
2990.61	268
2991.45	270
2992.29	250
2993.13	274
2993.97	264
2994.81	262
2995.64	264
2996.48	254
2997.32	254
2998.16	254
2999	258
2999.83	240
