#Acq. time (s)=	10
#Accumulations=	1
#Range (cm-¹)=	200...3000
#Windows=	3
#Autofocus=	Off
#AutoExposure=	Off
#Spike filter=	Off
#Delay time (s)=	0
#Binning=	1
#Readout mode=	Signal
#DeNoise=	Off
#ICS correction=	Off
#Dark correction=	Off
#Inst. Process=	Off
#Instrument=	LabRAM HR Evol
#Detector=	Syncerity OE
#Objective=	x100_VIS
#Grating=	600 (500nm)
#ND Filter=	0.01%
#Laser=	633nm_Edge
#Hole=	34.9738
#Range=	Visible
#Project=	Omar
#Sample=	03-07-23
#Site=	papal
#Title=	leaf
#Remark=	
#Date=	03.07.2023 17:00
#Acquired=	03.07.2023 17:00:15
201.713	54
202.98	40
204.247	46
205.513	48
206.778	40
208.045	36
209.311	36
210.576	34
211.84	42
213.106	34
214.371	44
215.636	32
216.899	40
218.164	42
219.428	34
220.692	42
221.955	38
223.219	36
224.482	34
225.744	42
227.007	38
228.27	44
229.531	44
230.794	36
232.055	38
233.317	46
234.579	38
235.839	36
237.1	42
238.362	46
239.621	38
240.882	42
242.141	34
243.402	34
244.661	38
245.921	42
247.179	44
248.439	42
249.698	38
250.956	42
252.215	44
253.473	34
254.731	44
255.988	40
257.246	36
258.503	38
259.761	42
261.017	48
262.273	40
263.53	40
264.786	50
266.042	38
267.298	44
268.554	46
269.809	38
271.063	40
272.319	46
273.573	42
274.828	48
276.082	54
277.336	46
278.591	42
279.844	50
281.097	44
282.351	42
283.603	46
284.855	48
286.109	32
287.361	50
288.613	50
289.866	50
291.117	56
292.368	34
293.62	50
294.871	48
296.121	44
297.372	46
298.623	54
299.873	42
301.123	46
302.372	42
303.622	52
304.872	48
306.121	62
307.37	42
308.618	56
309.866	36
311.116	56
312.364	56
313.611	48
314.859	40
316.106	46
317.353	54
318.6	52
319.848	46
321.095	38
322.341	48
323.587	48
324.833	46
326.079	40
327.324	36
328.569	48
329.814	56
331.059	48
332.304	44
333.548	54
334.792	54
336.037	42
337.28	52
338.524	42
339.767	54
341.011	54
342.254	44
343.497	48
344.739	60
345.982	46
347.224	54
348.466	54
349.708	50
350.95	66
352.191	44
353.432	58
354.673	60
355.914	52
357.155	50
358.394	56
359.634	50
360.874	60
362.114	44
363.354	60
364.593	60
365.832	52
367.07	54
368.309	64
369.548	40
370.786	64
372.024	60
373.261	60
374.499	48
375.736	52
376.974	60
378.211	52
379.447	56
380.684	58
381.92	58
383.157	54
384.392	64
385.628	48
386.864	54
388.098	50
389.333	58
390.569	64
391.802	56
393.037	50
394.272	62
395.505	66
396.739	76
397.973	50
399.206	50
400.44	58
401.673	54
402.905	56
404.138	60
405.37	62
406.602	70
407.835	54
409.066	66
410.298	70
411.528	62
412.76	64
413.99	56
415.221	68
416.451	70
417.682	62
418.911	64
420.142	58
421.371	70
422.601	58
423.83	70
425.059	66
426.288	62
427.517	60
428.745	66
429.974	68
431.201	62
432.43	86
433.657	74
434.883	70
436.111	72
437.338	72
438.565	70
439.791	74
441.017	74
442.244	66
443.469	66
444.695	68
445.921	66
447.146	62
448.37	66
449.596	66
450.821	74
452.045	72
453.27	74
454.493	78
455.717	62
456.94	68
458.165	68
459.387	68
460.61	80
461.833	58
463.056	76
464.278	76
465.5	66
466.722	86
467.945	72
469.166	80
470.387	70
471.608	72
472.829	76
474.049	82
475.271	70
476.491	82
477.711	80
478.931	66
480.15	78
481.37	74
482.589	74
483.808	72
485.027	84
486.247	72
487.465	62
488.683	72
489.901	72
491.119	80
492.337	80
493.554	86
494.771	76
495.988	78
497.205	72
498.422	72
499.638	88
500.854	86
502.07	74
503.286	74
504.502	72
505.717	90
506.933	76
508.148	86
509.363	86
510.577	76
511.792	90
513.005	84
514.219	82
515.433	78
516.647	92
517.86	84
519.073	98
520.287	90
521.5	80
522.711	90
523.924	84
525.136	82
526.348	88
527.56	80
528.772	76
529.982	78
531.194	84
532.405	100
533.616	90
534.825	88
536.036	84
537.246	92
538.457	100
539.665	80
540.875	98
542.085	86
543.294	98
544.502	98
545.712	102
546.92	90
548.128	96
549.336	106
550.545	98
551.751	94
552.959	92
554.167	100
555.373	88
556.581	94
557.788	92
558.994	92
560.2	90
561.406	96
562.612	90
563.817	98
565.023	88
566.229	100
567.433	98
568.639	94
569.843	98
571.048	112
572.251	108
573.456	116
574.659	96
575.863	92
577.066	98
578.27	90
579.472	100
580.676	92
581.878	92
583.081	98
584.283	98
585.484	98
586.687	108
587.888	112
589.09	108
590.291	96
591.493	110
592.693	102
593.893	106
595.094	106
596.294	106
597.494	110
598.694	104
599.894	106
601.093	96
602.293	102
603.491	106
604.69	100
605.889	106
607.087	108
608.285	118
609.483	116
610.682	128
611.879	104
613.076	116
614.273	106
615.471	106
616.667	114
617.864	112
619.06	112
620.256	108
621.453	132
622.648	128
623.844	126
625.039	118
626.234	122
627.429	114
628.625	114
629.819	114
631.013	122
632.208	118
633.401	110
634.595	114
635.789	118
636.982	126
638.175	130
639.369	130
640.562	120
641.755	132
642.947	122
644.139	154
645.331	114
646.523	136
647.715	138
648.906	126
650.097	136
651.288	136
652.479	136
653.67	140
654.86	130
656.051	134
657.241	134
658.429	144
659.619	148
660.808	122
661.998	140
663.187	126
664.376	132
665.565	136
666.753	154
667.942	148
669.13	148
670.317	154
671.505	164
672.692	148
673.88	132
675.067	148
676.254	142
677.44	152
678.627	142
679.813	164
681	152
682.184	158
683.37	152
684.556	148
685.742	144
686.926	148
688.111	156
689.296	158
690.481	160
691.664	154
692.849	156
694.033	152
695.216	172
696.4	166
697.584	156
698.766	162
699.949	160
701.133	172
702.314	176
703.497	170
704.678	144
705.861	162
707.043	164
708.224	172
709.406	162
710.586	148
711.768	160
712.949	170
714.129	184
715.31	172
716.489	180
717.67	182
718.849	188
720.029	170
721.208	182
722.388	174
723.566	184
724.746	182
725.924	184
727.103	176
728.28	192
729.458	176
730.636	190
731.814	174
732.992	204
734.168	174
735.345	192
736.523	202
737.699	200
738.876	194
740.052	208
741.227	192
742.404	204
743.579	206
744.754	192
745.931	204
747.105	194
748.28	182
749.455	212
750.629	214
751.803	224
752.977	204
754.152	200
755.325	218
756.499	218
757.672	228
758.846	210
760.018	210
761.191	220
762.363	228
763.535	202
764.708	224
765.88	214
767.052	228
768.223	228
769.394	218
770.565	224
771.737	212
772.908	224
774.078	208
775.249	230
776.419	228
777.589	218
778.758	218
779.928	232
781.097	224
782.266	226
783.435	236
784.604	216
785.773	238
786.941	236
788.11	246
789.278	254
790.446	262
791.613	238
792.781	264
793.948	238
795.115	240
796.282	260
797.449	264
798.616	252
799.782	262
800.948	268
802.115	274
803.28	252
804.446	286
805.612	250
806.777	274
807.941	262
809.106	264
810.271	276
811.435	262
812.6	274
813.764	276
814.927	296
816.091	274
817.254	276
818.418	278
819.581	286
820.743	290
821.906	314
823.069	286
824.232	280
825.393	268
826.555	288
827.717	304
828.879	304
830.039	300
831.201	342
832.362	292
833.522	300
834.683	300
835.844	298
837.003	310
838.164	296
839.324	302
840.483	312
841.643	310
842.801	322
843.961	336
845.12	350
846.278	334
847.437	322
848.594	326
849.753	308
850.91	332
852.069	322
853.227	334
854.383	342
855.541	352
856.697	362
857.855	354
859.011	350
860.168	342
861.323	346
862.48	368
863.635	356
864.79	376
865.946	384
867.101	368
868.257	366
869.411	362
870.567	372
871.721	374
872.874	344
874.029	374
875.183	362
876.336	388
877.49	378
878.643	386
879.796	394
880.95	384
882.102	376
883.254	384
884.407	414
885.559	366
886.711	382
887.862	376
889.015	386
890.166	400
891.317	384
892.467	416
893.619	386
894.77	396
895.92	440
897.07	404
898.221	436
899.371	414
900.52	424
901.669	400
902.819	422
903.968	420
905.116	440
906.266	410
907.415	402
908.563	430
909.711	442
910.859	438
912.007	438
913.154	414
914.301	446
915.449	444
916.596	450
917.742	450
918.889	446
920.036	456
921.183	454
922.329	448
923.475	454
924.621	488
925.765	460
926.911	458
928.056	490
929.201	458
930.346	482
931.49	486
932.635	480
933.779	504
934.924	454
936.068	462
937.211	464
938.355	496
939.498	464
940.64	498
941.784	508
942.926	502
944.069	514
945.212	506
946.354	510
947.495	506
948.637	510
949.779	504
950.921	538
952.062	524
953.202	518
954.344	508
955.484	544
956.625	544
957.765	528
958.905	548
960.045	566
961.184	542
962.324	526
963.464	538
964.604	558
965.742	562
966.881	548
968.02	546
969.158	568
970.296	602
971.434	590
972.572	566
973.71	590
974.847	556
975.985	578
977.121	586
978.259	602
979.396	562
980.532	590
981.669	612
982.804	624
983.941	624
985.076	624
986.212	580
987.347	592
988.483	612
989.617	634
990.753	618
991.887	616
993.022	618
994.156	612
995.29	602
996.424	636
997.558	658
998.692	626
999.825	638
1000.96	628
1002.09	658
1003.22	648
1004.36	676
1005.49	634
1006.62	674
1007.75	674
1008.89	674
1010.02	670
1011.15	696
1012.28	658
1013.41	660
1014.54	672
1015.67	684
1016.8	714
1017.93	696
1019.07	680
1020.19	686
1021.32	686
1022.45	698
1023.58	720
1024.71	740
1025.84	732
1026.97	732
1028.1	722
1029.23	738
1030.36	696
1031.49	736
1032.61	744
1033.74	744
1034.87	770
1036	742
1037.12	742
1038.25	770
1039.38	766
1040.5	780
1041.63	798
1042.76	752
1043.88	770
1045.01	764
1046.14	786
1047.26	794
1048.39	792
1049.51	792
1050.64	810
1051.76	802
1052.89	800
1054.01	812
1055.14	832
1056.26	840
1057.38	822
1058.51	840
1059.63	848
1060.75	828
1061.88	837
1063	846
1064.12	856
1065.25	844
1066.37	878
1067.49	850
1068.61	862
1069.73	852
1070.86	878
1071.98	862
1073.1	888
1074.22	868
1075.34	886
1076.46	854
1077.58	918
1078.7	884
1079.82	910
1080.94	882
1082.06	894
1083.18	934
1084.3	888
1085.42	908
1086.54	894
1087.66	930
1088.78	938
1089.9	920
1091.02	924
1092.14	906
1093.25	944
1094.37	902
1095.49	926
1096.61	906
1097.72	904
1098.84	980
1099.96	904
1101.08	944
1102.19	952
1103.31	946
1104.43	942
1105.54	954
1106.66	964
1107.77	934
1108.89	928
1110	956
1111.12	936
1112.23	998
1113.35	968
1114.46	888
1115.58	954
1116.69	958
1117.81	1000
1118.92	988
1120.03	970
1121.15	998
1122.26	1014
1123.37	1010
1124.49	994
1125.6	940
1126.71	1002
1127.83	962
1128.94	976
1130.05	1014
1131.16	1002
1132.27	1064
1133.39	1006
1134.5	1018
1135.61	962
1136.72	1002
1137.83	1024
1138.94	1018
1140.05	1078
1141.16	1014
1142.27	1046
1143.38	1042
1144.49	1026
1145.6	1016
1146.71	1052
1147.82	1066
1148.93	1062
1150.04	998
1151.15	1064
1152.26	1052
1153.36	1086
1154.47	1054
1155.58	1034
1156.69	1050
1157.8	1082
1158.9	1052
1160.01	1056
1161.12	1076
1162.22	1108
1163.33	1082
1164.44	1114
1165.54	1130
1166.65	1070
1167.76	1094
1168.86	1092
1169.97	1114
1171.07	1080
1172.18	1072
1173.28	1072
1174.39	1090
1175.49	1076
1176.6	1084
1177.7	1076
1178.81	1102
1179.91	1054
1181.02	1072
1182.12	1072
1183.22	1046
1184.33	1084
1185.43	1080
1186.53	1062
1187.63	1036
1188.74	1074
1189.84	1088
1190.94	1066
1192.04	1052
1193.15	1066
1194.25	1058
1195.35	1046
1196.45	1066
1197.55	1062
1198.65	1056
1199.75	1094
1200.85	1054
1201.95	1042
1203.05	1046
1204.16	1064
1205.25	1068
1206.35	1072
1207.45	1088
1208.55	1016
1209.65	1048
1210.75	1102
1211.85	1068
1212.95	1044
1214.05	1024
1215.15	1058
1216.24	1028
1217.34	1040
1218.44	1022
1219.54	1010
1220.64	1006
1221.73	1048
1222.83	994
1223.93	1008
1225.02	1020
1226.12	996
1227.22	1038
1228.31	998
1229.41	974
1230.5	1050
1231.6	994
1232.7	1004
1233.79	1018
1234.89	1016
1235.98	978
1237.08	952
1238.17	968
1239.26	998
1240.36	998
1241.45	990
1242.55	970
1243.64	1002
1244.73	996
1245.83	984
1246.92	980
1248.01	934
1249.11	960
1250.2	1000
1251.29	982
1252.38	978
1253.48	948
1254.57	976
1255.66	972
1256.75	944
1257.84	944
1258.93	942
1260.03	962
1261.12	932
1262.21	930
1263.3	964
1264.39	900
1265.48	924
1266.57	928
1267.66	904
1268.75	960
1269.84	948
1270.93	936
1272.02	894
1273.11	968
1274.19	922
1275.28	922
1276.37	908
1277.46	928
1278.55	884
1279.64	910
1280.72	890
1281.81	872
1282.9	868
1283.98	889.71
1285.07	904.852
1286.16	855.434
1287.25	841.308
1288.33	893.937
1289.42	835.694
1290.5	895.177
1291.59	855.873
1292.68	863
1293.76	857.032
1294.85	834.105
1295.93	843.036
1297.02	841.984
1298.1	854.668
1299.19	845.737
1300.27	837.429
1301.36	834.913
1302.44	817.626
1303.53	831.982
1304.61	847.031
1305.69	827.417
1306.78	809.137
1307.86	790.258
1308.94	806.089
1310.03	801.318
1311.11	782.733
1312.19	780.851
1313.27	784.563
1314.36	769.849
1315.44	778.056
1316.52	793.02
1317.6	752.974
1318.68	771.734
1319.77	735.061
1320.85	737.34
1321.93	743.284
1323.01	742.246
1324.09	753.178
1325.17	755.31
1326.25	752.854
1327.33	735.215
1328.41	720.462
1329.49	720.949
1330.57	698.259
1331.65	728.279
1332.73	702.611
1333.81	720.671
1334.89	706.098
1335.97	691.295
1337.04	694.549
1338.12	714.772
1339.2	701.096
1340.28	691.107
1341.36	700.387
1342.44	682.779
1343.51	692.322
1344.59	686.031
1345.67	700.553
1346.75	680.875
1347.82	670.868
1348.9	662.183
1349.98	678.651
1351.05	671.538
1352.13	656.04
1353.2	637.014
1354.28	629.299
1355.36	652.373
1356.43	621.454
1357.51	668.954
1358.58	642.592
1359.66	628.95
1360.73	647.397
1361.81	651.807
1362.88	645.981
1363.96	610.66
1365.03	625.144
1366.1	613.926
1367.18	607.184
1368.25	589.428
1369.33	614.642
1370.4	608.909
1371.47	600.946
1372.54	602.13
1373.62	600.622
1374.69	589.763
1375.76	592.079
1376.83	589.51
1377.91	606.427
1378.98	571.912
1380.05	558.541
1381.12	603.993
1382.19	550.009
1383.26	557.22
1384.34	550.928
1385.41	555.512
1386.48	576.078
1387.55	563.026
1388.62	533.817
1389.69	547.46
1390.76	558.928
1391.83	549.839
1392.9	553.502
1393.02	554
1394.1	534
1395.17	580
1396.25	528
1397.32	552
1398.4	572
1399.47	518
1400.55	566
1401.62	532
1402.69	542
1403.77	502
1404.84	518
1405.91	520
1406.99	524
1408.06	534
1409.13	524
1410.2	528
1411.27	528
1412.35	512
1413.42	508
1414.49	516
1415.56	516
1416.63	512
1417.7	514
1418.78	508
1419.85	478
1420.92	486
1421.99	506
1423.06	514
1424.13	488
1425.2	512
1426.27	488
1427.34	502
1428.41	482
1429.48	488
1430.55	460
1431.61	472
1432.68	464
1433.75	482
1434.82	510
1435.89	458
1436.96	482
1438.02	494
1439.09	500
1440.16	472
1441.23	478
1442.3	488
1443.36	474
1444.43	472
1445.5	452
1446.56	446
1447.63	474
1448.7	454
1449.76	452
1450.83	442
1451.89	462
1452.96	456
1454.02	464
1455.09	472
1456.15	456
1457.22	470
1458.28	460
1459.35	448
1460.41	444
1461.48	454
1462.54	460
1463.61	430
1464.67	462
1465.73	434
1466.8	432
1467.86	434
1468.92	430
1469.98	412
1471.05	430
1472.11	400
1473.17	426
1474.24	432
1475.3	446
1476.36	434
1477.42	424
1478.48	420
1479.54	446
1480.6	402
1481.67	414
1482.73	428
1483.79	422
1484.85	418
1485.91	428
1486.97	440
1488.03	424
1489.09	414
1490.15	436
1491.21	416
1492.27	404
1493.33	418
1494.38	412
1495.44	406
1496.5	428
1497.56	394
1498.62	408
1499.68	412
1500.74	404
1501.79	410
1502.85	404
1503.91	384
1504.97	386
1506.02	408
1507.08	412
1508.14	400
1509.2	398
1510.25	412
1511.31	394
1512.36	400
1513.42	394
1514.48	414
1515.53	358
1516.59	388
1517.64	386
1518.7	380
1519.75	388
1520.81	378
1521.86	368
1522.92	388
1523.97	390
1525.02	364
1526.08	370
1527.13	346
1528.19	374
1529.24	388
1530.29	388
1531.35	370
1532.4	372
1533.45	388
1534.51	394
1535.56	354
1536.61	360
1537.66	372
1538.72	352
1539.77	384
1540.82	370
1541.87	364
1542.92	372
1543.97	370
1545.02	346
1546.08	364
1547.13	386
1548.18	374
1549.23	354
1550.28	344
1551.33	344
1552.38	356
1553.43	352
1554.48	368
1555.53	342
1556.57	336
1557.62	348
1558.67	334
1559.72	314
1560.77	342
1561.82	356
1562.87	332
1563.92	358
1564.96	334
1566.01	344
1567.06	356
1568.11	324
1569.15	332
1570.2	352
1571.25	350
1572.29	344
1573.34	338
1574.39	344
1575.43	332
1576.48	328
1577.53	352
1578.57	320
1579.62	336
1580.66	348
1581.71	348
1582.75	364
1583.8	342
1584.84	318
1585.89	336
1586.93	334
1587.98	320
1589.02	324
1590.06	326
1591.11	310
1592.15	334
1593.2	324
1594.24	332
1595.28	314
1596.33	300
1597.37	350
1598.41	314
1599.45	330
1600.5	320
1601.54	330
1602.58	320
1603.62	322
1604.66	306
1605.7	326
1606.75	322
1607.79	310
1608.83	292
1609.87	322
1610.91	296
1611.95	300
1612.99	314
1614.03	312
1615.07	322
1616.11	316
1617.15	316
1618.19	318
1619.23	326
1620.27	320
1621.31	314
1622.35	326
1623.39	320
1624.43	330
1625.46	312
1626.5	322
1627.54	338
1628.58	328
1629.62	310
1630.65	296
1631.69	316
1632.73	292
1633.77	300
1634.8	306
1635.84	294
1636.88	276
1637.91	304
1638.95	308
1639.99	298
1641.02	310
1642.06	310
1643.09	292
1644.13	296
1645.16	306
1646.2	296
1647.23	310
1648.27	304
1649.3	312
1650.34	298
1651.37	310
1652.41	318
1653.44	304
1654.47	292
1655.51	282
1656.54	288
1657.57	288
1658.61	320
1659.64	306
1660.67	296
1661.71	304
1662.74	298
1663.77	306
1664.81	302
1665.84	280
1666.87	284
1667.9	300
1668.93	296
1669.96	302
1671	296
1672.03	288
1673.06	286
1674.09	302
1675.12	278
1676.15	316
1677.18	290
1678.21	282
1679.24	300
1680.27	280
1681.3	272
1682.33	284
1683.36	306
1684.39	298
1685.42	306
1686.45	288
1687.47	298
1688.5	292
1689.53	304
1690.56	286
1691.59	286
1692.62	298
1693.64	280
1694.67	286
1695.7	286
1696.73	280
1697.75	300
1698.78	274
1699.81	288
1700.83	284
1701.86	290
1702.89	292
1703.91	286
1704.94	292
1705.97	266
1706.99	296
1708.02	290
1709.04	276
1710.07	290
1711.09	276
1712.12	296
1713.14	294
1714.17	300
1715.19	266
1716.22	294
1717.24	284
1718.26	294
1719.29	280
1720.31	266
1721.33	270
1722.36	276
1723.38	272
1724.4	284
1725.43	294
1726.45	260
1727.47	276
1728.49	292
1729.52	272
1730.54	270
1731.56	306
1732.58	276
1733.6	298
1734.63	266
1735.65	274
1736.67	278
1737.69	280
1738.71	266
1739.73	266
1740.75	286
1741.77	268
1742.79	294
1743.81	286
1744.83	254
1745.85	282
1746.87	288
1747.89	272
1748.91	280
1749.93	276
1750.95	264
1751.97	276
1752.98	294
1754	240
1755.02	274
1756.04	266
1757.06	276
1758.07	276
1759.09	284
1760.11	282
1761.13	284
1762.14	276
1763.16	278
1764.18	272
1765.19	264
1766.21	292
1767.23	282
1768.24	268
1769.26	264
1770.28	274
1771.29	290
1772.31	286
1773.32	264
1774.34	274
1775.35	270
1776.37	278
1777.38	292
1778.4	276
1779.41	258
1780.43	280
1781.44	268
1782.45	270
1783.47	254
1784.48	276
1785.49	274
1786.51	252
1787.52	264
1788.53	266
1789.55	258
1790.56	250
1791.57	262
1792.58	268
1793.6	278
1794.61	262
1795.62	278
1796.63	284
1797.64	278
1798.66	266
1799.67	274
1800.68	274
1801.69	284
1802.7	276
1803.71	280
1804.72	280
1805.73	262
1806.74	274
1807.75	278
1808.76	262
1809.77	250
1810.78	270
1811.79	250
1812.8	270
1813.81	274
1814.82	276
1815.83	262
1816.84	280
1817.84	282
1818.85	266
1819.86	276
1820.87	266
1821.88	268
1822.88	250
1823.89	256
1824.9	274
1825.91	258
1826.91	278
1827.92	264
1828.93	250
1829.93	282
1830.94	268
1831.95	276
1832.95	272
1833.96	278
1834.97	268
1835.97	280
1836.98	264
1837.98	260
1838.99	258
1839.99	264
1841	258
1842	278
1843.01	274
1844.01	258
1845.02	242
1846.02	260
1847.02	272
1848.03	280
1849.03	272
1850.03	260
1851.04	242
1852.04	252
1853.04	256
1854.05	250
1855.05	254
1856.05	256
1857.05	240
1858.06	270
1859.06	276
1860.06	252
1861.06	264
1862.06	280
1863.07	260
1864.07	250
1865.07	250
1866.07	280
1867.07	252
1868.07	260
1869.07	258
1870.07	250
1871.07	260
1872.07	264
1873.07	272
1874.07	278
1875.07	260
1876.07	272
1877.07	264
1878.07	252
1879.07	246
1880.07	250
1881.07	254
1882.07	246
1883.06	258
1884.06	260
1885.06	262
1886.06	260
1887.06	276
1888.05	248
1889.05	266
1890.05	252
1891.05	254
1892.04	266
1893.04	238
1894.04	242
1895.03	260
1896.03	274
1897.03	248
1898.02	248
1899.02	240
1900.01	252
1901.01	244
1902	260
1903	252
1903.99	250
1904.99	250
1905.98	250
1906.98	254
1907.97	264
1908.97	274
1909.96	256
1910.96	252
1911.95	250
1912.94	254
1913.94	236
1914.93	256
1915.93	256
1916.92	252
1917.91	282
1918.9	256
1919.9	254
1920.89	252
1921.88	254
1922.87	248
1923.87	238
1924.86	254
1925.85	278
1926.84	252
1927.83	260
1928.82	250
1929.82	250
1930.81	252
1931.8	262
1932.79	248
1933.78	252
1934.77	268
1935.76	262
1936.75	244
1937.74	250
1938.73	260
1939.72	246
1940.71	266
1941.7	252
1942.69	256
1943.68	252
1944.67	254
1945.65	258
1946.64	240
1947.63	256
1948.62	236
1949.61	248
1950.6	242
1951.58	258
1952.57	250
1953.56	240
1954.55	244
1955.53	258
1956.52	260
1957.51	252
1958.5	244
1959.48	258
1960.47	268
1961.45	244
1962.44	246
1963.43	230
1964.41	250
1965.4	256
1966.38	234
1967.37	274
1968.35	262
1969.34	258
1970.32	246
1971.31	238
1972.29	260
1973.28	244
1974.26	266
1975.25	264
1976.23	252
1977.22	248
1978.2	274
1979.18	266
1980.17	238
1981.15	264
1982.13	236
1983.12	226
1984.1	258
1985.08	232
1986.06	254
1987.05	254
1988.03	252
1989.01	256
1989.99	264
1990.97	268
1991.96	240
1992.94	252
1993.92	242
1994.9	222
1995.88	256
1996.86	246
1997.84	232
1998.82	256
1999.8	264
2000.78	240
2001.76	252
2002.74	258
2003.72	238
2004.7	256
2005.68	248
2006.66	242
2007.64	250
2008.62	248
2009.6	260
2010.58	270
2011.56	234
2012.54	254
2013.51	252
2014.49	246
2015.47	252
2016.45	260
2017.43	246
2018.4	248
2019.38	236
2020.36	260
2021.34	234
2022.31	244
2023.29	242
2024.27	246
2025.24	252
2026.22	252
2027.2	240
2028.17	249
2029.15	258
2030.12	250
2031.1	262
2032.07	236
2033.05	250
2034.03	262
2035	226
2035.98	262
2036.95	252
2037.93	246
2038.9	254
2039.87	256
2040.85	248
2041.82	226
2042.8	260
2043.77	240
2044.74	252
2045.72	240
2046.69	244
2047.66	254
2048.64	250
2049.61	244
2050.58	244
2051.55	246
2052.53	266
2053.5	262
2054.47	248
2055.44	244
2056.41	236
2057.39	270
2058.36	238
2059.33	232
2060.3	252
2061.27	242
2062.24	224
2063.21	232
2064.18	228
2065.15	224
2066.12	252
2067.09	248
2068.06	232
2069.03	246
2070	236
2070.97	244
2071.94	260
2072.91	248
2073.88	250
2074.85	238
2075.82	242
2076.79	254
2077.76	262
2078.73	258
2079.69	240
2080.66	256
2081.63	234
2082.6	246
2083.56	244
2084.53	252
2085.5	224
2086.47	236
2087.43	250
2088.4	218
2089.37	254
2090.33	234
2091.3	244
2092.27	242
2093.23	224
2094.2	228
2095.17	236
2096.13	244
2097.1	252
2098.06	252
2099.03	238
2099.99	242
2100.96	250
2101.92	238
2102.89	242
2103.85	240
2104.82	242
2105.78	232
2106.74	248
2107.71	248
2108.67	238
2109.64	248
2110.6	246
2111.56	252
2112.53	232
2113.49	234
2114.45	240
2115.41	240
2116.38	254
2117.34	238
2118.3	248
2119.26	232
2120.23	230
2121.19	232
2122.15	250
2123.11	242
2124.07	234
2125.03	234
2126	236
2126.96	254
2127.92	232
2128.88	226
2129.84	242
2130.8	236
2131.76	232
2132.72	236
2133.68	250
2134.64	242
2135.6	230
2136.56	240
2137.52	232
2138.48	234
2139.44	246
2140.4	246
2141.35	242
2142.31	216
2143.27	270
2144.23	230
2145.19	260
2146.15	216
2147.1	210
2148.06	254
2149.02	236
2149.98	248
2150.94	212
2151.89	234
2152.85	234
2153.81	244
2154.76	244
2155.72	230
2156.68	234
2157.63	260
2158.59	222
2159.55	234
2160.5	244
2161.46	234
2162.41	240
2163.37	252
2164.32	226
2165.28	224
2166.23	240
2167.19	236
2168.14	236
2169.1	228
2170.05	236
2171.01	242
2171.96	228
2172.91	252
2173.87	228
2174.82	230
2175.78	238
2176.73	240
2177.68	242
2178.64	240
2179.59	242
2180.54	240
2181.49	234
2182.45	224
2183.4	222
2184.35	218
2185.3	232
2186.26	210
2187.21	248
2188.16	232
2189.11	242
2190.06	240
2191.01	228
2191.96	224
2192.92	230
2193.87	240
2194.82	210
2195.77	248
2196.72	232
2197.67	230
2198.62	246
2199.57	216
2200.52	218
2201.47	250
2202.42	246
2203.37	220
2204.32	220
2205.27	230
2206.22	220
2207.16	228
2208.11	236
2209.06	224
2210.01	222
2210.96	232
2211.91	216
2212.85	228
2213.8	224
2214.75	232
2215.7	220
2216.64	232
2217.59	234
2218.54	232
2219.49	232
2220.43	220
2221.38	222
2222.33	228
2223.27	235.959
2224.22	216.147
2225.16	216.171
2226.11	211.032
2227.06	233.744
2228	234.103
2228.95	220.798
2229.89	204.97
2230.84	251.432
2231.78	239.18
2232.73	210.925
2233.67	223.079
2234.62	240.001
2235.56	208.661
2236.51	235.917
2237.45	229.204
2238.4	237
2239.34	224.62
2240.28	219.988
2241.23	221.719
2242.17	229.076
2243.11	227.487
2244.06	232.354
2245	214.11
2245.94	228.225
2246.89	225.93
2247.83	225.011
2248.77	219.276
2249.71	227.375
2250.66	219.036
2251.6	224.986
2252.54	221.163
2253.48	230.571
2254.42	222.746
2255.37	224.62
2256.31	225.949
2257.25	222.286
2258.19	226.347
2259.13	233.69
2260.07	233.414
2261.01	217.132
2261.95	238.417
2262.89	218.183
2263.83	225.56
2264.77	221.63
2265.71	227.63
2266.65	222.14
2267.59	222.334
2268.53	229.331
2269.47	223.617
2270.41	220.515
2271.35	216.256
2272.29	215.965
2273.23	205.1
2274.17	230.476
2275.1	214.035
2276.04	220.761
2276.98	225.241
2277.92	216.87
2278.86	216.641
2279.8	226.631
2280.73	223.716
2281.67	221.408
2282.61	221.064
2283.55	230.027
2284.48	218.925
2285.42	217.297
2286.36	217.295
2287.29	209.138
2288.23	217.206
2289.17	215.604
2290.1	221.54
2291.04	214.7
2291.98	208.119
2292.91	214.767
2293.85	221.826
2294.78	211.118
2295.72	216.449
2296.65	218.065
2297.59	204.046
2298.52	210.4
2299.46	218.154
2300.39	224.15
2301.33	221.141
2302.26	213.416
2303.2	224.813
2304.13	222.525
2305.06	226.093
2306	218.125
2306.93	211.494
2307.87	218.333
2308.8	208.363
2309.73	213.378
2310.67	220.917
2311.6	218.598
2312.53	222.15
2313.46	222.289
2314.4	218.688
2315.33	199.319
2316.26	201.817
2316.69	218
2317.62	210
2318.56	214
2319.5	208
2320.43	200
2321.37	216
2322.31	210
2323.24	208
2324.18	212
2325.12	212
2326.05	204
2326.99	208
2327.92	206
2328.86	214
2329.79	214
2330.73	214
2331.66	222
2332.6	222
2333.53	206
2334.47	208
2335.4	216
2336.34	224
2337.27	210
2338.2	196
2339.14	198
2340.07	200
2341.01	224
2341.94	210
2342.87	186
2343.81	186
2344.74	224
2345.67	200
2346.6	216
2347.54	206
2348.47	214
2349.4	212
2350.33	214
2351.27	212
2352.2	216
2353.13	200
2354.06	192
2354.99	224
2355.93	224
2356.86	216
2357.79	208
2358.72	192
2359.65	200
2360.58	196
2361.51	192
2362.44	188
2363.37	200
2364.3	192
2365.23	202
2366.16	194
2367.09	190
2368.02	192
2368.95	190
2369.88	194
2370.81	204
2371.74	188
2372.67	194
2373.6	190
2374.52	200
2375.45	180
2376.38	192
2377.31	188
2378.24	208
2379.17	222
2380.09	198
2381.02	202
2381.95	176
2382.88	208
2383.8	202
2384.73	192
2385.66	194
2386.58	180
2387.51	202
2388.44	208
2389.36	190
2390.29	206
2391.22	194
2392.14	192
2393.07	206
2393.99	198
2394.92	194
2395.85	188
2396.77	194
2397.7	190
2398.62	196
2399.55	172
2400.47	186
2401.4	176
2402.32	202
2403.25	188
2404.17	186
2405.09	188
2406.02	190
2406.94	178
2407.86	178
2408.79	178
2409.71	172
2410.63	202
2411.56	184
2412.48	202
2413.4	192
2414.33	172
2415.25	196
2416.17	182
2417.09	190
2418.02	198
2418.94	186
2419.86	186
2420.78	176
2421.7	188
2422.63	190
2423.55	188
2424.47	192
2425.39	184
2426.31	178
2427.23	196
2428.15	176
2429.07	196
2429.99	168
2430.91	204
2431.83	186
2432.75	194
2433.67	200
2434.59	182
2435.51	176
2436.43	182
2437.35	174
2438.27	204
2439.19	184
2440.11	194
2441.03	182
2441.95	176
2442.86	176
2443.78	168
2444.7	188
2445.62	180
2446.54	162
2447.46	188
2448.37	172
2449.29	176
2450.21	176
2451.13	172
2452.04	164
2452.96	172
2453.88	156
2454.79	186
2455.71	172
2456.63	186
2457.54	178
2458.46	166
2459.38	178
2460.29	168
2461.21	182
2462.12	176
2463.04	184
2463.95	182
2464.87	170
2465.78	164
2466.7	172
2467.61	160
2468.53	168
2469.44	168
2470.36	178
2471.27	174
2472.19	174
2473.1	162
2474.01	166
2474.93	154
2475.84	164
2476.76	170
2477.67	174
2478.58	180
2479.5	158
2480.41	162
2481.32	158
2482.23	168
2483.15	152
2484.06	158
2484.97	170
2485.88	168
2486.8	166
2487.71	156
2488.62	150
2489.53	156
2490.44	150
2491.35	154
2492.26	166
2493.18	142
2494.09	156
2495	156
2495.91	160
2496.82	158
2497.73	176
2498.64	178
2499.55	166
2500.46	156
2501.37	142
2502.28	150
2503.19	158
2504.1	164
2505.01	158
2505.92	148
2506.83	148
2507.74	148
2508.65	170
2509.55	164
2510.46	164
2511.37	152
2512.28	140
2513.19	150
2514.09	150
2515	160
2515.91	142
2516.82	144
2517.73	162
2518.63	156
2519.54	138
2520.45	148
2521.35	150
2522.26	162
2523.17	152
2524.07	146
2524.98	146
2525.89	154
2526.79	156
2527.7	152
2528.6	150
2529.51	152
2530.42	148
2531.32	158
2532.23	156
2533.13	152
2534.04	156
2534.94	158
2535.85	140
2536.75	152
2537.66	148
2538.56	134
2539.47	148
2540.37	134
2541.27	154
2542.18	138
2543.08	146
2543.98	134
2544.89	160
2545.79	138
2546.7	132
2547.6	134
2548.5	134
2549.4	130
2550.31	142
2551.21	138
2552.11	168
2553.01	134
2553.92	122
2554.82	144
2555.72	134
2556.62	150
2557.52	150
2558.42	134
2559.33	152
2560.23	144
2561.13	130
2562.03	150
2562.93	146
2563.83	148
2564.73	146
2565.63	144
2566.53	148
2567.43	154
2568.33	138
2569.23	126
2570.13	138
2571.03	132
2571.93	138
2572.83	134
2573.73	126
2574.63	134
2575.53	136
2576.43	132
2577.33	142
2578.22	130
2579.12	140
2580.02	132
2580.92	132
2581.82	140
2582.72	132
2583.61	146
2584.51	130
2585.41	134
2586.31	122
2587.2	140
2588.1	144
2589	120
2589.89	134
2590.79	124
2591.69	130
2592.58	130
2593.48	132
2594.38	142
2595.27	130
2596.17	122
2597.06	130
2597.96	122
2598.86	120
2599.75	126
2600.65	116
2601.54	138
2602.44	128
2603.33	120
2604.23	132
2605.12	122
2606.02	136
2606.91	126
2607.81	126
2608.7	126
2609.59	128
2610.49	120
2611.38	118
2612.27	116
2613.17	118
2614.06	118
2614.95	118
2615.85	136
2616.74	126
2617.63	128
2618.53	126
2619.42	124
2620.31	118
2621.2	142
2622.1	116
2622.99	122
2623.88	126
2624.77	122
2625.66	128
2626.55	118
2627.45	120
2628.34	124
2629.23	114
2630.12	120
2631.01	124
2631.9	116
2632.79	126
2633.68	136
2634.57	112
2635.46	110
2636.35	114
2637.24	122
2638.13	120
2639.02	128
2639.91	128
2640.8	114
2641.69	118
2642.58	104
2643.47	112
2644.36	112
2645.25	124
2646.14	114
2647.02	126
2647.91	112
2648.8	104
2649.69	104
2650.58	112
2651.46	112
2652.35	124
2653.24	102
2654.13	126
2655.01	112
2655.9	116
2656.79	112
2657.68	120
2658.56	118
2659.45	114
2660.34	132
2661.22	116
2662.11	118
2662.99	116
2663.88	114
2664.77	116
2665.65	102
2666.54	112
2667.42	108
2668.31	106
2669.2	122
2670.08	108
2670.96	112
2671.85	98
2672.73	108
2673.62	124
2674.5	114
2675.39	112
2676.27	106
2677.16	106
2678.04	102
2678.93	102
2679.81	110
2680.69	116
2681.58	118
2682.46	106
2683.34	98
2684.23	110
2685.11	102
2685.99	108
2686.87	120
2687.76	108
2688.64	114
2689.52	110
2690.4	110
2691.28	96
2692.17	118
2693.05	102
2693.93	104
2694.81	108
2695.69	96
2696.57	102
2697.46	94
2698.34	102
2699.22	98
2700.1	94
2700.98	116
2701.86	88
2702.74	92
2703.62	110
2704.5	108
2705.38	112
2706.26	104
2707.14	96
2708.02	106
2708.9	96
2709.78	92
2710.66	88
2711.54	96
2712.42	104
2713.3	102
2714.17	100
2715.05	100
2715.93	100
2716.81	94
2717.69	96
2718.57	84
2719.44	98
2720.32	90
2721.2	108
2722.08	98
2722.95	98
2723.83	104
2724.71	84
2725.59	82
2726.46	104
2727.34	86
2728.22	86
2729.09	104
2729.97	88
2730.85	98
2731.72	84
2732.6	94
2733.47	100
2734.35	90
2735.23	86
2736.1	90
2736.98	92
2737.85	84
2738.73	86
2739.6	92
2740.48	92
2741.35	88
2742.23	96
2743.1	92
2743.98	102
2744.85	96
2745.72	102
2746.6	78
2747.47	104
2748.35	90
2749.22	100
2750.09	90
2750.97	90
2751.84	82
2752.71	80
2753.59	88
2754.46	86
2755.33	98
2756.2	92
2757.08	92
2757.95	80
2758.82	86
2759.69	86
2760.57	78
2761.44	76
2762.31	80
2763.18	88
2764.05	92
2764.92	84
2765.79	78
2766.67	84
2767.54	94
2768.41	92
2769.28	90
2770.15	90
2771.02	88
2771.89	90
2772.76	74
2773.63	88
2774.5	78
2775.37	82
2776.24	92
2777.11	90
2777.98	86
2778.85	84
2779.72	86
2780.59	84
2781.46	86
2782.32	82
2783.19	86
2784.06	88
2784.93	82
2785.8	88
2786.67	76
2787.53	80
2788.4	86
2789.27	84
2790.14	78
2791.01	84
2791.87	86
2792.74	82
2793.61	80
2794.47	82
2795.34	70
2796.21	88
2797.07	84
2797.94	80
2798.81	84
2799.67	74
2800.54	90
2801.41	80
2802.27	78
2803.14	78
2804	70
2804.87	78
2805.74	78
2806.6	84
2807.47	78
2808.33	76
2809.2	76
2810.06	78
2810.93	74
2811.79	84
2812.65	80
2813.52	80
2814.38	88
2815.25	80
2816.11	68
2816.98	70
2817.84	78
2818.7	86
2819.56	76
2820.43	72
2821.29	66
2822.16	64
2823.02	82
2823.88	72
2824.74	84
2825.61	82
2826.47	70
2827.33	66
2828.19	72
2829.05	84
2829.92	76
2830.78	66
2831.64	74
2832.5	86
2833.36	74
2834.23	74
2835.09	82
2835.95	72
2836.81	64
2837.67	74
2838.53	82
2839.39	80
2840.25	74
2841.11	76
2841.97	66
2842.83	66
2843.69	70
2844.55	82
2845.41	66
2846.27	70
2847.13	70
2847.99	70
2848.85	66
2849.71	72
2850.57	76
2851.43	84
2852.28	72
2853.14	60
2854	70
2854.86	66
2855.72	64
2856.58	66
2857.43	68
2858.29	64
2859.15	68
2860.01	74
2860.86	72
2861.72	68
2862.58	68
2863.44	64
2864.29	64
2865.15	66
2866.01	64
2866.86	74
2867.72	84
2868.58	72
2869.43	68
2870.29	80
2871.14	60
2872	64
2872.86	68
2873.71	70
2874.57	72
2875.42	64
2876.28	56
2877.13	68
2877.99	62
2878.84	74
2879.7	72
2880.55	62
2881.41	72
2882.26	70
2883.11	70
2883.97	62
2884.82	62
2885.68	66
2886.53	64
2887.39	64
2888.24	64
2889.09	74
2889.94	70
2890.8	70
2891.65	64
2892.5	66
2893.36	66
2894.21	66
2895.06	66
2895.91	72
2896.77	62
2897.62	58
2898.47	54
2899.32	66
2900.17	58
2901.03	72
2901.88	66
2902.73	62
2903.58	62
2904.43	66
2905.28	60
2906.13	66
2906.98	64
2907.84	52
2908.69	66
2909.54	64
2910.39	56
2911.24	60
2912.09	64
2912.94	54
2913.79	48
2914.64	60
2915.49	68
2916.34	68
2917.19	62
2918.03	62
2918.88	68
2919.73	64
2920.58	66
2921.43	54
2922.28	62
2923.13	60
2923.98	64
2924.82	52
2925.67	50
2926.52	62
2927.37	62
2928.22	54
2929.06	68
2929.91	60
2930.76	62
2931.61	56
2932.45	62
2933.3	68
2934.15	58
2934.99	52
2935.84	64
2936.69	52
2937.53	60
2938.38	50
2939.23	68
2940.07	60
2940.92	58
2941.76	58
2942.61	64
2943.46	60
2944.3	62
2945.15	56
2945.99	54
2946.84	56
2947.68	64
2948.53	58
2949.37	46
2950.22	64
2951.06	54
2951.9	68
2952.75	56
2953.59	58
2954.44	66
2955.28	52
2956.12	52
2956.97	62
2957.81	64
2958.65	56
2959.5	64
2960.34	50
2961.18	58
2962.03	54
2962.87	56
2963.71	70
2964.56	60
2965.4	60
2966.24	62
2967.08	68
2967.92	60
2968.77	66
2969.61	64
2970.45	54
2971.29	60
2972.13	52
2972.97	50
2973.82	56
2974.66	64
2975.5	56
2976.34	50
2977.18	44
2978.02	60
2978.86	62
2979.7	50
2980.54	52
2981.38	64
2982.22	56
2983.06	58
2983.9	50
2984.74	54
2985.58	56
2986.42	54
2987.26	58
2988.1	60
2988.94	62
2989.78	44
2990.61	54
2991.45	52
2992.29	60
2993.13	50
2993.97	66
2994.81	50
2995.64	50
2996.48	50
2997.32	44
2998.16	48
2999	68
2999.83	60
