#Acq. time (s)=	10
#Accumulations=	1
#Range (cm-¹)=	200...3000
#Windows=	3
#Autofocus=	Off
#AutoExposure=	Off
#Spike filter=	Off
#Delay time (s)=	0
#Binning=	1
#Readout mode=	Signal
#DeNoise=	Off
#ICS correction=	Off
#Dark correction=	Off
#Inst. Process=	Off
#Instrument=	LabRAM HR Evol
#Detector=	Syncerity OE
#Objective=	x100_VIS
#Grating=	600 (500nm)
#ND Filter=	0.01%
#Laser=	633nm_Edge
#Hole=	100.021
#Range=	Visible
#Project=	Omar
#Sample=	03-07-23
#Site=	papal
#Title=	leaf_100x
#Remark=	
#Date=	03.07.2023 17:10
#Acquired=	03.07.2023 17:10:07
201.713	160
202.98	176
204.247	174
205.513	178
206.778	158
208.045	178
209.311	182
210.576	176
211.84	178
213.106	182
214.371	204
215.636	178
216.899	196
218.164	194
219.428	168
220.692	164
221.955	190
223.219	192
224.482	194
225.744	204
227.007	206
228.27	192
229.531	186
230.794	208
232.055	206
233.317	186
234.579	198
235.839	188
237.1	202
238.362	216
239.621	188
240.882	200
242.141	208
243.402	192
244.661	206
245.921	206
247.179	208
248.439	208
249.698	220
250.956	216
252.215	224
253.473	210
254.731	214
255.988	206
257.246	198
258.503	220
259.761	230
261.017	220
262.273	212
263.53	218
264.786	232
266.042	218
267.298	216
268.554	244
269.809	230
271.063	214
272.319	222
273.573	228
274.828	242
276.082	238
277.336	238
278.591	206
279.844	232
281.097	246
282.351	230
283.603	254
284.855	250
286.109	238
287.361	236
288.613	242
289.866	256
291.117	256
292.368	256
293.62	260
294.871	254
296.121	250
297.372	272
298.623	266
299.873	266
301.123	266
302.372	266
303.622	268
304.872	268
306.121	268
307.37	252
308.618	272
309.866	270
311.116	278
312.364	260
313.611	288
314.859	278
316.106	266
317.353	286
318.6	266
319.848	282
321.095	286
322.341	274
323.587	296
324.833	292
326.079	290
327.324	292
328.569	302
329.814	310
331.059	300
332.304	298
333.548	296
334.792	304
336.037	294
337.28	308
338.524	296
339.767	310
341.011	300
342.254	322
343.497	312
344.739	312
345.982	338
347.224	332
348.466	328
349.708	322
350.95	306
352.191	316
353.432	332
354.673	326
355.914	338
357.155	336
358.394	344
359.634	320
360.874	330
362.114	360
363.354	344
364.593	338
365.832	334
367.07	344
368.309	346
369.548	344
370.786	358
372.024	334
373.261	366
374.499	340
375.736	354
376.974	354
378.211	362
379.447	354
380.684	380
381.92	362
383.157	376
384.392	376
385.628	382
386.864	382
388.098	364
389.333	384
390.569	378
391.802	388
393.037	386
394.272	374
395.505	400
396.739	384
397.973	402
399.206	404
400.44	388
401.673	406
402.905	434
404.138	406
405.37	384
406.602	386
407.835	394
409.066	428
410.298	406
411.528	424
412.76	418
413.99	444
415.221	426
416.451	414
417.682	438
418.911	426
420.142	450
421.371	446
422.601	446
423.83	468
425.059	458
426.288	428
427.517	452
428.745	464
429.974	456
431.201	462
432.43	458
433.657	474
434.883	466
436.111	464
437.338	484
438.565	460
439.791	468
441.017	466
442.244	474
443.469	496
444.695	492
445.921	498
447.146	496
448.37	498
449.596	500
450.821	498
452.045	494
453.27	514
454.493	498
455.717	488
456.94	500
458.165	494
459.387	522
460.61	486
461.833	486
463.056	484
464.278	520
465.5	508
466.722	522
467.945	528
469.166	530
470.387	544
471.608	532
472.829	560
474.049	530
475.271	550
476.491	562
477.711	550
478.931	546
480.15	602
481.37	582
482.589	562
483.808	586
485.027	566
486.247	580
487.465	544
488.683	554
489.901	564
491.119	544
492.337	566
493.554	588
494.771	606
495.988	584
497.205	578
498.422	596
499.638	636
500.854	622
502.07	600
503.286	636
504.502	626
505.717	640
506.933	648
508.148	638
509.363	642
510.577	638
511.792	640
513.005	632
514.219	666
515.433	632
516.647	632
517.86	648
519.073	672
520.287	654
521.5	646
522.711	652
523.924	646
525.136	658
526.348	678
527.56	658
528.772	692
529.982	686
531.194	714
532.405	680
533.616	710
534.825	686
536.036	660
537.246	704
538.457	696
539.665	684
540.875	752
542.085	710
543.294	712
544.502	712
545.712	720
546.92	730
548.128	720
549.336	756
550.545	712
551.751	718
552.959	770
554.167	788
555.373	750
556.581	776
557.788	740
558.994	756
560.2	778
561.406	788
562.612	758
563.817	748
565.023	786
566.229	780
567.433	762
568.639	798
569.843	828
571.048	794
572.251	822
573.456	764
574.659	818
575.863	830
577.066	818
578.27	830
579.472	850
580.676	830
581.878	872
583.081	862
584.283	850
585.484	842
586.687	878
587.888	880
589.09	874
590.291	880
591.493	890
592.693	902
593.893	884
595.094	880
596.294	892
597.494	910
598.694	896
599.894	910
601.093	926
602.293	912
603.491	924
604.69	952
605.889	958
607.087	934
608.285	958
609.483	964
610.682	946
611.879	980
613.076	1016
614.273	968
615.471	1018
616.667	1016
617.864	998
619.06	1032
620.256	998
621.453	1030
622.648	1034
623.844	1078
625.039	1078
626.234	1066
627.429	1054
628.625	1080
629.819	1094
631.013	1072
632.208	1102
633.401	1134
634.595	1112
635.789	1134
636.982	1138
638.175	1136
639.369	1114
640.562	1134
641.755	1160
642.947	1144
644.139	1188
645.331	1194
646.523	1198
647.715	1232
648.906	1218
650.097	1248
651.288	1212
652.479	1232
653.67	1268
654.86	1250
656.051	1218
657.241	1262
658.429	1244
659.619	1258
660.808	1312
661.998	1252
663.187	1290
664.376	1312
665.565	1312
666.753	1314
667.942	1342
669.13	1304
670.317	1338
671.505	1348
672.692	1378
673.88	1396
675.067	1346
676.254	1392
677.44	1378
678.627	1410
679.813	1392
681	1414
682.184	1446
683.37	1442
684.556	1506
685.742	1440
686.926	1512
688.111	1480
689.296	1506
690.481	1456
691.664	1502
692.849	1544
694.033	1542
695.216	1542
696.4	1548
697.584	1582
698.766	1580
699.949	1550
701.133	1556
702.314	1616
703.497	1622
704.678	1634
705.861	1604
707.043	1626
708.224	1684
709.406	1658
710.586	1662
711.768	1708
712.949	1736
714.129	1714
715.31	1702
716.489	1774
717.67	1724
718.849	1682
720.029	1770
721.208	1796
722.388	1822
723.566	1844
724.746	1786
725.924	1846
727.103	1790
728.28	1896
729.458	1888
730.636	1914
731.814	1944
732.992	1896
734.168	1970
735.345	1960
736.523	1924
737.699	1918
738.876	1974
740.052	1984
741.227	1942
742.404	2024
743.579	2054
744.754	2012
745.931	2014
747.105	2042
748.28	2064
749.455	2112
750.629	2090
751.803	2146
752.977	2132
754.152	2164
755.325	2182
756.499	2200
757.672	2178
758.846	2234
760.018	2150
761.191	2214
762.363	2228
763.535	2230
764.708	2240
765.88	2294
767.052	2244
768.223	2318
769.394	2316
770.565	2338
771.737	2376
772.908	2376
774.078	2366
775.249	2384
776.419	2426
777.589	2466
778.758	2426
779.928	2414
781.097	2500
782.266	2446
783.435	2448
784.604	2584
785.773	2560
786.941	2530
788.11	2568
789.278	2618
790.446	2584
791.613	2614
792.781	2606
793.948	2668
795.115	2670
796.282	2708
797.449	2748
798.616	2724
799.782	2840
800.948	2802
802.115	2794
803.28	2778
804.446	2834
805.612	2836
806.777	2890
807.941	2930
809.106	2982
810.271	2926
811.435	2980
812.6	2988
813.764	3018
814.927	2986
816.091	3024
817.254	3060
818.418	3026
819.581	3164
820.743	3188
821.906	3182
823.069	3206
824.232	3224
825.393	3094
826.555	3268
827.717	3240
828.879	3328
830.039	3336
831.201	3384
832.362	3330
833.522	3400
834.683	3402
835.844	3412
837.003	3428
838.164	3504
839.324	3582
840.483	3580
841.643	3550
842.801	3560
843.961	3636
845.12	3590
846.278	3670
847.437	3754
848.594	3738
849.753	3734
850.91	3722
852.069	3776
853.227	3820
854.383	3802
855.541	3908
856.697	3896
857.855	3892
859.011	3804
860.168	3908
861.323	3988
862.48	4012
863.635	4054
864.79	4066
865.946	4076
867.101	4044
868.257	4078
869.411	4162
870.567	4184
871.721	4184
872.874	4202
874.029	4272
875.183	4230
876.336	4338
877.49	4292
878.643	4284
879.796	4320
880.95	4306
882.102	4344
883.254	4426
884.407	4472
885.559	4424
886.711	4478
887.862	4490
889.015	4536
890.166	4486
891.317	4508
892.467	4560
893.619	4618
894.77	4602
895.92	4644
897.07	4622
898.221	4754
899.371	4698
900.52	4828
901.669	4880
902.819	4804
903.968	4842
905.116	4860
906.266	4868
907.415	4920
908.563	4932
909.711	4980
910.859	4946
912.007	4952
913.154	5028
914.301	5124
915.449	5066
916.596	5058
917.742	5076
918.889	5102
920.036	5194
921.183	5210
922.329	5262
923.475	5338
924.621	5360
925.765	5358
926.911	5366
928.056	5364
929.201	5496
930.346	5412
931.49	5450
932.635	5524
933.779	5620
934.924	5636
936.068	5594
937.211	5758
938.355	5744
939.498	5752
940.64	5820
941.784	5784
942.926	5862
944.069	5950
945.212	5952
946.354	5990
947.495	5970
948.637	6012
949.779	6112
950.921	6060
952.062	6158
953.202	6124
954.344	6174
955.484	6226
956.625	6274
957.765	6244
958.905	6294
960.045	6374
961.184	6448
962.324	6438
963.464	6454
964.604	6544
965.742	6562
966.881	6646
968.02	6498
969.158	6510
970.296	6762
971.434	6746
972.572	6776
973.71	6762
974.847	6834
975.985	6814
977.121	6894
978.259	6774
979.396	7026
980.532	6824
981.669	6902
982.804	7028
983.941	6952
985.076	7108
986.212	7150
987.347	7090
988.483	7260
989.617	7178
990.753	7196
991.887	7306
993.022	7324
994.156	7302
995.29	7382
996.424	7278
997.558	7550
998.692	7436
999.825	7484
1000.96	7560
1002.09	7516
1003.22	7632
1004.36	7670
1005.49	7646
1006.62	7640
1007.75	7778
1008.89	7766
1010.02	7858
1011.15	7790
1012.28	7918
1013.41	7932
1014.54	7954
1015.67	7922
1016.8	7980
1017.93	8086
1019.07	8080
1020.19	8198
1021.32	8218
1022.45	8260
1023.58	8404
1024.71	8318
1025.84	8346
1026.97	8456
1028.1	8514
1029.23	8520
1030.36	8604
1031.49	8556
1032.61	8550
1033.74	8732
1034.87	8740
1036	8774
1037.12	8834
1038.25	8790
1039.38	8950
1040.5	8888
1041.63	8988
1042.76	9072
1043.88	9024
1045.01	9134
1046.14	9220
1047.26	9230
1048.39	9264
1049.51	9344
1050.64	9352
1051.76	9468
1052.89	9458
1054.01	9464
1055.14	9540
1056.26	9670
1057.38	9472
1058.51	9646
1059.63	9790
1060.75	9724
1061.88	9816
1063	9908
1064.12	9772
1065.25	9828
1066.37	9906
1067.49	10012
1068.61	10056
1069.73	9998
1070.86	9870
1071.98	9976
1073.1	10128
1074.22	10062
1075.34	10092
1076.46	10172
1077.58	10226
1078.7	10206
1079.82	10272
1080.94	10442
1082.06	10348
1083.18	10386
1084.3	10402
1085.42	10310
1086.54	10536
1087.66	10522
1088.78	10488
1089.9	10466
1091.02	10460
1092.14	10510
1093.25	10526
1094.37	10544
1095.49	10566
1096.61	10556
1097.72	10742
1098.84	10722
1099.96	10742
1101.08	10876
1102.19	10636
1103.31	10792
1104.43	10826
1105.54	10926
1106.66	10904
1107.77	10934
1108.89	10894
1110	10928
1111.12	10992
1112.23	10934
1113.35	11040
1114.46	10976
1115.58	10892
1116.69	11052
1117.81	11088
1118.92	10924
1120.03	11056
1121.15	11138
1122.26	11148
1123.37	11226
1124.49	11258
1125.6	11174
1126.71	11274
1127.83	11186
1128.94	11332
1130.05	11418
1131.16	11426
1132.27	11316
1133.39	11316
1134.5	11350
1135.61	11404
1136.72	11426
1137.83	11570
1138.94	11534
1140.05	11448
1141.16	11638
1142.27	11566
1143.38	11596
1144.49	11556
1145.6	11532
1146.71	11710
1147.82	11624
1148.93	11658
1150.04	11594
1151.15	11692
1152.26	11604
1153.36	11664
1154.47	11732
1155.58	11660
1156.69	11748
1157.8	11680
1158.9	11700
1160.01	11714
1161.12	11770
1162.22	11736
1163.33	11654
1164.44	11678
1165.54	11816
1166.65	11588
1167.76	11734
1168.86	11810
1169.97	11548
1171.07	11774
1172.18	11754
1173.28	11766
1174.39	11760
1175.49	11644
1176.6	11654
1177.7	11596
1178.81	11508
1179.91	11454
1181.02	11624
1182.12	11470
1183.22	11472
1184.33	11586
1185.43	11532
1186.53	11330
1187.63	11216
1188.74	11420
1189.84	11444
1190.94	11418
1192.04	11286
1193.15	11328
1194.25	11302
1195.35	11194
1196.45	11120
1197.55	11092
1198.65	11058
1199.75	11126
1200.85	11158
1201.95	10998
1203.05	11058
1204.16	11030
1205.25	10888
1206.35	10992
1207.45	10922
1208.55	10864
1209.65	10776
1210.75	10774
1211.85	10680
1212.95	10880
1214.05	10652
1215.15	10628
1216.24	10556
1217.34	10588
1218.44	10506
1219.54	10460
1220.64	10430
1221.73	10374
1222.83	10280
1223.93	10222
1225.02	10270
1226.12	10264
1227.22	10214
1228.31	10182
1229.41	10160
1230.5	10042
1231.6	10020
1232.7	10132
1233.79	10040
1234.89	9944
1235.98	9882
1237.08	10020
1238.17	9810
1239.26	9886
1240.36	9846
1241.45	9710
1242.55	9780
1243.64	9638
1244.73	9658
1245.83	9624
1246.92	9646
1248.01	9564
1249.11	9516
1250.2	9360
1251.29	9436
1252.38	9480
1253.48	9370
1254.57	9408
1255.66	9220
1256.75	9230
1257.84	9244
1258.93	9276
1260.03	9240
1261.12	9168
1262.21	9068
1263.3	9008
1264.39	9090
1265.48	9014
1266.57	8868
1267.66	8986
1268.75	8954
1269.84	8810
1270.93	8742
1272.02	8828
1273.11	8750
1274.19	8724
1275.28	8654
1276.37	8722
1277.46	8496
1278.55	8458
1279.64	8460
1280.72	8428
1281.81	8268
1282.9	8428
1283.98	8307.27
1285.07	8256.07
1286.16	8277.05
1287.25	8209.32
1288.33	8149.66
1289.42	8070.64
1290.5	8060.15
1291.59	7760.79
1292.68	7845.61
1293.76	7787.77
1294.85	7762.89
1295.93	7675.79
1297.02	7600.51
1298.1	7508.7
1299.19	7556.75
1300.27	7441.86
1301.36	7399.38
1302.44	7321.69
1303.53	7339.12
1304.61	7228.69
1305.69	7135.63
1306.78	7146.4
1307.86	7014.59
1308.94	6996.22
1310.03	6933.81
1311.11	6759.72
1312.19	6832.35
1313.27	6716.56
1314.36	6782.26
1315.44	6667.04
1316.52	6628.53
1317.6	6596.26
1318.68	6526.61
1319.77	6459.83
1320.85	6416.76
1321.93	6398.04
1323.01	6180.98
1324.09	6237.4
1325.17	6216.77
1326.25	6147.24
1327.33	6075.77
1328.41	6055.43
1329.49	6037.89
1330.57	5934.66
1331.65	5926.61
1332.73	5871.87
1333.81	5838.54
1334.89	5709.33
1335.97	5701.52
1337.04	5610.01
1338.12	5529.48
1339.2	5543.36
1340.28	5503.93
1341.36	5495.98
1342.44	5453.74
1343.51	5386.93
1344.59	5422.26
1345.67	5326.32
1346.75	5236.49
1347.82	5259.2
1348.9	5146.77
1349.98	5095.6
1351.05	5062.96
1352.13	5058.34
1353.2	5023.76
1354.28	4954.56
1355.36	4935.45
1356.43	4920.26
1357.51	4866.43
1358.58	4803.75
1359.66	4702.15
1360.73	4766.36
1361.81	4771.46
1362.88	4699.52
1363.96	4586.55
1365.03	4607.03
1366.1	4568.48
1367.18	4499.23
1368.25	4528.82
1369.33	4413.91
1370.4	4416.66
1371.47	4396.39
1372.54	4235.91
1373.62	4338.1
1374.69	4265.07
1375.76	4198.23
1376.83	4229.09
1377.91	4165.86
1378.98	4204.18
1380.05	4078.56
1381.12	4077.86
1382.19	4009.43
1383.26	4027.96
1384.34	4008.43
1385.41	4003.37
1386.48	3960.29
1387.55	3879.18
1388.62	3875.89
1389.69	3816.4
1390.76	3726.08
1391.83	3757.88
1392.9	3673.08
1393.02	3656
1394.1	3642
1395.17	3614
1396.25	3678
1397.32	3618
1398.4	3618
1399.47	3620
1400.55	3634
1401.62	3618
1402.69	3590
1403.77	3534
1404.84	3546
1405.91	3528
1406.99	3526
1408.06	3430
1409.13	3428
1410.2	3444
1411.27	3382
1412.35	3432
1413.42	3460
1414.49	3346
1415.56	3392
1416.63	3352
1417.7	3380
1418.78	3350
1419.85	3286
1420.92	3332
1421.99	3328
1423.06	3256
1424.13	3266
1425.2	3278
1426.27	3272
1427.34	3178
1428.41	3242
1429.48	3154
1430.55	3266
1431.61	3138
1432.68	3090
1433.75	3082
1434.82	3152
1435.89	3154
1436.96	3106
1438.02	3104
1439.09	3094
1440.16	3054
1441.23	3158
1442.3	3132
1443.36	3058
1444.43	3100
1445.5	3030
1446.56	3018
1447.63	3030
1448.7	2958
1449.76	3040
1450.83	2992
1451.89	2998
1452.96	2998
1454.02	2988
1455.09	2862
1456.15	2966
1457.22	2916
1458.28	2868
1459.35	2928
1460.41	2954
1461.48	2814
1462.54	2866
1463.61	2900
1464.67	2904
1465.73	2878
1466.8	2886
1467.86	2846
1468.92	2800
1469.98	2806
1471.05	2848
1472.11	2776
1473.17	2790
1474.24	2802
1475.3	2772
1476.36	2786
1477.42	2754
1478.48	2742
1479.54	2788
1480.6	2730
1481.67	2776
1482.73	2730
1483.79	2702
1484.85	2694
1485.91	2680
1486.97	2730
1488.03	2658
1489.09	2670
1490.15	2722
1491.21	2664
1492.27	2610
1493.33	2588
1494.38	2656
1495.44	2620
1496.5	2654
1497.56	2614
1498.62	2586
1499.68	2568
1500.74	2602
1501.79	2548
1502.85	2542
1503.91	2542
1504.97	2576
1506.02	2550
1507.08	2494
1508.14	2442
1509.2	2516
1510.25	2506
1511.31	2456
1512.36	2466
1513.42	2430
1514.48	2468
1515.53	2478
1516.59	2542
1517.64	2398
1518.7	2484
1519.75	2488
1520.81	2370
1521.86	2462
1522.92	2402
1523.97	2394
1525.02	2378
1526.08	2374
1527.13	2432
1528.19	2402
1529.24	2404
1530.29	2340
1531.35	2330
1532.4	2382
1533.45	2418
1534.51	2344
1535.56	2260
1536.61	2280
1537.66	2384
1538.72	2318
1539.77	2338
1540.82	2244
1541.87	2266
1542.92	2266
1543.97	2300
1545.02	2320
1546.08	2252
1547.13	2236
1548.18	2260
1549.23	2266
1550.28	2248
1551.33	2230
1552.38	2198
1553.43	2240
1554.48	2160
1555.53	2244
1556.57	2198
1557.62	2208
1558.67	2180
1559.72	2210
1560.77	2168
1561.82	2138
1562.87	2166
1563.92	2108
1564.96	2102
1566.01	2228
1567.06	2156
1568.11	2092
1569.15	2156
1570.2	2118
1571.25	2094
1572.29	2122
1573.34	2156
1574.39	2092
1575.43	2136
1576.48	2096
1577.53	2072
1578.57	2082
1579.62	2068
1580.66	2044
1581.71	2078
1582.75	2044
1583.8	2086
1584.84	2096
1585.89	2050
1586.93	2086
1587.98	2092
1589.02	2036
1590.06	2052
1591.11	2078
1592.15	2046
1593.2	2080
1594.24	2060
1595.28	2048
1596.33	2050
1597.37	2052
1598.41	2034
1599.45	2082
1600.5	2044
1601.54	2052
1602.58	2032
1603.62	2008
1604.66	2088
1605.7	2034
1606.75	1958
1607.79	1976
1608.83	1986
1609.87	2004
1610.91	2018
1611.95	1974
1612.99	2016
1614.03	1974
1615.07	1978
1616.11	1956
1617.15	1932
1618.19	2040
1619.23	2008
1620.27	1988
1621.31	1970
1622.35	1910
1623.39	1978
1624.43	2000
1625.46	1976
1626.5	1956
1627.54	1916
1628.58	1914
1629.62	2000
1630.65	1952
1631.69	1964
1632.73	1932
1633.77	2004
1634.8	1944
1635.84	1902
1636.88	1926
1637.91	1920
1638.95	1942
1639.99	1838
1641.02	1918
1642.06	1910
1643.09	1906
1644.13	1906
1645.16	1914
1646.2	1884
1647.23	1884
1648.27	1944
1649.3	1860
1650.34	1880
1651.37	1912
1652.41	1908
1653.44	1894
1654.47	1880
1655.51	1892
1656.54	1866
1657.57	1886
1658.61	1854
1659.64	1874
1660.67	1838
1661.71	1856
1662.74	1850
1663.77	1884
1664.81	1852
1665.84	1846
1666.87	1822
1667.9	1846
1668.93	1826
1669.96	1784
1671	1838
1672.03	1848
1673.06	1846
1674.09	1768
1675.12	1816
1676.15	1818
1677.18	1782
1678.21	1762
1679.24	1806
1680.27	1834
1681.3	1794
1682.33	1842
1683.36	1748
1684.39	1792
1685.42	1764
1686.45	1800
1687.47	1790
1688.5	1802
1689.53	1762
1690.56	1798
1691.59	1750
1692.62	1768
1693.64	1724
1694.67	1780
1695.7	1788
1696.73	1786
1697.75	1742
1698.78	1754
1699.81	1740
1700.83	1680
1701.86	1736
1702.89	1772
1703.91	1776
1704.94	1734
1705.97	1750
1706.99	1690
1708.02	1694
1709.04	1704
1710.07	1724
1711.09	1712
1712.12	1722
1713.14	1738
1714.17	1744
1715.19	1704
1716.22	1724
1717.24	1702
1718.26	1652
1719.29	1698
1720.31	1770
1721.33	1690
1722.36	1714
1723.38	1716
1724.4	1740
1725.43	1698
1726.45	1662
1727.47	1688
1728.49	1692
1729.52	1636
1730.54	1730
1731.56	1658
1732.58	1678
1733.6	1698
1734.63	1670
1735.65	1660
1736.67	1700
1737.69	1668
1738.71	1646
1739.73	1658
1740.75	1708
1741.77	1702
1742.79	1646
1743.81	1632
1744.83	1696
1745.85	1634
1746.87	1648
1747.89	1668
1748.91	1672
1749.93	1706
1750.95	1666
1751.97	1712
1752.98	1640
1754	1594
1755.02	1684
1756.04	1642
1757.06	1664
1758.07	1634
1759.09	1662
1760.11	1664
1761.13	1638
1762.14	1660
1763.16	1652
1764.18	1634
1765.19	1666
1766.21	1630
1767.23	1686
1768.24	1624
1769.26	1644
1770.28	1634
1771.29	1610
1772.31	1678
1773.32	1604
1774.34	1644
1775.35	1676
1776.37	1596
1777.38	1610
1778.4	1656
1779.41	1638
1780.43	1646
1781.44	1652
1782.45	1576
1783.47	1626
1784.48	1626
1785.49	1600
1786.51	1598
1787.52	1650
1788.53	1644
1789.55	1598
1790.56	1682
1791.57	1626
1792.58	1654
1793.6	1674
1794.61	1602
1795.62	1602
1796.63	1642
1797.64	1678
1798.66	1610
1799.67	1612
1800.68	1646
1801.69	1634
1802.7	1618
1803.71	1628
1804.72	1642
1805.73	1622
1806.74	1646
1807.75	1660
1808.76	1620
1809.77	1638
1810.78	1584
1811.79	1604
1812.8	1636
1813.81	1602
1814.82	1602
1815.83	1622
1816.84	1586
1817.84	1608
1818.85	1662
1819.86	1656
1820.87	1574
1821.88	1576
1822.88	1614
1823.89	1596
1824.9	1616
1825.91	1582
1826.91	1526
1827.92	1568
1828.93	1582
1829.93	1586
1830.94	1612
1831.95	1554
1832.95	1556
1833.96	1556
1834.97	1584
1835.97	1594
1836.98	1556
1837.98	1554
1838.99	1590
1839.99	1550
1841	1616
1842	1538
1843.01	1550
1844.01	1554
1845.02	1546
1846.02	1558
1847.02	1498
1848.03	1592
1849.03	1566
1850.03	1542
1851.04	1570
1852.04	1602
1853.04	1568
1854.05	1550
1855.05	1546
1856.05	1558
1857.05	1584
1858.06	1564
1859.06	1568
1860.06	1554
1861.06	1542
1862.06	1548
1863.07	1548
1864.07	1584
1865.07	1576
1866.07	1522
1867.07	1586
1868.07	1516
1869.07	1566
1870.07	1568
1871.07	1502
1872.07	1562
1873.07	1550
1874.07	1520
1875.07	1528
1876.07	1542
1877.07	1548
1878.07	1514
1879.07	1492
1880.07	1536
1881.07	1500
1882.07	1576
1883.06	1496
1884.06	1548
1885.06	1544
1886.06	1572
1887.06	1586
1888.05	1518
1889.05	1504
1890.05	1516
1891.05	1522
1892.04	1530
1893.04	1534
1894.04	1540
1895.03	1530
1896.03	1560
1897.03	1520
1898.02	1552
1899.02	1544
1900.01	1506
1901.01	1512
1902	1512
1903	1514
1903.99	1554
1904.99	1528
1905.98	1506
1906.98	1480
1907.97	1542
1908.97	1510
1909.96	1486
1910.96	1530
1911.95	1544
1912.94	1516
1913.94	1492
1914.93	1502
1915.93	1508
1916.92	1556
1917.91	1528
1918.9	1518
1919.9	1488
1920.89	1496
1921.88	1534
1922.87	1508
1923.87	1534
1924.86	1490
1925.85	1524
1926.84	1538
1927.83	1494
1928.82	1524
1929.82	1516
1930.81	1502
1931.8	1512
1932.79	1526
1933.78	1518
1934.77	1500
1935.76	1502
1936.75	1500
1937.74	1492
1938.73	1544
1939.72	1454
1940.71	1548
1941.7	1452
1942.69	1486
1943.68	1496
1944.67	1476
1945.65	1444
1946.64	1458
1947.63	1468
1948.62	1518
1949.61	1518
1950.6	1498
1951.58	1504
1952.57	1474
1953.56	1494
1954.55	1494
1955.53	1452
1956.52	1468
1957.51	1480
1958.5	1458
1959.48	1480
1960.47	1502
1961.45	1478
1962.44	1456
1963.43	1472
1964.41	1520
1965.4	1496
1966.38	1456
1967.37	1476
1968.35	1498
1969.34	1458
1970.32	1456
1971.31	1460
1972.29	1468
1973.28	1426
1974.26	1440
1975.25	1484
1976.23	1452
1977.22	1474
1978.2	1454
1979.18	1430
1980.17	1482
1981.15	1434
1982.13	1450
1983.12	1426
1984.1	1458
1985.08	1452
1986.06	1430
1987.05	1442
1988.03	1430
1989.01	1430
1989.99	1438
1990.97	1486
1991.96	1450
1992.94	1496
1993.92	1470
1994.9	1490
1995.88	1454
1996.86	1456
1997.84	1440
1998.82	1444
1999.8	1476
2000.78	1400
2001.76	1448
2002.74	1430
2003.72	1452
2004.7	1490
2005.68	1420
2006.66	1418
2007.64	1434
2008.62	1432
2009.6	1394
2010.58	1460
2011.56	1464
2012.54	1432
2013.51	1416
2014.49	1486
2015.47	1454
2016.45	1378
2017.43	1406
2018.4	1452
2019.38	1402
2020.36	1406
2021.34	1446
2022.31	1426
2023.29	1452
2024.27	1470
2025.24	1478
2026.22	1436
2027.2	1462
2028.17	1444
2029.15	1426
2030.12	1416
2031.1	1440
2032.07	1448
2033.05	1412
2034.03	1434
2035	1446
2035.98	1410
2036.95	1410
2037.93	1420
2038.9	1420
2039.87	1400
2040.85	1424
2041.82	1436
2042.8	1384
2043.77	1422
2044.74	1428
2045.72	1406
2046.69	1418
2047.66	1370
2048.64	1392
2049.61	1412
2050.58	1434
2051.55	1392
2052.53	1380
2053.5	1436
2054.47	1388
2055.44	1398
2056.41	1396
2057.39	1404
2058.36	1454
2059.33	1388
2060.3	1406
2061.27	1396
2062.24	1394
2063.21	1392
2064.18	1402
2065.15	1402
2066.12	1414
2067.09	1412
2068.06	1428
2069.03	1410
2070	1392
2070.97	1380
2071.94	1392
2072.91	1334
2073.88	1420
2074.85	1430
2075.82	1412
2076.79	1370
2077.76	1358
2078.73	1398
2079.69	1344
2080.66	1384
2081.63	1366
2082.6	1374
2083.56	1384
2084.53	1388
2085.5	1370
2086.47	1384
2087.43	1382
2088.4	1382
2089.37	1386
2090.33	1360
2091.3	1382
2092.27	1344
2093.23	1404
2094.2	1392
2095.17	1320
2096.13	1358
2097.1	1380
2098.06	1390
2099.03	1388
2099.99	1402
2100.96	1342
2101.92	1386
2102.89	1362
2103.85	1380
2104.82	1354
2105.78	1346
2106.74	1366
2107.71	1378
2108.67	1314
2109.64	1350
2110.6	1348
2111.56	1336
2112.53	1328
2113.49	1326
2114.45	1384
2115.41	1406
2116.38	1410
2117.34	1336
2118.3	1344
2119.26	1334
2120.23	1328
2121.19	1352
2122.15	1362
2123.11	1334
2124.07	1374
2125.03	1336
2126	1324
2126.96	1380
2127.92	1388
2128.88	1394
2129.84	1358
2130.8	1340
2131.76	1364
2132.72	1332
2133.68	1320
2134.64	1348
2135.6	1312
2136.56	1340
2137.52	1352
2138.48	1324
2139.44	1372
2140.4	2150
2141.35	1482
2142.31	1292
2143.27	1354
2144.23	1374
2145.19	1320
2146.15	1284
2147.1	1332
2148.06	1286
2149.02	1348
2149.98	1334
2150.94	1322
2151.89	1366
2152.85	1308
2153.81	1298
2154.76	1290
2155.72	1354
2156.68	1334
2157.63	1342
2158.59	1288
2159.55	1324
2160.5	1326
2161.46	1314
2162.41	1338
2163.37	1326
2164.32	1304
2165.28	1338
2166.23	1318
2167.19	1320
2168.14	1284
2169.1	1318
2170.05	1310
2171.01	1286
2171.96	1326
2172.91	1260
2173.87	1324
2174.82	1330
2175.78	1298
2176.73	1276
2177.68	1306
2178.64	1312
2179.59	1318
2180.54	1272
2181.49	1244
2182.45	1286
2183.4	1264
2184.35	1274
2185.3	1240
2186.26	1282
2187.21	1280
2188.16	1326
2189.11	1274
2190.06	1304
2191.01	1262
2191.96	1254
2192.92	1274
2193.87	1270
2194.82	1304
2195.77	1266
2196.72	1288
2197.67	1254
2198.62	1218
2199.57	1252
2200.52	1242
2201.47	1292
2202.42	1222
2203.37	1278
2204.32	1238
2205.27	1254
2206.22	1216
2207.16	1250
2208.11	1280
2209.06	1252
2210.01	1270
2210.96	1282
2211.91	1260
2212.85	1254
2213.8	1238
2214.75	1272
2215.7	1216
2216.64	1216
2217.59	1292
2218.54	1242
2219.49	1218
2220.43	1246
2221.38	1234
2222.33	1246
2223.27	1220.06
2224.22	1235.65
2225.16	1235.61
2226.11	1226.44
2227.06	1225.42
2228	1250.23
2228.95	1225.81
2229.89	1217.34
2230.84	1236.92
2231.78	1235.03
2232.73	1156.63
2233.67	1186.55
2234.62	1196.25
2235.56	1175.03
2236.51	1175.95
2237.45	1161.58
2238.4	1149.9
2239.34	1144.11
2240.28	1133.09
2241.23	1148.53
2242.17	1158.92
2243.11	1110.68
2244.06	1127.45
2245	1155.7
2245.94	1115.24
2246.89	1144.71
2247.83	1107.01
2248.77	1105.53
2249.71	1070.22
2250.66	1095.9
2251.6	1107.48
2252.54	1069.95
2253.48	1083.19
2254.42	1066.77
2255.37	1070.52
2256.31	1077.04
2257.25	1090.81
2258.19	1091.37
2259.13	1055.08
2260.07	1057.83
2261.01	1076.78
2261.95	1047.21
2262.89	1017.35
2263.83	1027.45
2264.77	1019.03
2265.71	1004.65
2266.65	1021.63
2267.59	998.828
2268.53	992.32
2269.47	1007.05
2270.41	993.878
2271.35	992.926
2272.29	1009.44
2273.23	964.987
2274.17	985.509
2275.1	976.462
2276.04	976.247
2276.98	959.859
2277.92	953.72
2278.86	926.87
2279.8	956.248
2280.73	966.416
2281.67	942.388
2282.61	939.036
2283.55	929.263
2284.48	925.949
2285.42	927.904
2286.36	907.046
2287.29	887.912
2288.23	895.405
2289.17	884.137
2290.1	886.43
2291.04	887.949
2291.98	906.143
2292.91	892.106
2293.85	877.695
2294.78	883.828
2295.72	867.11
2296.65	852.601
2297.59	867.538
2298.52	841.401
2299.46	831.031
2300.39	877.567
2301.33	851.828
2302.26	837.796
2303.2	820.953
2304.13	816.105
2305.06	811.176
2306	818.661
2306.93	798.95
2307.87	802.281
2308.8	817.049
2309.73	809.085
2310.67	799.214
2311.6	795.044
2312.53	789.71
2313.46	782.363
2314.4	758.753
2315.33	753.23
2316.26	748.527
2316.69	740
2317.62	760
2318.56	732
2319.5	744
2320.43	742
2321.37	766
2322.31	782
2323.24	754
2324.18	762
2325.12	712
2326.05	738
2326.99	736
2327.92	718
2328.86	750
2329.79	720
2330.73	726
2331.66	722
2332.6	744
2333.53	740
2334.47	738
2335.4	744
2336.34	762
2337.27	740
2338.2	702
2339.14	718
2340.07	726
2341.01	738
2341.94	684
2342.87	720
2343.81	742
2344.74	692
2345.67	732
2346.6	750
2347.54	710
2348.47	740
2349.4	692
2350.33	716
2351.27	740
2352.2	720
2353.13	710
2354.06	720
2354.99	698
2355.93	726
2356.86	730
2357.79	736
2358.72	706
2359.65	746
2360.58	732
2361.51	730
2362.44	710
2363.37	716
2364.3	706
2365.23	722
2366.16	718
2367.09	704
2368.02	702
2368.95	702
2369.88	738
2370.81	716
2371.74	678
2372.67	756
2373.6	704
2374.52	690
2375.45	720
2376.38	716
2377.31	708
2378.24	702
2379.17	714
2380.09	682
2381.02	676
2381.95	704
2382.88	692
2383.8	662
2384.73	688
2385.66	678
2386.58	686
2387.51	670
2388.44	690
2389.36	658
2390.29	670
2391.22	670
2392.14	668
2393.07	682
2393.99	646
2394.92	698
2395.85	682
2396.77	680
2397.7	690
2398.62	654
2399.55	672
2400.47	660
2401.4	672
2402.32	672
2403.25	660
2404.17	666
2405.09	654
2406.02	670
2406.94	648
2407.86	664
2408.79	652
2409.71	638
2410.63	674
2411.56	680
2412.48	670
2413.4	650
2414.33	654
2415.25	638
2416.17	634
2417.09	658
2418.02	640
2418.94	638
2419.86	664
2420.78	662
2421.7	684
2422.63	632
2423.55	620
2424.47	630
2425.39	620
2426.31	626
2427.23	628
2428.15	632
2429.07	638
2429.99	610
2430.91	652
2431.83	606
2432.75	614
2433.67	598
2434.59	632
2435.51	634
2436.43	616
2437.35	648
2438.27	598
2439.19	614
2440.11	602
2441.03	620
2441.95	620
2442.86	586
2443.78	612
2444.7	596
2445.62	596
2446.54	582
2447.46	582
2448.37	580
2449.29	604
2450.21	606
2451.13	604
2452.04	592
2452.96	582
2453.88	616
2454.79	608
2455.71	588
2456.63	600
2457.54	606
2458.46	588
2459.38	592
2460.29	600
2461.21	596
2462.12	572
2463.04	588
2463.95	602
2464.87	576
2465.78	552
2466.7	542
2467.61	610
2468.53	558
2469.44	546
2470.36	578
2471.27	566
2472.19	574
2473.1	610
2474.01	568
2474.93	586
2475.84	582
2476.76	548
2477.67	574
2478.58	584
2479.5	560
2480.41	578
2481.32	566
2482.23	574
2483.15	562
2484.06	538
2484.97	564
2485.88	558
2486.8	562
2487.71	524
2488.62	542
2489.53	534
2490.44	574
2491.35	562
2492.26	530
2493.18	564
2494.09	522
2495	514
2495.91	564
2496.82	542
2497.73	516
2498.64	552
2499.55	532
2500.46	534
2501.37	528
2502.28	546
2503.19	520
2504.1	524
2505.01	526
2505.92	544
2506.83	512
2507.74	528
2508.65	514
2509.55	526
2510.46	524
2511.37	500
2512.28	530
2513.19	526
2514.09	528
2515	502
2515.91	522
2516.82	528
2517.73	522
2518.63	526
2519.54	492
2520.45	510
2521.35	540
2522.26	500
2523.17	504
2524.07	490
2524.98	494
2525.89	490
2526.79	500
2527.7	504
2528.6	522
2529.51	464
2530.42	512
2531.32	488
2532.23	488
2533.13	512
2534.04	494
2534.94	478
2535.85	474
2536.75	466
2537.66	472
2538.56	468
2539.47	466
2540.37	492
2541.27	470
2542.18	448
2543.08	448
2543.98	470
2544.89	472
2545.79	484
2546.7	466
2547.6	472
2548.5	480
2549.4	480
2550.31	480
2551.21	470
2552.11	468
2553.01	468
2553.92	476
2554.82	438
2555.72	452
2556.62	454
2557.52	436
2558.42	464
2559.33	470
2560.23	452
2561.13	446
2562.03	442
2562.93	456
2563.83	464
2564.73	454
2565.63	460
2566.53	456
2567.43	454
2568.33	424
2569.23	436
2570.13	440
2571.03	440
2571.93	430
2572.83	424
2573.73	440
2574.63	426
2575.53	446
2576.43	434
2577.33	460
2578.22	444
2579.12	450
2580.02	418
2580.92	386
2581.82	432
2582.72	436
2583.61	434
2584.51	418
2585.41	402
2586.31	446
2587.2	416
2588.1	428
2589	424
2589.89	422
2590.79	420
2591.69	432
2592.58	446
2593.48	406
2594.38	416
2595.27	414
2596.17	430
2597.06	422
2597.96	414
2598.86	410
2599.75	420
2600.65	404
2601.54	408
2602.44	410
2603.33	402
2604.23	418
2605.12	418
2606.02	384
2606.91	416
2607.81	400
2608.7	388
2609.59	402
2610.49	398
2611.38	402
2612.27	380
2613.17	418
2614.06	382
2614.95	416
2615.85	386
2616.74	380
2617.63	392
2618.53	396
2619.42	394
2620.31	386
2621.2	376
2622.1	384
2622.99	390
2623.88	390
2624.77	382
2625.66	390
2626.55	394
2627.45	366
2628.34	370
2629.23	380
2630.12	378
2631.01	356
2631.9	390
2632.79	376
2633.68	376
2634.57	358
2635.46	348
2636.35	378
2637.24	376
2638.13	358
2639.02	384
2639.91	370
2640.8	358
2641.69	362
2642.58	374
2643.47	376
2644.36	370
2645.25	366
2646.14	366
2647.02	384
2647.91	336
2648.8	366
2649.69	360
2650.58	356
2651.46	366
2652.35	354
2653.24	354
2654.13	356
2655.01	390
2655.9	344
2656.79	340
2657.68	342
2658.56	328
2659.45	358
2660.34	344
2661.22	358
2662.11	330
2662.99	352
2663.88	322
2664.77	326
2665.65	354
2666.54	324
2667.42	340
2668.31	300
2669.2	360
2670.08	348
2670.96	326
2671.85	356
2672.73	340
2673.62	334
2674.5	346
2675.39	350
2676.27	338
2677.16	348
2678.04	350
2678.93	330
2679.81	362
2680.69	354
2681.58	306
2682.46	338
2683.34	306
2684.23	318
2685.11	316
2685.99	318
2686.87	346
2687.76	314
2688.64	334
2689.52	344
2690.4	326
2691.28	324
2692.17	312
2693.05	328
2693.93	320
2694.81	326
2695.69	312
2696.57	310
2697.46	308
2698.34	326
2699.22	316
2700.1	300
2700.98	316
2701.86	320
2702.74	318
2703.62	328
2704.5	304
2705.38	274
2706.26	298
2707.14	300
2708.02	288
2708.9	310
2709.78	282
2710.66	308
2711.54	302
2712.42	284
2713.3	298
2714.17	312
2715.05	288
2715.93	310
2716.81	296
2717.69	312
2718.57	302
2719.44	282
2720.32	308
2721.2	290
2722.08	268
2722.95	280
2723.83	280
2724.71	292
2725.59	290
2726.46	294
2727.34	298
2728.22	280
2729.09	284
2729.97	276
2730.85	292
2731.72	270
2732.6	274
2733.47	280
2734.35	294
2735.23	248
2736.1	280
2736.98	282
2737.85	280
2738.73	274
2739.6	272
2740.48	278
2741.35	276
2742.23	280
2743.1	274
2743.98	276
2744.85	308
2745.72	254
2746.6	264
2747.47	260
2748.35	258
2749.22	242
2750.09	268
2750.97	256
2751.84	266
2752.71	254
2753.59	258
2754.46	254
2755.33	278
2756.2	260
2757.08	272
2757.95	266
2758.82	260
2759.69	264
2760.57	280
2761.44	242
2762.31	256
2763.18	276
2764.05	260
2764.92	228
2765.79	254
2766.67	262
2767.54	240
2768.41	274
2769.28	240
2770.15	256
2771.02	248
2771.89	234
2772.76	236
2773.63	234
2774.5	250
2775.37	226
2776.24	234
2777.11	260
2777.98	238
2778.85	240
2779.72	240
2780.59	240
2781.46	232
2782.32	220
2783.19	228
2784.06	228
2784.93	242
2785.8	226
2786.67	234
2787.53	226
2788.4	236
2789.27	232
2790.14	240
2791.01	232
2791.87	246
2792.74	240
2793.61	230
2794.47	232
2795.34	224
2796.21	234
2797.07	214
2797.94	218
2798.81	256
2799.67	218
2800.54	232
2801.41	218
2802.27	200
2803.14	228
2804	220
2804.87	230
2805.74	220
2806.6	212
2807.47	220
2808.33	230
2809.2	220
2810.06	232
2810.93	218
2811.79	234
2812.65	216
2813.52	222
2814.38	220
2815.25	222
2816.11	214
2816.98	216
2817.84	210
2818.7	194
2819.56	212
2820.43	216
2821.29	214
2822.16	228
2823.02	216
2823.88	210
2824.74	190
2825.61	208
2826.47	192
2827.33	204
2828.19	198
2829.05	214
2829.92	188
2830.78	214
2831.64	198
2832.5	218
2833.36	196
2834.23	198
2835.09	210
2835.95	208
2836.81	194
2837.67	194
2838.53	190
2839.39	188
2840.25	212
2841.11	206
2841.97	184
2842.83	176
2843.69	190
2844.55	196
2845.41	202
2846.27	172
2847.13	206
2847.99	182
2848.85	182
2849.71	196
2850.57	192
2851.43	204
2852.28	184
2853.14	208
2854	190
2854.86	190
2855.72	176
2856.58	176
2857.43	176
2858.29	178
2859.15	174
2860.01	180
2860.86	186
2861.72	172
2862.58	164
2863.44	190
2864.29	156
2865.15	174
2866.01	160
2866.86	182
2867.72	192
2868.58	194
2869.43	168
2870.29	160
2871.14	186
2872	188
2872.86	190
2873.71	180
2874.57	170
2875.42	166
2876.28	168
2877.13	170
2877.99	168
2878.84	186
2879.7	176
2880.55	170
2881.41	176
2882.26	180
2883.11	180
2883.97	182
2884.82	168
2885.68	148
2886.53	178
2887.39	166
2888.24	170
2889.09	156
2889.94	172
2890.8	166
2891.65	164
2892.5	172
2893.36	162
2894.21	158
2895.06	156
2895.91	170
2896.77	160
2897.62	162
2898.47	170
2899.32	158
2900.17	168
2901.03	160
2901.88	164
2902.73	166
2903.58	160
2904.43	166
2905.28	162
2906.13	154
2906.98	158
2907.84	160
2908.69	172
2909.54	152
2910.39	170
2911.24	152
2912.09	144
2912.94	152
2913.79	150
2914.64	154
2915.49	164
2916.34	152
2917.19	154
2918.03	150
2918.88	146
2919.73	150
2920.58	154
2921.43	144
2922.28	160
2923.13	146
2923.98	156
2924.82	146
2925.67	158
2926.52	160
2927.37	160
2928.22	142
2929.06	162
2929.91	146
2930.76	144
2931.61	150
2932.45	148
2933.3	154
2934.15	130
2934.99	156
2935.84	154
2936.69	160
2937.53	152
2938.38	146
2939.23	150
2940.07	136
2940.92	146
2941.76	144
2942.61	146
2943.46	144
2944.3	138
2945.15	142
2945.99	140
2946.84	138
2947.68	154
2948.53	146
2949.37	148
2950.22	154
2951.06	150
2951.9	140
2952.75	130
2953.59	142
2954.44	148
2955.28	136
2956.12	132
2956.97	142
2957.81	150
2958.65	138
2959.5	128
2960.34	144
2961.18	144
2962.03	144
2962.87	134
2963.71	138
2964.56	156
2965.4	140
2966.24	154
2967.08	132
2967.92	130
2968.77	136
2969.61	128
2970.45	138
2971.29	126
2972.13	140
2972.97	138
2973.82	120
2974.66	134
2975.5	132
2976.34	124
2977.18	134
2978.02	146
2978.86	118
2979.7	114
2980.54	124
2981.38	130
2982.22	128
2983.06	136
2983.9	132
2984.74	126
2985.58	128
2986.42	136
2987.26	136
2988.1	118
2988.94	130
2989.78	110
2990.61	128
2991.45	144
2992.29	134
2993.13	128
2993.97	140
2994.81	126
2995.64	130
2996.48	126
2997.32	110
2998.16	126
2999	116
2999.83	110
