#Acq. time (s)=	10
#Accumulations=	1
#Range (cm-¹)=	200...3000
#Windows=	3
#Autofocus=	Off
#AutoExposure=	Off
#Spike filter=	Off
#Delay time (s)=	0
#Binning=	1
#Readout mode=	Signal
#DeNoise=	Off
#ICS correction=	Off
#Dark correction=	Off
#Inst. Process=	Off
#Instrument=	LabRAM HR Evol
#Detector=	Syncerity OE
#Objective=	x100_VIS
#Grating=	600 (500nm)
#ND Filter=	0.01%
#Laser=	633nm_Edge
#Hole=	100.021
#Range=	Visible
#Project=	Omar
#Sample=	03-07-23
#Site=	papal
#Title=	leaf_100x
#Remark=	
#Date=	03.07.2023 17:11
#Acquired=	03.07.2023 17:11:03
201.713	98
202.98	88
204.247	94
205.513	102
206.778	100
208.045	98
209.311	92
210.576	92
211.84	98
213.106	104
214.371	102
215.636	90
216.899	100
218.164	100
219.428	104
220.692	104
221.955	114
223.219	104
224.482	116
225.744	116
227.007	114
228.27	114
229.531	110
230.794	108
232.055	108
233.317	120
234.579	112
235.839	114
237.1	112
238.362	124
239.621	108
240.882	110
242.141	126
243.402	118
244.661	118
245.921	120
247.179	126
248.439	122
249.698	126
250.956	136
252.215	122
253.473	134
254.731	126
255.988	124
257.246	132
258.503	122
259.761	134
261.017	118
262.273	122
263.53	112
264.786	128
266.042	122
267.298	134
268.554	132
269.809	134
271.063	140
272.319	130
273.573	136
274.828	142
276.082	160
277.336	132
278.591	136
279.844	146
281.097	144
282.351	148
283.603	158
284.855	148
286.109	148
287.361	136
288.613	138
289.866	140
291.117	144
292.368	146
293.62	152
294.871	152
296.121	156
297.372	146
298.623	168
299.873	162
301.123	154
302.372	138
303.622	146
304.872	162
306.121	156
307.37	158
308.618	156
309.866	154
311.116	170
312.364	170
313.611	168
314.859	142
316.106	172
317.353	160
318.6	178
319.848	176
321.095	190
322.341	168
323.587	186
324.833	188
326.079	190
327.324	180
328.569	174
329.814	184
331.059	184
332.304	188
333.548	174
334.792	208
336.037	184
337.28	176
338.524	180
339.767	208
341.011	174
342.254	212
343.497	204
344.739	196
345.982	200
347.224	200
348.466	194
349.708	200
350.95	198
352.191	216
353.432	186
354.673	198
355.914	198
357.155	210
358.394	196
359.634	222
360.874	188
362.114	214
363.354	212
364.593	226
365.832	218
367.07	222
368.309	228
369.548	224
370.786	218
372.024	214
373.261	220
374.499	228
375.736	236
376.974	218
378.211	208
379.447	236
380.684	228
381.92	216
383.157	246
384.392	230
385.628	214
386.864	228
388.098	226
389.333	248
390.569	244
391.802	228
393.037	236
394.272	218
395.505	224
396.739	240
397.973	234
399.206	248
400.44	252
401.673	246
402.905	258
404.138	242
405.37	262
406.602	274
407.835	256
409.066	252
410.298	248
411.528	270
412.76	292
413.99	262
415.221	290
416.451	270
417.682	268
418.911	272
420.142	280
421.371	264
422.601	284
423.83	286
425.059	278
426.288	272
427.517	286
428.745	284
429.974	296
431.201	282
432.43	302
433.657	324
434.883	304
436.111	308
437.338	296
438.565	282
439.791	302
441.017	290
442.244	318
443.469	298
444.695	304
445.921	300
447.146	312
448.37	328
449.596	332
450.821	306
452.045	316
453.27	334
454.493	330
455.717	326
456.94	338
458.165	340
459.387	316
460.61	322
461.833	358
463.056	354
464.278	344
465.5	334
466.722	330
467.945	338
469.166	356
470.387	336
471.608	366
472.829	352
474.049	334
475.271	364
476.491	356
477.711	364
478.931	348
480.15	384
481.37	374
482.589	366
483.808	380
485.027	368
486.247	370
487.465	366
488.683	374
489.901	378
491.119	364
492.337	366
493.554	392
494.771	384
495.988	412
497.205	406
498.422	384
499.638	396
500.854	406
502.07	396
503.286	396
504.502	404
505.717	404
506.933	398
508.148	412
509.363	398
510.577	386
511.792	420
513.005	414
514.219	416
515.433	412
516.647	400
517.86	418
519.073	440
520.287	424
521.5	420
522.711	436
523.924	438
525.136	424
526.348	458
527.56	416
528.772	438
529.982	424
531.194	424
532.405	436
533.616	446
534.825	402
536.036	442
537.246	458
538.457	462
539.665	428
540.875	456
542.085	492
543.294	478
544.502	462
545.712	498
546.92	464
548.128	478
549.336	452
550.545	464
551.751	482
552.959	482
554.167	490
555.373	476
556.581	464
557.788	494
558.994	500
560.2	492
561.406	496
562.612	490
563.817	536
565.023	528
566.229	516
567.433	512
568.639	516
569.843	542
571.048	516
572.251	542
573.456	522
574.659	538
575.863	534
577.066	544
578.27	518
579.472	520
580.676	538
581.878	554
583.081	540
584.283	572
585.484	560
586.687	568
587.888	578
589.09	546
590.291	590
591.493	584
592.693	576
593.893	566
595.094	576
596.294	594
597.494	590
598.694	606
599.894	612
601.093	600
602.293	632
603.491	592
604.69	626
605.889	650
607.087	622
608.285	630
609.483	622
610.682	630
611.879	624
613.076	648
614.273	650
615.471	644
616.667	642
617.864	674
619.06	666
620.256	674
621.453	680
622.648	648
623.844	684
625.039	700
626.234	706
627.429	726
628.625	700
629.819	728
631.013	734
632.208	720
633.401	732
634.595	694
635.789	706
636.982	738
638.175	736
639.369	792
640.562	756
641.755	762
642.947	736
644.139	782
645.331	774
646.523	774
647.715	770
648.906	762
650.097	772
651.288	798
652.479	786
653.67	794
654.86	790
656.051	816
657.241	812
658.429	786
659.619	836
660.808	850
661.998	834
663.187	840
664.376	864
665.565	864
666.753	874
667.942	822
669.13	836
670.317	892
671.505	858
672.692	892
673.88	892
675.067	912
676.254	884
677.44	910
678.627	902
679.813	890
681	894
682.184	884
683.37	938
684.556	944
685.742	938
686.926	952
688.111	980
689.296	936
690.481	944
691.664	972
692.849	960
694.033	980
695.216	1004
696.4	986
697.584	1018
698.766	986
699.949	1002
701.133	1044
702.314	1014
703.497	1036
704.678	1060
705.861	1038
707.043	1056
708.224	1066
709.406	1064
710.586	1078
711.768	1104
712.949	1078
714.129	1096
715.31	1080
716.489	1156
717.67	1120
718.849	1176
720.029	1130
721.208	1120
722.388	1162
723.566	1158
724.746	1196
725.924	1162
727.103	1158
728.28	1160
729.458	1202
730.636	1276
731.814	1200
732.992	1214
734.168	1216
735.345	1244
736.523	1266
737.699	1254
738.876	1250
740.052	1274
741.227	1294
742.404	1308
743.579	1298
744.754	1286
745.931	1350
747.105	1282
748.28	1374
749.455	1382
750.629	1374
751.803	1366
752.977	1384
754.152	1374
755.325	1412
756.499	1404
757.672	1362
758.846	1438
760.018	1392
761.191	1436
762.363	1396
763.535	1482
764.708	1512
765.88	1506
767.052	1474
768.223	1448
769.394	1482
770.565	1484
771.737	1534
772.908	1532
774.078	1566
775.249	1570
776.419	1538
777.589	1590
778.758	1560
779.928	1576
781.097	1586
782.266	1554
783.435	1586
784.604	1628
785.773	1610
786.941	1648
788.11	1624
789.278	1636
790.446	1670
791.613	1710
792.781	1696
793.948	1698
795.115	1750
796.282	1758
797.449	1726
798.616	1772
799.782	1804
800.948	1808
802.115	1832
803.28	1818
804.446	1784
805.612	1838
806.777	1804
807.941	1870
809.106	1898
810.271	1864
811.435	1888
812.6	1942
813.764	1950
814.927	2014
816.091	1910
817.254	1912
818.418	1914
819.581	2032
820.743	2022
821.906	2050
823.069	2038
824.232	2058
825.393	2094
826.555	2040
827.717	2118
828.879	2114
830.039	2126
831.201	2208
832.362	2162
833.522	2156
834.683	2216
835.844	2174
837.003	2204
838.164	2252
839.324	2278
840.483	2228
841.643	2314
842.801	2338
843.961	2306
845.12	2278
846.278	2342
847.437	2332
848.594	2374
849.753	2476
850.91	2458
852.069	2438
853.227	2446
854.383	2502
855.541	2464
856.697	2444
857.855	2440
859.011	2486
860.168	2554
861.323	2524
862.48	2582
863.635	2608
864.79	2602
865.946	2588
867.101	2694
868.257	2634
869.411	2688
870.567	2692
871.721	2674
872.874	2690
874.029	2710
875.183	2786
876.336	2714
877.49	2780
878.643	2726
879.796	2760
880.95	2812
882.102	2828
883.254	2904
884.407	2854
885.559	2916
886.711	2844
887.862	2916
889.015	2912
890.166	2954
891.317	2990
892.467	2974
893.619	3050
894.77	2944
895.92	3044
897.07	3094
898.221	3068
899.371	3050
900.52	3080
901.669	3036
902.819	3126
903.968	3094
905.116	3196
906.266	3198
907.415	3264
908.563	3200
909.711	3242
910.859	3242
912.007	3236
913.154	3250
914.301	3348
915.449	3344
916.596	3290
917.742	3314
918.889	3390
920.036	3394
921.183	3420
922.329	3434
923.475	3418
924.621	3478
925.765	3520
926.911	3564
928.056	3564
929.201	3556
930.346	3624
931.49	3614
932.635	3582
933.779	3662
934.924	3668
936.068	3680
937.211	3724
938.355	3698
939.498	3758
940.64	3852
941.784	3796
942.926	3874
944.069	3890
945.212	3858
946.354	3912
947.495	3924
948.637	3874
949.779	3968
950.921	4038
952.062	4030
953.202	3962
954.344	4030
955.484	4100
956.625	4124
957.765	4138
958.905	4116
960.045	4202
961.184	4220
962.324	4280
963.464	4212
964.604	4278
965.742	4258
966.881	4362
968.02	4330
969.158	4300
970.296	4378
971.434	4294
972.572	4496
973.71	4470
974.847	4344
975.985	4592
977.121	4572
978.259	4588
979.396	4504
980.532	4584
981.669	4646
982.804	4642
983.941	4730
985.076	4780
986.212	4670
987.347	4660
988.483	4730
989.617	4812
990.753	4756
991.887	4820
993.022	4890
994.156	4956
995.29	4972
996.424	4916
997.558	4958
998.692	5014
999.825	4926
1000.96	4978
1002.09	5000
1003.22	5102
1004.36	5082
1005.49	5014
1006.62	5224
1007.75	5152
1008.89	5186
1010.02	5134
1011.15	5210
1012.28	5334
1013.41	5372
1014.54	5260
1015.67	5428
1016.8	5354
1017.93	5396
1019.07	5518
1020.19	5456
1021.32	5564
1022.45	5548
1023.58	5538
1024.71	5586
1025.84	5684
1026.97	5692
1028.1	5780
1029.23	5696
1030.36	5794
1031.49	5830
1032.61	5828
1033.74	5866
1034.87	5872
1036	5868
1037.12	6020
1038.25	5948
1039.38	5976
1040.5	6000
1041.63	6022
1042.76	6200
1043.88	6130
1045.01	6170
1046.14	6190
1047.26	6222
1048.39	6360
1049.51	6326
1050.64	6296
1051.76	6362
1052.89	6298
1054.01	6470
1055.14	6486
1056.26	6472
1057.38	6388
1058.51	6480
1059.63	6504
1060.75	6600
1061.88	6577
1063	6554
1064.12	6604
1065.25	6726
1066.37	6778
1067.49	6734
1068.61	6810
1069.73	6760
1070.86	6866
1071.98	6896
1073.1	6930
1074.22	6918
1075.34	6956
1076.46	6860
1077.58	6968
1078.7	7096
1079.82	6900
1080.94	7066
1082.06	7060
1083.18	7128
1084.3	7146
1085.42	7150
1086.54	7088
1087.66	7070
1088.78	7226
1089.9	7174
1091.02	7188
1092.14	7234
1093.25	7104
1094.37	7146
1095.49	7284
1096.61	7302
1097.72	7352
1098.84	7430
1099.96	7400
1101.08	7398
1102.19	7432
1103.31	7446
1104.43	7538
1105.54	7418
1106.66	7494
1107.77	7556
1108.89	7520
1110	7510
1111.12	7738
1112.23	7602
1113.35	7584
1114.46	7588
1115.58	7594
1116.69	7686
1117.81	7746
1118.92	7754
1120.03	7800
1121.15	7736
1122.26	7796
1123.37	7744
1124.49	7822
1125.6	7908
1126.71	7880
1127.83	7896
1128.94	7918
1130.05	7966
1131.16	7920
1132.27	8026
1133.39	7920
1134.5	8116
1135.61	8074
1136.72	8008
1137.83	7982
1138.94	8104
1140.05	8092
1141.16	8122
1142.27	8166
1143.38	8144
1144.49	8178
1145.6	8218
1146.71	8200
1147.82	8362
1148.93	8286
1150.04	8258
1151.15	8410
1152.26	8314
1153.36	8286
1154.47	8334
1155.58	8370
1156.69	8270
1157.8	8348
1158.9	8390
1160.01	8366
1161.12	8338
1162.22	8388
1163.33	8520
1164.44	8464
1165.54	8372
1166.65	8506
1167.76	8436
1168.86	8450
1169.97	8372
1171.07	8372
1172.18	8404
1173.28	8362
1174.39	8336
1175.49	8320
1176.6	8410
1177.7	8434
1178.81	8270
1179.91	8326
1181.02	8466
1182.12	8316
1183.22	8412
1184.33	8362
1185.43	8332
1186.53	8250
1187.63	8178
1188.74	8200
1189.84	8318
1190.94	8260
1192.04	8336
1193.15	8298
1194.25	8194
1195.35	8126
1196.45	8192
1197.55	8192
1198.65	8148
1199.75	8040
1200.85	8084
1201.95	8152
1203.05	8046
1204.16	8050
1205.25	8014
1206.35	7988
1207.45	8018
1208.55	7902
1209.65	7932
1210.75	7898
1211.85	7888
1212.95	7920
1214.05	7828
1215.15	7774
1216.24	7798
1217.34	7876
1218.44	7714
1219.54	7660
1220.64	7708
1221.73	7678
1222.83	7690
1223.93	7608
1225.02	7596
1226.12	7694
1227.22	7504
1228.31	7558
1229.41	7566
1230.5	7568
1231.6	7490
1232.7	7490
1233.79	7386
1234.89	7476
1235.98	7408
1237.08	7350
1238.17	7306
1239.26	7428
1240.36	7262
1241.45	7350
1242.55	7278
1243.64	7206
1244.73	7262
1245.83	7146
1246.92	7176
1248.01	7124
1249.11	7118
1250.2	7036
1251.29	6992
1252.38	7042
1253.48	6964
1254.57	7000
1255.66	6874
1256.75	6912
1257.84	6866
1258.93	6826
1260.03	6848
1261.12	6952
1262.21	6796
1263.3	6692
1264.39	6796
1265.48	6668
1266.57	6678
1267.66	6578
1268.75	6594
1269.84	6558
1270.93	6504
1272.02	6586
1273.11	6570
1274.19	6536
1275.28	6404
1276.37	6430
1277.46	6370
1278.55	6342
1279.64	6340
1280.72	6336
1281.81	6366
1282.9	6308
1283.98	6181.51
1285.07	6136.86
1286.16	6146.62
1287.25	6133.58
1288.33	6232.49
1289.42	6084.56
1290.5	6027.74
1291.59	6002.07
1292.68	5968.62
1293.76	6040.6
1294.85	5860.95
1295.93	5911.02
1297.02	5791.43
1298.1	5844.34
1299.19	5825.19
1300.27	5756.22
1301.36	5750.84
1302.44	5730.99
1303.53	5705.64
1304.61	5690.66
1305.69	5643.32
1306.78	5647.35
1307.86	5542.56
1308.94	5483.39
1310.03	5433.36
1311.11	5461.77
1312.19	5456.2
1313.27	5381.99
1314.36	5372.89
1315.44	5357.21
1316.52	5294.25
1317.6	5362.23
1318.68	5248.63
1319.77	5269.01
1320.85	5175.99
1321.93	5161.62
1323.01	5125.9
1324.09	5098.94
1325.17	5136.76
1326.25	5024.77
1327.33	4998.61
1328.41	4979.81
1329.49	4969.53
1330.57	4941.26
1331.65	4919.58
1332.73	4847.63
1333.81	4877.02
1334.89	4861.17
1335.97	4763.99
1337.04	4812.58
1338.12	4755.7
1339.2	4741.8
1340.28	4754.15
1341.36	4683.4
1342.44	4653.7
1343.51	4614.23
1344.59	4615.92
1345.67	4577.43
1346.75	4583.15
1347.82	4512.48
1348.9	4458.45
1349.98	4466.32
1351.05	4489.13
1352.13	4460.81
1353.2	4370.98
1354.28	4459.26
1355.36	4340.66
1356.43	4299.28
1357.51	4364.78
1358.58	4356.81
1359.66	4305.57
1360.73	4223.83
1361.81	4198.92
1362.88	4227.37
1363.96	4118.33
1365.03	4138.58
1366.1	4182.43
1367.18	4086.69
1368.25	4115.57
1369.33	4029.99
1370.4	4035.57
1371.47	3985.28
1372.54	4015.37
1373.62	4011.89
1374.69	4001.48
1375.76	3950.38
1376.83	3959.53
1377.91	4017.07
1378.98	3874.38
1380.05	3876.01
1381.12	3789.1
1382.19	3826.57
1383.26	3810.78
1384.34	3831.86
1385.41	3775.91
1386.48	3800.84
1387.55	3766.16
1388.62	3776.91
1389.69	3744.96
1390.76	3688.37
1391.83	3693.1
1392.9	3648.9
1393.02	3642
1394.1	3618
1395.17	3648
1396.25	3692
1397.32	3682
1398.4	3656
1399.47	3552
1400.55	3558
1401.62	3512
1402.69	3538
1403.77	3516
1404.84	3462
1405.91	3468
1406.99	3406
1408.06	3442
1409.13	3432
1410.2	3464
1411.27	3406
1412.35	3362
1413.42	3370
1414.49	3340
1415.56	3364
1416.63	3354
1417.7	3312
1418.78	3298
1419.85	3308
1420.92	3300
1421.99	3212
1423.06	3258
1424.13	3260
1425.2	3190
1426.27	3166
1427.34	3228
1428.41	3188
1429.48	3184
1430.55	3180
1431.61	3178
1432.68	3176
1433.75	3080
1434.82	3108
1435.89	3124
1436.96	3080
1438.02	3076
1439.09	3012
1440.16	2994
1441.23	3060
1442.3	2948
1443.36	3018
1444.43	2940
1445.5	2966
1446.56	2966
1447.63	2984
1448.7	2940
1449.76	2896
1450.83	2934
1451.89	2964
1452.96	2878
1454.02	2872
1455.09	2880
1456.15	2876
1457.22	2880
1458.28	2862
1459.35	2866
1460.41	2804
1461.48	2804
1462.54	2898
1463.61	2840
1464.67	2830
1465.73	2814
1466.8	2784
1467.86	2806
1468.92	2776
1469.98	2764
1471.05	2806
1472.11	2758
1473.17	2714
1474.24	2672
1475.3	2744
1476.36	2722
1477.42	2648
1478.48	2664
1479.54	2618
1480.6	2686
1481.67	2662
1482.73	2638
1483.79	2708
1484.85	2590
1485.91	2590
1486.97	2630
1488.03	2638
1489.09	2586
1490.15	2590
1491.21	2584
1492.27	2550
1493.33	2534
1494.38	2616
1495.44	2494
1496.5	2558
1497.56	2566
1498.62	2526
1499.68	2476
1500.74	2536
1501.79	2516
1502.85	2496
1503.91	2490
1504.97	2538
1506.02	2486
1507.08	2490
1508.14	2400
1509.2	2504
1510.25	2448
1511.31	2418
1512.36	2424
1513.42	2456
1514.48	2410
1515.53	2372
1516.59	2340
1517.64	2394
1518.7	2342
1519.75	2386
1520.81	2332
1521.86	2320
1522.92	2346
1523.97	2370
1525.02	2304
1526.08	2306
1527.13	2330
1528.19	2272
1529.24	2248
1530.29	2266
1531.35	2310
1532.4	2322
1533.45	2248
1534.51	2294
1535.56	2276
1536.61	2300
1537.66	2192
1538.72	2200
1539.77	2208
1540.82	2200
1541.87	2208
1542.92	2158
1543.97	2238
1545.02	2176
1546.08	2180
1547.13	2176
1548.18	2146
1549.23	2142
1550.28	2150
1551.33	2116
1552.38	2164
1553.43	2098
1554.48	2120
1555.53	2148
1556.57	2074
1557.62	2096
1558.67	2158
1559.72	2120
1560.77	2098
1561.82	2146
1562.87	2050
1563.92	2130
1564.96	2102
1566.01	2106
1567.06	2058
1568.11	2038
1569.15	2076
1570.2	2066
1571.25	2062
1572.29	2052
1573.34	2010
1574.39	2032
1575.43	2016
1576.48	2026
1577.53	2000
1578.57	1974
1579.62	1974
1580.66	1986
1581.71	2060
1582.75	2040
1583.8	1968
1584.84	2032
1585.89	1980
1586.93	2006
1587.98	2046
1589.02	2062
1590.06	1990
1591.11	2006
1592.15	1954
1593.2	1946
1594.24	1934
1595.28	1924
1596.33	2012
1597.37	1976
1598.41	1870
1599.45	1994
1600.5	1942
1601.54	1886
1602.58	1930
1603.62	1944
1604.66	1914
1605.7	1936
1606.75	1928
1607.79	1956
1608.83	1976
1609.87	1904
1610.91	1938
1611.95	1890
1612.99	1922
1614.03	1880
1615.07	1914
1616.11	1856
1617.15	1870
1618.19	1854
1619.23	1868
1620.27	1870
1621.31	1888
1622.35	1822
1623.39	1864
1624.43	1866
1625.46	1876
1626.5	1894
1627.54	1822
1628.58	1898
1629.62	1876
1630.65	1850
1631.69	1856
1632.73	1832
1633.77	1830
1634.8	1822
1635.84	1826
1636.88	1856
1637.91	1824
1638.95	1860
1639.99	1796
1641.02	1836
1642.06	1766
1643.09	1800
1644.13	1844
1645.16	1828
1646.2	1790
1647.23	1800
1648.27	1796
1649.3	1816
1650.34	1824
1651.37	1814
1652.41	1806
1653.44	1746
1654.47	1776
1655.51	1730
1656.54	1774
1657.57	1780
1658.61	1854
1659.64	1794
1660.67	1756
1661.71	1768
1662.74	1776
1663.77	1788
1664.81	1734
1665.84	1724
1666.87	1752
1667.9	1730
1668.93	1730
1669.96	1718
1671	1704
1672.03	1740
1673.06	1768
1674.09	1714
1675.12	1730
1676.15	1674
1677.18	1770
1678.21	1688
1679.24	1726
1680.27	1714
1681.3	1710
1682.33	1664
1683.36	1686
1684.39	1722
1685.42	1686
1686.45	1700
1687.47	1730
1688.5	1732
1689.53	1650
1690.56	1692
1691.59	1702
1692.62	1694
1693.64	1730
1694.67	1692
1695.7	1668
1696.73	1724
1697.75	1700
1698.78	1720
1699.81	1708
1700.83	1618
1701.86	1652
1702.89	1674
1703.91	1622
1704.94	1690
1705.97	1584
1706.99	1654
1708.02	1676
1709.04	1650
1710.07	1686
1711.09	1632
1712.12	1652
1713.14	1594
1714.17	1632
1715.19	1618
1716.22	1622
1717.24	1640
1718.26	1596
1719.29	1642
1720.31	1608
1721.33	1596
1722.36	1614
1723.38	1674
1724.4	1632
1725.43	1600
1726.45	1610
1727.47	1600
1728.49	1604
1729.52	1606
1730.54	1596
1731.56	1646
1732.58	1550
1733.6	1610
1734.63	1562
1735.65	1598
1736.67	1536
1737.69	1558
1738.71	1566
1739.73	1600
1740.75	1608
1741.77	1604
1742.79	1570
1743.81	1602
1744.83	1540
1745.85	1562
1746.87	1548
1747.89	1604
1748.91	1634
1749.93	1592
1750.95	1546
1751.97	1584
1752.98	1576
1754	1568
1755.02	1572
1756.04	1562
1757.06	1600
1758.07	1554
1759.09	1590
1760.11	1582
1761.13	1536
1762.14	1570
1763.16	1608
1764.18	1570
1765.19	1560
1766.21	1588
1767.23	1532
1768.24	1552
1769.26	1568
1770.28	1590
1771.29	1566
1772.31	1572
1773.32	1522
1774.34	1546
1775.35	1578
1776.37	1540
1777.38	1576
1778.4	1556
1779.41	1592
1780.43	1542
1781.44	1534
1782.45	1534
1783.47	1526
1784.48	1584
1785.49	1580
1786.51	1516
1787.52	1576
1788.53	1560
1789.55	1552
1790.56	1550
1791.57	1552
1792.58	1580
1793.6	1540
1794.61	1580
1795.62	1520
1796.63	1564
1797.64	1538
1798.66	1508
1799.67	1556
1800.68	1510
1801.69	1562
1802.7	1502
1803.71	1552
1804.72	1556
1805.73	1560
1806.74	1560
1807.75	1548
1808.76	1512
1809.77	1568
1810.78	1544
1811.79	1496
1812.8	1568
1813.81	1528
1814.82	1514
1815.83	1550
1816.84	1514
1817.84	1538
1818.85	1570
1819.86	1546
1820.87	1546
1821.88	1534
1822.88	1486
1823.89	1528
1824.9	1496
1825.91	1490
1826.91	1540
1827.92	1512
1828.93	1540
1829.93	1486
1830.94	1542
1831.95	1506
1832.95	1444
1833.96	1490
1834.97	1490
1835.97	1472
1836.98	1530
1837.98	1492
1838.99	1514
1839.99	1482
1841	1506
1842	1472
1843.01	1520
1844.01	1450
1845.02	1474
1846.02	1454
1847.02	1510
1848.03	1522
1849.03	1484
1850.03	1486
1851.04	1518
1852.04	1490
1853.04	1478
1854.05	1510
1855.05	1444
1856.05	1512
1857.05	1480
1858.06	1468
1859.06	1512
1860.06	1454
1861.06	1446
1862.06	1476
1863.07	1454
1864.07	1508
1865.07	1466
1866.07	1424
1867.07	1470
1868.07	1496
1869.07	1484
1870.07	1428
1871.07	1480
1872.07	1454
1873.07	1506
1874.07	1438
1875.07	1458
1876.07	1468
1877.07	1492
1878.07	1482
1879.07	1478
1880.07	1446
1881.07	1498
1882.07	1476
1883.06	1506
1884.06	1512
1885.06	1418
1886.06	1494
1887.06	1448
1888.05	1486
1889.05	1480
1890.05	1446
1891.05	1436
1892.04	1424
1893.04	1396
1894.04	1476
1895.03	1508
1896.03	1430
1897.03	1440
1898.02	1450
1899.02	1504
1900.01	1480
1901.01	1464
1902	1456
1903	1424
1903.99	1502
1904.99	1426
1905.98	1432
1906.98	1432
1907.97	1446
1908.97	1484
1909.96	1482
1910.96	1410
1911.95	1450
1912.94	1452
1913.94	1484
1914.93	1454
1915.93	1426
1916.92	1408
1917.91	1474
1918.9	1430
1919.9	1426
1920.89	1434
1921.88	1462
1922.87	1412
1923.87	1444
1924.86	1440
1925.85	1406
1926.84	1404
1927.83	1376
1928.82	1440
1929.82	1462
1930.81	1448
1931.8	1426
1932.79	1426
1933.78	1420
1934.77	1442
1935.76	1416
1936.75	1384
1937.74	1432
1938.73	1440
1939.72	1406
1940.71	1420
1941.7	1404
1942.69	1394
1943.68	1394
1944.67	1400
1945.65	1398
1946.64	1424
1947.63	1430
1948.62	1386
1949.61	1404
1950.6	1438
1951.58	1422
1952.57	1434
1953.56	1412
1954.55	1358
1955.53	1388
1956.52	1396
1957.51	1384
1958.5	1416
1959.48	1376
1960.47	1378
1961.45	1390
1962.44	1376
1963.43	1484
1964.41	1402
1965.4	1408
1966.38	1416
1967.37	1342
1968.35	1366
1969.34	1418
1970.32	1420
1971.31	1434
1972.29	1378
1973.28	1412
1974.26	1420
1975.25	1374
1976.23	1408
1977.22	1322
1978.2	1380
1979.18	1386
1980.17	1368
1981.15	1400
1982.13	1376
1983.12	1358
1984.1	1376
1985.08	1394
1986.06	1362
1987.05	1346
1988.03	1312
1989.01	1382
1989.99	1394
1990.97	1414
1991.96	1336
1992.94	1372
1993.92	1376
1994.9	1318
1995.88	1370
1996.86	1348
1997.84	1392
1998.82	1322
1999.8	1368
2000.78	1338
2001.76	1336
2002.74	1348
2003.72	1368
2004.7	1316
2005.68	1354
2006.66	1322
2007.64	1364
2008.62	1328
2009.6	1328
2010.58	1372
2011.56	1368
2012.54	1326
2013.51	1384
2014.49	1332
2015.47	1320
2016.45	1346
2017.43	1398
2018.4	1356
2019.38	1364
2020.36	1358
2021.34	1362
2022.31	1366
2023.29	1318
2024.27	1372
2025.24	1346
2026.22	1374
2027.2	1360
2028.17	1349
2029.15	1338
2030.12	1312
2031.1	1358
2032.07	1348
2033.05	1298
2034.03	1364
2035	1368
2035.98	1334
2036.95	1330
2037.93	1360
2038.9	1346
2039.87	1312
2040.85	1320
2041.82	1330
2042.8	1358
2043.77	1306
2044.74	1304
2045.72	1300
2046.69	1324
2047.66	1302
2048.64	1312
2049.61	1328
2050.58	1302
2051.55	1336
2052.53	1314
2053.5	1356
2054.47	1314
2055.44	1286
2056.41	1336
2057.39	1320
2058.36	1324
2059.33	1304
2060.3	1354
2061.27	1282
2062.24	1312
2063.21	1322
2064.18	1270
2065.15	1354
2066.12	1296
2067.09	1290
2068.06	1328
2069.03	1314
2070	1268
2070.97	1240
2071.94	1300
2072.91	1314
2073.88	1306
2074.85	1296
2075.82	1292
2076.79	1302
2077.76	1344
2078.73	1276
2079.69	1278
2080.66	1292
2081.63	1302
2082.6	1320
2083.56	1278
2084.53	1326
2085.5	1284
2086.47	1304
2087.43	1288
2088.4	1270
2089.37	1258
2090.33	1318
2091.3	1278
2092.27	1304
2093.23	1340
2094.2	1278
2095.17	1302
2096.13	1266
2097.1	1310
2098.06	1246
2099.03	1260
2099.99	1270
2100.96	1296
2101.92	1298
2102.89	1312
2103.85	1316
2104.82	1298
2105.78	1290
2106.74	1274
2107.71	1286
2108.67	1270
2109.64	1256
2110.6	1354
2111.56	1280
2112.53	1222
2113.49	1250
2114.45	1246
2115.41	1282
2116.38	1274
2117.34	1272
2118.3	1262
2119.26	1290
2120.23	1276
2121.19	1302
2122.15	1268
2123.11	1250
2124.07	1314
2125.03	1264
2126	1232
2126.96	1294
2127.92	1306
2128.88	1278
2129.84	1266
2130.8	1270
2131.76	1264
2132.72	1246
2133.68	1316
2134.64	1244
2135.6	1292
2136.56	1314
2137.52	1302
2138.48	1240
2139.44	1274
2140.4	1292
2141.35	1264
2142.31	1298
2143.27	1252
2144.23	1230
2145.19	1266
2146.15	1254
2147.1	1250
2148.06	1248
2149.02	1278
2149.98	1280
2150.94	1250
2151.89	1262
2152.85	1232
2153.81	1266
2154.76	1258
2155.72	1230
2156.68	1272
2157.63	1270
2158.59	1234
2159.55	1276
2160.5	1236
2161.46	1262
2162.41	1248
2163.37	1232
2164.32	1232
2165.28	1242
2166.23	1270
2167.19	1178
2168.14	1256
2169.1	1232
2170.05	1204
2171.01	1218
2171.96	1248
2172.91	1262
2173.87	1236
2174.82	1218
2175.78	1248
2176.73	1238
2177.68	1226
2178.64	1174
2179.59	1250
2180.54	1178
2181.49	1180
2182.45	1222
2183.4	1214
2184.35	1206
2185.3	1226
2186.26	1176
2187.21	1230
2188.16	1218
2189.11	1262
2190.06	1198
2191.01	1178
2191.96	1214
2192.92	1164
2193.87	1154
2194.82	1184
2195.77	1248
2196.72	1198
2197.67	1222
2198.62	1248
2199.57	1198
2200.52	1172
2201.47	1146
2202.42	1180
2203.37	1178
2204.32	1196
2205.27	1188
2206.22	1200
2207.16	1174
2208.11	1220
2209.06	1212
2210.01	1174
2210.96	1174
2211.91	1178
2212.85	1222
2213.8	1192
2214.75	1204
2215.7	1176
2216.64	1144
2217.59	1142
2218.54	1186
2219.49	1178
2220.43	1166
2221.38	1138
2222.33	1154
2223.27	1213.5
2224.22	1206.36
2225.16	1157.98
2226.11	1177.85
2227.06	1174.35
2228	1194.78
2228.95	1187.43
2229.89	1196.66
2230.84	1167.2
2231.78	1155.42
2232.73	1146.19
2233.67	1144.31
2234.62	1144.01
2235.56	1154.57
2236.51	1169.58
2237.45	1169.17
2238.4	1178.86
2239.34	1202.84
2240.28	1145.7
2241.23	1130.03
2242.17	1131.64
2243.11	1116.8
2244.06	1132.29
2245	1116.32
2245.94	1143.78
2246.89	1143.57
2247.83	1167.08
2248.77	1118.56
2249.71	1146.13
2250.66	1145.56
2251.6	1114.64
2252.54	1143.51
2253.48	1110.94
2254.42	1121.79
2255.37	1105.17
2256.31	1110.07
2257.25	1107.07
2258.19	1119.1
2259.13	1115.55
2260.07	1119.41
2261.01	1098.68
2261.95	1114.08
2262.89	1136.61
2263.83	1135.03
2264.77	1127.13
2265.71	1131.35
2266.65	1109.12
2267.59	1102.09
2268.53	1109.32
2269.47	1112.59
2270.41	1107.16
2271.35	1096.15
2272.29	1083.33
2273.23	1099.94
2274.17	1077.23
2275.1	1058.92
2276.04	1065.04
2276.98	1088.36
2277.92	1091.43
2278.86	1080.84
2279.8	1078.03
2280.73	1069.38
2281.67	1082.57
2282.61	1085.54
2283.55	1088.04
2284.48	1085.27
2285.42	1054.73
2286.36	1064.36
2287.29	1062.79
2288.23	1062.71
2289.17	1036.51
2290.1	1053.73
2291.04	1057.55
2291.98	1062.12
2292.91	1052.65
2293.85	1056.11
2294.78	1046.44
2295.72	1059.09
2296.65	1067.37
2297.59	1062.14
2298.52	1062.1
2299.46	1044.5
2300.39	1050.01
2301.33	1062.51
2302.26	1054.52
2303.2	1029.08
2304.13	1016.87
2305.06	1017.52
2306	1019.21
2306.93	1020.15
2307.87	1039.38
2308.8	1032.62
2309.73	1015.42
2310.67	1034.52
2311.6	1021.54
2312.53	998.26
2313.46	988.451
2314.4	997.759
2315.33	1009.32
2316.26	992.744
2316.69	978
2317.62	994
2318.56	1046
2319.5	1014
2320.43	1008
2321.37	1006
2322.31	1030
2323.24	1010
2324.18	1000
2325.12	1050
2326.05	980
2326.99	1014
2327.92	998
2328.86	940
2329.79	960
2330.73	1006
2331.66	986
2332.6	992
2333.53	984
2334.47	966
2335.4	974
2336.34	950
2337.27	958
2338.2	960
2339.14	1000
2340.07	994
2341.01	952
2341.94	968
2342.87	936
2343.81	960
2344.74	970
2345.67	980
2346.6	926
2347.54	974
2348.47	930
2349.4	970
2350.33	946
2351.27	952
2352.2	966
2353.13	962
2354.06	950
2354.99	974
2355.93	940
2356.86	928
2357.79	950
2358.72	948
2359.65	920
2360.58	968
2361.51	950
2362.44	956
2363.37	958
2364.3	940
2365.23	940
2366.16	936
2367.09	934
2368.02	962
2368.95	908
2369.88	912
2370.81	916
2371.74	948
2372.67	952
2373.6	958
2374.52	942
2375.45	928
2376.38	920
2377.31	918
2378.24	954
2379.17	906
2380.09	918
2381.02	934
2381.95	928
2382.88	906
2383.8	918
2384.73	890
2385.66	910
2386.58	884
2387.51	908
2388.44	890
2389.36	930
2390.29	906
2391.22	898
2392.14	890
2393.07	878
2393.99	884
2394.92	920
2395.85	886
2396.77	920
2397.7	876
2398.62	852
2399.55	908
2400.47	868
2401.4	864
2402.32	892
2403.25	876
2404.17	876
2405.09	850
2406.02	880
2406.94	844
2407.86	862
2408.79	866
2409.71	834
2410.63	898
2411.56	880
2412.48	870
2413.4	874
2414.33	848
2415.25	876
2416.17	840
2417.09	826
2418.02	866
2418.94	850
2419.86	828
2420.78	836
2421.7	828
2422.63	836
2423.55	840
2424.47	828
2425.39	818
2426.31	836
2427.23	844
2428.15	846
2429.07	818
2429.99	794
2430.91	818
2431.83	834
2432.75	836
2433.67	824
2434.59	828
2435.51	834
2436.43	820
2437.35	788
2438.27	786
2439.19	778
2440.11	798
2441.03	794
2441.95	750
2442.86	756
2443.78	784
2444.7	766
2445.62	762
2446.54	790
2447.46	794
2448.37	806
2449.29	792
2450.21	792
2451.13	790
2452.04	786
2452.96	794
2453.88	806
2454.79	812
2455.71	786
2456.63	758
2457.54	768
2458.46	754
2459.38	752
2460.29	782
2461.21	760
2462.12	730
2463.04	724
2463.95	772
2464.87	800
2465.78	790
2466.7	746
2467.61	748
2468.53	758
2469.44	750
2470.36	764
2471.27	796
2472.19	720
2473.1	760
2474.01	746
2474.93	738
2475.84	724
2476.76	712
2477.67	696
2478.58	746
2479.5	746
2480.41	716
2481.32	730
2482.23	706
2483.15	698
2484.06	748
2484.97	744
2485.88	720
2486.8	734
2487.71	726
2488.62	720
2489.53	696
2490.44	686
2491.35	696
2492.26	686
2493.18	696
2494.09	760
2495	700
2495.91	690
2496.82	720
2497.73	700
2498.64	704
2499.55	702
2500.46	688
2501.37	650
2502.28	684
2503.19	698
2504.1	666
2505.01	684
2505.92	670
2506.83	692
2507.74	670
2508.65	662
2509.55	660
2510.46	670
2511.37	678
2512.28	678
2513.19	644
2514.09	658
2515	646
2515.91	640
2516.82	672
2517.73	650
2518.63	664
2519.54	682
2520.45	650
2521.35	698
2522.26	658
2523.17	656
2524.07	658
2524.98	624
2525.89	626
2526.79	672
2527.7	618
2528.6	642
2529.51	614
2530.42	664
2531.32	646
2532.23	626
2533.13	602
2534.04	640
2534.94	648
2535.85	658
2536.75	636
2537.66	618
2538.56	606
2539.47	630
2540.37	636
2541.27	592
2542.18	636
2543.08	644
2543.98	634
2544.89	608
2545.79	600
2546.7	604
2547.6	626
2548.5	622
2549.4	584
2550.31	578
2551.21	590
2552.11	602
2553.01	588
2553.92	626
2554.82	578
2555.72	590
2556.62	602
2557.52	604
2558.42	608
2559.33	596
2560.23	594
2561.13	600
2562.03	564
2562.93	584
2563.83	588
2564.73	614
2565.63	566
2566.53	596
2567.43	560
2568.33	562
2569.23	568
2570.13	584
2571.03	570
2571.93	582
2572.83	550
2573.73	564
2574.63	566
2575.53	576
2576.43	602
2577.33	562
2578.22	530
2579.12	568
2580.02	548
2580.92	556
2581.82	562
2582.72	550
2583.61	548
2584.51	550
2585.41	572
2586.31	542
2587.2	574
2588.1	556
2589	528
2589.89	538
2590.79	560
2591.69	518
2592.58	568
2593.48	552
2594.38	548
2595.27	520
2596.17	516
2597.06	534
2597.96	516
2598.86	548
2599.75	544
2600.65	514
2601.54	528
2602.44	494
2603.33	530
2604.23	510
2605.12	550
2606.02	504
2606.91	506
2607.81	502
2608.7	508
2609.59	504
2610.49	508
2611.38	502
2612.27	518
2613.17	474
2614.06	484
2614.95	504
2615.85	508
2616.74	520
2617.63	498
2618.53	526
2619.42	490
2620.31	458
2621.2	502
2622.1	484
2622.99	504
2623.88	470
2624.77	496
2625.66	482
2626.55	494
2627.45	476
2628.34	492
2629.23	478
2630.12	470
2631.01	474
2631.9	478
2632.79	476
2633.68	474
2634.57	470
2635.46	502
2636.35	466
2637.24	476
2638.13	478
2639.02	452
2639.91	480
2640.8	446
2641.69	486
2642.58	494
2643.47	446
2644.36	460
2645.25	484
2646.14	450
2647.02	442
2647.91	470
2648.8	446
2649.69	434
2650.58	458
2651.46	458
2652.35	456
2653.24	440
2654.13	454
2655.01	432
2655.9	422
2656.79	454
2657.68	472
2658.56	428
2659.45	472
2660.34	426
2661.22	434
2662.11	438
2662.99	450
2663.88	430
2664.77	452
2665.65	426
2666.54	434
2667.42	444
2668.31	446
2669.2	438
2670.08	456
2670.96	398
2671.85	418
2672.73	444
2673.62	434
2674.5	424
2675.39	434
2676.27	434
2677.16	428
2678.04	436
2678.93	426
2679.81	416
2680.69	432
2681.58	420
2682.46	376
2683.34	416
2684.23	430
2685.11	394
2685.99	402
2686.87	416
2687.76	404
2688.64	430
2689.52	390
2690.4	392
2691.28	400
2692.17	418
2693.05	414
2693.93	380
2694.81	412
2695.69	382
2696.57	402
2697.46	420
2698.34	404
2699.22	416
2700.1	406
2700.98	392
2701.86	400
2702.74	394
2703.62	384
2704.5	390
2705.38	386
2706.26	402
2707.14	388
2708.02	382
2708.9	374
2709.78	382
2710.66	386
2711.54	376
2712.42	374
2713.3	380
2714.17	370
2715.05	362
2715.93	384
2716.81	374
2717.69	360
2718.57	388
2719.44	356
2720.32	378
2721.2	388
2722.08	370
2722.95	350
2723.83	366
2724.71	364
2725.59	344
2726.46	346
2727.34	370
2728.22	366
2729.09	360
2729.97	338
2730.85	368
2731.72	356
2732.6	340
2733.47	340
2734.35	356
2735.23	356
2736.1	356
2736.98	344
2737.85	336
2738.73	324
2739.6	332
2740.48	354
2741.35	338
2742.23	362
2743.1	332
2743.98	360
2744.85	342
2745.72	342
2746.6	320
2747.47	340
2748.35	336
2749.22	324
2750.09	350
2750.97	322
2751.84	304
2752.71	330
2753.59	302
2754.46	328
2755.33	330
2756.2	328
2757.08	334
2757.95	324
2758.82	318
2759.69	326
2760.57	332
2761.44	356
2762.31	320
2763.18	316
2764.05	314
2764.92	300
2765.79	318
2766.67	286
2767.54	290
2768.41	310
2769.28	306
2770.15	316
2771.02	300
2771.89	288
2772.76	316
2773.63	310
2774.5	322
2775.37	298
2776.24	324
2777.11	308
2777.98	292
2778.85	288
2779.72	298
2780.59	286
2781.46	274
2782.32	290
2783.19	294
2784.06	292
2784.93	284
2785.8	278
2786.67	294
2787.53	302
2788.4	302
2789.27	282
2790.14	290
2791.01	302
2791.87	294
2792.74	290
2793.61	266
2794.47	274
2795.34	292
2796.21	278
2797.07	284
2797.94	298
2798.81	296
2799.67	278
2800.54	266
2801.41	282
2802.27	272
2803.14	278
2804	260
2804.87	286
2805.74	280
2806.6	278
2807.47	284
2808.33	280
2809.2	252
2810.06	288
2810.93	262
2811.79	272
2812.65	264
2813.52	268
2814.38	268
2815.25	278
2816.11	264
2816.98	270
2817.84	246
2818.7	268
2819.56	254
2820.43	246
2821.29	264
2822.16	264
2823.02	258
2823.88	246
2824.74	252
2825.61	258
2826.47	254
2827.33	262
2828.19	238
2829.05	246
2829.92	274
2830.78	250
2831.64	242
2832.5	248
2833.36	236
2834.23	246
2835.09	250
2835.95	252
2836.81	234
2837.67	230
2838.53	240
2839.39	218
2840.25	234
2841.11	242
2841.97	236
2842.83	240
2843.69	222
2844.55	236
2845.41	230
2846.27	210
2847.13	254
2847.99	232
2848.85	244
2849.71	222
2850.57	226
2851.43	210
2852.28	240
2853.14	224
2854	220
2854.86	230
2855.72	240
2856.58	224
2857.43	230
2858.29	232
2859.15	218
2860.01	226
2860.86	228
2861.72	218
2862.58	210
2863.44	246
2864.29	238
2865.15	222
2866.01	218
2866.86	210
2867.72	218
2868.58	220
2869.43	210
2870.29	210
2871.14	204
2872	230
2872.86	208
2873.71	205
2874.57	202
2875.42	202
2876.28	210
2877.13	214
2877.99	206
2878.84	220
2879.7	206
2880.55	198
2881.41	208
2882.26	194
2883.11	208
2883.97	208
2884.82	228
2885.68	202
2886.53	208
2887.39	188
2888.24	220
2889.09	196
2889.94	196
2890.8	182
2891.65	190
2892.5	204
2893.36	198
2894.21	194
2895.06	202
2895.91	196
2896.77	202
2897.62	192
2898.47	192
2899.32	190
2900.17	186
2901.03	194
2901.88	182
2902.73	196
2903.58	214
2904.43	176
2905.28	194
2906.13	190
2906.98	206
2907.84	192
2908.69	192
2909.54	174
2910.39	198
2911.24	188
2912.09	172
2912.94	182
2913.79	178
2914.64	190
2915.49	184
2916.34	184
2917.19	180
2918.03	194
2918.88	190
2919.73	186
2920.58	178
2921.43	174
2922.28	178
2923.13	174
2923.98	164
2924.82	174
2925.67	202
2926.52	182
2927.37	174
2928.22	156
2929.06	164
2929.91	188
2930.76	188
2931.61	170
2932.45	174
2933.3	184
2934.15	182
2934.99	172
2935.84	168
2936.69	158
2937.53	176
2938.38	174
2939.23	178
2940.07	166
2940.92	160
2941.76	162
2942.61	172
2943.46	174
2944.3	174
2945.15	164
2945.99	158
2946.84	156
2947.68	166
2948.53	164
2949.37	164
2950.22	172
2951.06	176
2951.9	170
2952.75	156
2953.59	178
2954.44	158
2955.28	176
2956.12	182
2956.97	146
2957.81	168
2958.65	162
2959.5	154
2960.34	164
2961.18	158
2962.03	156
2962.87	156
2963.71	166
2964.56	150
2965.4	142
2966.24	154
2967.08	166
2967.92	144
2968.77	156
2969.61	150
2970.45	162
2971.29	158
2972.13	164
2972.97	150
2973.82	144
2974.66	158
2975.5	170
2976.34	166
2977.18	154
2978.02	156
2978.86	144
2979.7	152
2980.54	172
2981.38	158
2982.22	148
2983.06	154
2983.9	142
2984.74	158
2985.58	166
2986.42	160
2987.26	156
2988.1	148
2988.94	150
2989.78	140
2990.61	168
2991.45	148
2992.29	138
2993.13	150
2993.97	162
2994.81	130
2995.64	140
2996.48	156
2997.32	138
2998.16	146
2999	152
2999.83	150
