#Acq. time (s)=	10
#Accumulations=	1
#Range (cm-¹)=	200...3000
#Windows=	3
#Autofocus=	Off
#AutoExposure=	Off
#Spike filter=	Off
#Delay time (s)=	0
#Binning=	1
#Readout mode=	Signal
#DeNoise=	Off
#ICS correction=	Off
#Dark correction=	Off
#Inst. Process=	Off
#Instrument=	LabRAM HR Evol
#Detector=	Syncerity OE
#Objective=	x100_VIS
#Grating=	600 (500nm)
#ND Filter=	0.1%
#Laser=	633nm_Edge
#Hole=	5.0225
#Range=	Visible
#Project=	Omar
#Sample=	03-07-23
#Site=	papal
#Title=	leaf
#Remark=	
#Date=	03.07.2023 16:53
#Acquired=	03.07.2023 16:53:34
201.713	24
202.98	32
204.247	30
205.513	32
206.778	18
208.045	28
209.311	24
210.576	30
211.84	26
213.106	32
214.371	22
215.636	26
216.899	30
218.164	24
219.428	30
220.692	22
221.955	28
223.219	26
224.482	36
225.744	24
227.007	30
228.27	20
229.531	24
230.794	26
232.055	26
233.317	28
234.579	22
235.839	28
237.1	30
238.362	24
239.621	30
240.882	30
242.141	34
243.402	30
244.661	24
245.921	28
247.179	22
248.439	30
249.698	30
250.956	30
252.215	26
253.473	24
254.731	24
255.988	20
257.246	24
258.503	30
259.761	26
261.017	26
262.273	26
263.53	32
264.786	18
266.042	26
267.298	28
268.554	30
269.809	28
271.063	34
272.319	28
273.573	24
274.828	24
276.082	28
277.336	26
278.591	24
279.844	30
281.097	36
282.351	30
283.603	26
284.855	30
286.109	28
287.361	36
288.613	28
289.866	32
291.117	30
292.368	30
293.62	26
294.871	24
296.121	26
297.372	30
298.623	28
299.873	28
301.123	28
302.372	28
303.622	32
304.872	28
306.121	28
307.37	38
308.618	28
309.866	36
311.116	26
312.364	30
313.611	30
314.859	26
316.106	28
317.353	32
318.6	30
319.848	30
321.095	32
322.341	30
323.587	34
324.833	30
326.079	32
327.324	32
328.569	30
329.814	28
331.059	28
332.304	30
333.548	30
334.792	28
336.037	32
337.28	24
338.524	34
339.767	26
341.011	30
342.254	36
343.497	26
344.739	30
345.982	24
347.224	24
348.466	30
349.708	26
350.95	24
352.191	34
353.432	26
354.673	30
355.914	24
357.155	36
358.394	22
359.634	30
360.874	24
362.114	28
363.354	30
364.593	28
365.832	24
367.07	44
368.309	38
369.548	30
370.786	26
372.024	28
373.261	26
374.499	24
375.736	32
376.974	34
378.211	30
379.447	32
380.684	28
381.92	34
383.157	26
384.392	26
385.628	28
386.864	28
388.098	28
389.333	34
390.569	36
391.802	32
393.037	30
394.272	30
395.505	36
396.739	28
397.973	26
399.206	32
400.44	24
401.673	28
402.905	30
404.138	28
405.37	30
406.602	30
407.835	28
409.066	34
410.298	40
411.528	28
412.76	30
413.99	36
415.221	30
416.451	30
417.682	24
418.911	30
420.142	28
421.371	32
422.601	30
423.83	28
425.059	32
426.288	26
427.517	34
428.745	26
429.974	34
431.201	30
432.43	28
433.657	32
434.883	26
436.111	20
437.338	36
438.565	24
439.791	30
441.017	26
442.244	32
443.469	26
444.695	28
445.921	34
447.146	36
448.37	30
449.596	28
450.821	36
452.045	28
453.27	36
454.493	28
455.717	34
456.94	26
458.165	30
459.387	34
460.61	28
461.833	38
463.056	32
464.278	34
465.5	24
466.722	32
467.945	26
469.166	34
470.387	38
471.608	32
472.829	24
474.049	32
475.271	30
476.491	30
477.711	30
478.931	30
480.15	36
481.37	36
482.589	24
483.808	28
485.027	26
486.247	28
487.465	30
488.683	32
489.901	32
491.119	32
492.337	28
493.554	40
494.771	34
495.988	36
497.205	42
498.422	30
499.638	30
500.854	30
502.07	32
503.286	30
504.502	30
505.717	20
506.933	32
508.148	30
509.363	30
510.577	28
511.792	30
513.005	34
514.219	26
515.433	36
516.647	34
517.86	32
519.073	28
520.287	36
521.5	34
522.711	26
523.924	30
525.136	32
526.348	34
527.56	34
528.772	26
529.982	28
531.194	34
532.405	26
533.616	22
534.825	36
536.036	26
537.246	30
538.457	32
539.665	34
540.875	34
542.085	38
543.294	32
544.502	38
545.712	30
546.92	30
548.128	28
549.336	30
550.545	32
551.751	24
552.959	26
554.167	34
555.373	36
556.581	38
557.788	38
558.994	30
560.2	30
561.406	28
562.612	34
563.817	28
565.023	28
566.229	30
567.433	36
568.639	32
569.843	30
571.048	34
572.251	28
573.456	24
574.659	32
575.863	30
577.066	28
578.27	24
579.472	28
580.676	32
581.878	30
583.081	24
584.283	30
585.484	32
586.687	30
587.888	40
589.09	20
590.291	36
591.493	24
592.693	30
593.893	28
595.094	36
596.294	36
597.494	26
598.694	36
599.894	34
601.093	26
602.293	26
603.491	28
604.69	28
605.889	30
607.087	38
608.285	32
609.483	24
610.682	36
611.879	28
613.076	40
614.273	32
615.471	38
616.667	32
617.864	30
619.06	30
620.256	30
621.453	32
622.648	30
623.844	32
625.039	36
626.234	30
627.429	38
628.625	32
629.819	32
631.013	32
632.208	30
633.401	28
634.595	28
635.789	34
636.982	28
638.175	30
639.369	30
640.562	34
641.755	28
642.947	34
644.139	30
645.331	34
646.523	32
647.715	32
648.906	26
650.097	30
651.288	32
652.479	28
653.67	24
654.86	40
656.051	28
657.241	38
658.429	32
659.619	32
660.808	24
661.998	24
663.187	24
664.376	42
665.565	32
666.753	34
667.942	36
669.13	30
670.317	32
671.505	36
672.692	32
673.88	34
675.067	26
676.254	32
677.44	36
678.627	30
679.813	28
681	34
682.184	34
683.37	32
684.556	34
685.742	34
686.926	34
688.111	32
689.296	38
690.481	34
691.664	36
692.849	26
694.033	36
695.216	32
696.4	36
697.584	34
698.766	32
699.949	34
701.133	40
702.314	32
703.497	32
704.678	30
705.861	38
707.043	28
708.224	32
709.406	30
710.586	34
711.768	40
712.949	34
714.129	36
715.31	28
716.489	34
717.67	32
718.849	30
720.029	28
721.208	36
722.388	36
723.566	40
724.746	30
725.924	28
727.103	32
728.28	30
729.458	38
730.636	26
731.814	32
732.992	34
734.168	34
735.345	36
736.523	30
737.699	32
738.876	34
740.052	30
741.227	38
742.404	34
743.579	44
744.754	40
745.931	40
747.105	34
748.28	32
749.455	28
750.629	30
751.803	32
752.977	42
754.152	34
755.325	34
756.499	40
757.672	32
758.846	36
760.018	30
761.191	38
762.363	34
763.535	38
764.708	36
765.88	34
767.052	38
768.223	36
769.394	32
770.565	38
771.737	36
772.908	40
774.078	36
775.249	34
776.419	36
777.589	38
778.758	32
779.928	34
781.097	32
782.266	40
783.435	32
784.604	36
785.773	38
786.941	34
788.11	38
789.278	32
790.446	30
791.613	36
792.781	36
793.948	38
795.115	40
796.282	34
797.449	36
798.616	46
799.782	34
800.948	36
802.115	40
803.28	40
804.446	30
805.612	28
806.777	38
807.941	44
809.106	32
810.271	38
811.435	34
812.6	30
813.764	40
814.927	34
816.091	42
817.254	34
818.418	38
819.581	38
820.743	34
821.906	34
823.069	36
824.232	34
825.393	42
826.555	32
827.717	34
828.879	28
830.039	40
831.201	38
832.362	40
833.522	38
834.683	34
835.844	34
837.003	36
838.164	32
839.324	34
840.483	38
841.643	38
842.801	38
843.961	32
845.12	40
846.278	32
847.437	40
848.594	36
849.753	36
850.91	36
852.069	36
853.227	38
854.383	46
855.541	34
856.697	40
857.855	28
859.011	36
860.168	38
861.323	38
862.48	38
863.635	48
864.79	42
865.946	34
867.101	40
868.257	30
869.411	40
870.567	34
871.721	38
872.874	30
874.029	38
875.183	36
876.336	42
877.49	36
878.643	30
879.796	38
880.95	46
882.102	32
883.254	38
884.407	30
885.559	44
886.711	40
887.862	40
889.015	40
890.166	42
891.317	34
892.467	46
893.619	44
894.77	40
895.92	34
897.07	38
898.221	44
899.371	36
900.52	40
901.669	36
902.819	40
903.968	36
905.116	40
906.266	38
907.415	32
908.563	40
909.711	42
910.859	32
912.007	36
913.154	34
914.301	40
915.449	36
916.596	36
917.742	46
918.889	42
920.036	36
921.183	38
922.329	38
923.475	36
924.621	36
925.765	46
926.911	36
928.056	46
929.201	48
930.346	40
931.49	42
932.635	36
933.779	40
934.924	40
936.068	40
937.211	46
938.355	50
939.498	38
940.64	46
941.784	38
942.926	44
944.069	32
945.212	46
946.354	34
947.495	42
948.637	46
949.779	38
950.921	36
952.062	46
953.202	38
954.344	44
955.484	36
956.625	38
957.765	40
958.905	40
960.045	46
961.184	44
962.324	46
963.464	46
964.604	42
965.742	40
966.881	44
968.02	50
969.158	42
970.296	48
971.434	48
972.572	40
973.71	40
974.847	48
975.985	50
977.121	48
978.259	50
979.396	48
980.532	50
981.669	42
982.804	40
983.941	40
985.076	46
986.212	44
987.347	46
988.483	50
989.617	48
990.753	48
991.887	42
993.022	48
994.156	46
995.29	44
996.424	40
997.558	44
998.692	42
999.825	46
1000.96	46
1002.09	46
1003.22	44
1004.36	48
1005.49	44
1006.62	50
1007.75	46
1008.89	52
1010.02	46
1011.15	48
1012.28	46
1013.41	54
1014.54	44
1015.67	46
1016.8	46
1017.93	38
1019.07	38
1020.19	38
1021.32	44
1022.45	42
1023.58	44
1024.71	50
1025.84	50
1026.97	44
1028.1	42
1029.23	34
1030.36	46
1031.49	40
1032.61	56
1033.74	50
1034.87	58
1036	42
1037.12	50
1038.25	52
1039.38	46
1040.5	50
1041.63	48
1042.76	34
1043.88	50
1045.01	42
1046.14	44
1047.26	50
1048.39	46
1049.51	36
1050.64	52
1051.76	48
1052.89	46
1054.01	48
1055.14	46
1056.26	42
1057.38	40
1058.51	46
1059.63	46
1060.75	42
1061.88	50
1063	58
1064.12	44
1065.25	56
1066.37	60
1067.49	52
1068.61	50
1069.73	54
1070.86	48
1071.98	48
1073.1	48
1074.22	48
1075.34	50
1076.46	48
1077.58	48
1078.7	44
1079.82	46
1080.94	44
1082.06	54
1083.18	52
1084.3	52
1085.42	48
1086.54	56
1087.66	44
1088.78	52
1089.9	48
1091.02	48
1092.14	42
1093.25	44
1094.37	46
1095.49	48
1096.61	52
1097.72	46
1098.84	54
1099.96	48
1101.08	50
1102.19	56
1103.31	48
1104.43	56
1105.54	42
1106.66	56
1107.77	46
1108.89	48
1110	58
1111.12	52
1112.23	54
1113.35	54
1114.46	48
1115.58	50
1116.69	46
1117.81	54
1118.92	44
1120.03	46
1121.15	52
1122.26	48
1123.37	50
1124.49	56
1125.6	58
1126.71	44
1127.83	46
1128.94	42
1130.05	56
1131.16	56
1132.27	50
1133.39	50
1134.5	56
1135.61	52
1136.72	46
1137.83	46
1138.94	54
1140.05	58
1141.16	48
1142.27	50
1143.38	46
1144.49	48
1145.6	54
1146.71	52
1147.82	36
1148.93	52
1150.04	52
1151.15	52
1152.26	62
1153.36	58
1154.47	54
1155.58	54
1156.69	52
1157.8	58
1158.9	52
1160.01	50
1161.12	56
1162.22	40
1163.33	60
1164.44	56
1165.54	58
1166.65	48
1167.76	52
1168.86	48
1169.97	56
1171.07	44
1172.18	56
1173.28	54
1174.39	48
1175.49	44
1176.6	46
1177.7	58
1178.81	52
1179.91	58
1181.02	56
1182.12	48
1183.22	52
1184.33	60
1185.43	50
1186.53	56
1187.63	60
1188.74	54
1189.84	46
1190.94	52
1192.04	54
1193.15	56
1194.25	64
1195.35	58
1196.45	52
1197.55	56
1198.65	48
1199.75	56
1200.85	42
1201.95	52
1203.05	44
1204.16	60
1205.25	54
1206.35	50
1207.45	50
1208.55	54
1209.65	54
1210.75	58
1211.85	58
1212.95	60
1214.05	52
1215.15	54
1216.24	54
1217.34	60
1218.44	44
1219.54	50
1220.64	46
1221.73	52
1222.83	42
1223.93	46
1225.02	52
1226.12	50
1227.22	54
1228.31	52
1229.41	52
1230.5	56
1231.6	42
1232.7	52
1233.79	62
1234.89	60
1235.98	54
1237.08	42
1238.17	48
1239.26	54
1240.36	54
1241.45	52
1242.55	46
1243.64	52
1244.73	54
1245.83	50
1246.92	44
1248.01	44
1249.11	50
1250.2	48
1251.29	56
1252.38	58
1253.48	50
1254.57	62
1255.66	52
1256.75	60
1257.84	54
1258.93	50
1260.03	56
1261.12	46
1262.21	60
1263.3	52
1264.39	58
1265.48	48
1266.57	56
1267.66	56
1268.75	52
1269.84	48
1270.93	58
1272.02	50
1273.11	50
1274.19	50
1275.28	48
1276.37	60
1277.46	42
1278.55	54
1279.64	54
1280.72	54
1281.81	50
1282.9	52
1283.98	52.0061
1285.07	55.8159
1286.16	51.9603
1287.25	52.1317
1288.33	49.9941
1289.42	53.72
1290.5	46.4215
1291.59	46.2941
1292.68	55.9492
1293.76	54.2514
1294.85	43.5173
1295.93	45.476
1297.02	47.1761
1298.1	49.6206
1299.19	55.8034
1300.27	45.5465
1301.36	51.5797
1302.44	46.2421
1303.53	49.8
1304.61	49.4209
1305.69	47.6078
1306.78	53.6529
1307.86	52.0708
1308.94	51.073
1310.03	46.7961
1311.11	39.3834
1312.19	46.8323
1313.27	45.2112
1314.36	51.0379
1315.44	45.9693
1316.52	52
1317.6	51.0389
1318.68	50.4807
1319.77	49.7707
1320.85	49.5968
1321.93	48.4329
1323.01	47.2884
1324.09	48.444
1325.17	50.0269
1326.25	44.9521
1327.33	50.5567
1328.41	50
1329.49	47.2309
1330.57	44.2873
1331.65	45.6022
1332.73	48.0747
1333.81	48.3529
1334.89	46.7912
1335.97	44.066
1337.04	49.7302
1338.12	49.2953
1339.2	51.2498
1340.28	52.3868
1341.36	40.321
1342.44	46.3701
1343.51	46.0526
1344.59	43.6512
1345.67	43.7997
1346.75	46.1846
1347.82	46.3174
1348.9	49.3548
1349.98	47.8066
1351.05	44.7745
1352.13	44.843
1353.2	45.4315
1354.28	48.4899
1355.36	45.2157
1356.43	45.9706
1357.51	44.8422
1358.58	47.9515
1359.66	44.1009
1360.73	45.0098
1361.81	48.5399
1362.88	45.3494
1363.96	42.8165
1365.03	48.891
1366.1	43.5212
1367.18	46
1368.25	44.1569
1369.33	42.6893
1370.4	49.8103
1371.47	45.6828
1372.54	44.8028
1373.62	45.9537
1374.69	53.0952
1375.76	45.606
1376.83	51.4801
1377.91	46.7441
1378.98	41.1625
1380.05	42.5678
1381.12	42.7895
1382.19	46.8147
1383.26	42.7699
1384.34	46.2146
1385.41	46.1471
1386.48	45.7451
1387.55	41.0674
1388.62	43.4493
1389.69	44
1390.76	45.6905
1391.83	40.7869
1392.9	41.7555
1393.02	42
1394.1	44
1395.17	48
1396.25	48
1397.32	38
1398.4	38
1399.47	52
1400.55	44
1401.62	40
1402.69	38
1403.77	44
1404.84	42
1405.91	52
1406.99	44
1408.06	42
1409.13	42
1410.2	32
1411.27	44
1412.35	40
1413.42	40
1414.49	42
1415.56	38
1416.63	44
1417.7	36
1418.78	36
1419.85	40
1420.92	50
1421.99	44
1423.06	42
1424.13	32
1425.2	52
1426.27	40
1427.34	40
1428.41	46
1429.48	40
1430.55	38
1431.61	38
1432.68	48
1433.75	46
1434.82	42
1435.89	44
1436.96	42
1438.02	34
1439.09	34
1440.16	34
1441.23	52
1442.3	36
1443.36	46
1444.43	44
1445.5	44
1446.56	40
1447.63	48
1448.7	38
1449.76	46
1450.83	44
1451.89	44
1452.96	40
1454.02	38
1455.09	42
1456.15	42
1457.22	42
1458.28	48
1459.35	42
1460.41	32
1461.48	44
1462.54	34
1463.61	46
1464.67	38
1465.73	36
1466.8	34
1467.86	50
1468.92	42
1469.98	42
1471.05	38
1472.11	44
1473.17	40
1474.24	50
1475.3	42
1476.36	36
1477.42	42
1478.48	38
1479.54	46
1480.6	46
1481.67	38
1482.73	38
1483.79	42
1484.85	40
1485.91	44
1486.97	46
1488.03	38
1489.09	44
1490.15	44
1491.21	42
1492.27	38
1493.33	48
1494.38	44
1495.44	38
1496.5	40
1497.56	48
1498.62	42
1499.68	42
1500.74	40
1501.79	38
1502.85	40
1503.91	42
1504.97	36
1506.02	42
1507.08	40
1508.14	44
1509.2	52
1510.25	42
1511.31	44
1512.36	48
1513.42	34
1514.48	40
1515.53	48
1516.59	44
1517.64	42
1518.7	38
1519.75	36
1520.81	40
1521.86	46
1522.92	42
1523.97	40
1525.02	40
1526.08	36
1527.13	40
1528.19	42
1529.24	40
1530.29	40
1531.35	44
1532.4	34
1533.45	40
1534.51	40
1535.56	50
1536.61	40
1537.66	42
1538.72	42
1539.77	38
1540.82	42
1541.87	42
1542.92	38
1543.97	32
1545.02	44
1546.08	42
1547.13	40
1548.18	40
1549.23	40
1550.28	40
1551.33	42
1552.38	38
1553.43	48
1554.48	38
1555.53	48
1556.57	44
1557.62	38
1558.67	36
1559.72	42
1560.77	44
1561.82	44
1562.87	40
1563.92	44
1564.96	46
1566.01	40
1567.06	38
1568.11	36
1569.15	36
1570.2	38
1571.25	34
1572.29	40
1573.34	42
1574.39	36
1575.43	38
1576.48	34
1577.53	48
1578.57	40
1579.62	38
1580.66	44
1581.71	44
1582.75	34
1583.8	38
1584.84	32
1585.89	36
1586.93	30
1587.98	36
1589.02	38
1590.06	28
1591.11	34
1592.15	44
1593.2	40
1594.24	32
1595.28	44
1596.33	46
1597.37	32
1598.41	42
1599.45	42
1600.5	38
1601.54	38
1602.58	48
1603.62	42
1604.66	44
1605.7	34
1606.75	38
1607.79	46
1608.83	48
1609.87	40
1610.91	38
1611.95	34
1612.99	48
1614.03	42
1615.07	36
1616.11	40
1617.15	38
1618.19	46
1619.23	34
1620.27	44
1621.31	42
1622.35	36
1623.39	44
1624.43	38
1625.46	46
1626.5	42
1627.54	32
1628.58	34
1629.62	46
1630.65	40
1631.69	36
1632.73	38
1633.77	44
1634.8	42
1635.84	32
1636.88	46
1637.91	42
1638.95	34
1639.99	34
1641.02	38
1642.06	46
1643.09	42
1644.13	40
1645.16	44
1646.2	44
1647.23	30
1648.27	36
1649.3	54
1650.34	40
1651.37	36
1652.41	44
1653.44	42
1654.47	38
1655.51	32
1656.54	40
1657.57	48
1658.61	44
1659.64	38
1660.67	38
1661.71	36
1662.74	34
1663.77	32
1664.81	44
1665.84	48
1666.87	40
1667.9	36
1668.93	36
1669.96	36
1671	40
1672.03	34
1673.06	34
1674.09	36
1675.12	40
1676.15	42
1677.18	36
1678.21	42
1679.24	44
1680.27	30
1681.3	40
1682.33	38
1683.36	36
1684.39	42
1685.42	36
1686.45	44
1687.47	28
1688.5	38
1689.53	36
1690.56	38
1691.59	34
1692.62	42
1693.64	42
1694.67	34
1695.7	38
1696.73	34
1697.75	34
1698.78	32
1699.81	48
1700.83	40
1701.86	40
1702.89	36
1703.91	38
1704.94	38
1705.97	34
1706.99	40
1708.02	40
1709.04	34
1710.07	42
1711.09	36
1712.12	38
1713.14	36
1714.17	34
1715.19	36
1716.22	38
1717.24	46
1718.26	42
1719.29	40
1720.31	36
1721.33	44
1722.36	40
1723.38	34
1724.4	32
1725.43	34
1726.45	28
1727.47	42
1728.49	40
1729.52	40
1730.54	38
1731.56	38
1732.58	36
1733.6	40
1734.63	38
1735.65	44
1736.67	32
1737.69	40
1738.71	34
1739.73	42
1740.75	34
1741.77	36
1742.79	42
1743.81	42
1744.83	38
1745.85	26
1746.87	40
1747.89	42
1748.91	40
1749.93	40
1750.95	38
1751.97	40
1752.98	40
1754	36
1755.02	42
1756.04	46
1757.06	40
1758.07	36
1759.09	36
1760.11	36
1761.13	46
1762.14	40
1763.16	44
1764.18	44
1765.19	42
1766.21	30
1767.23	38
1768.24	36
1769.26	34
1770.28	42
1771.29	36
1772.31	40
1773.32	44
1774.34	40
1775.35	40
1776.37	36
1777.38	38
1778.4	38
1779.41	30
1780.43	36
1781.44	34
1782.45	46
1783.47	44
1784.48	44
1785.49	34
1786.51	42
1787.52	40
1788.53	44
1789.55	48
1790.56	30
1791.57	36
1792.58	40
1793.6	34
1794.61	36
1795.62	34
1796.63	38
1797.64	36
1798.66	40
1799.67	40
1800.68	38
1801.69	34
1802.7	32
1803.71	44
1804.72	36
1805.73	36
1806.74	36
1807.75	40
1808.76	36
1809.77	36
1810.78	42
1811.79	40
1812.8	38
1813.81	42
1814.82	34
1815.83	38
1816.84	34
1817.84	36
1818.85	46
1819.86	36
1820.87	34
1821.88	38
1822.88	40
1823.89	32
1824.9	48
1825.91	40
1826.91	40
1827.92	32
1828.93	38
1829.93	34
1830.94	46
1831.95	40
1832.95	44
1833.96	36
1834.97	50
1835.97	36
1836.98	40
1837.98	34
1838.99	42
1839.99	36
1841	36
1842	34
1843.01	36
1844.01	30
1845.02	38
1846.02	32
1847.02	40
1848.03	28
1849.03	36
1850.03	38
1851.04	46
1852.04	32
1853.04	42
1854.05	42
1855.05	32
1856.05	46
1857.05	46
1858.06	38
1859.06	38
1860.06	28
1861.06	34
1862.06	40
1863.07	36
1864.07	32
1865.07	36
1866.07	32
1867.07	30
1868.07	34
1869.07	40
1870.07	32
1871.07	42
1872.07	42
1873.07	38
1874.07	42
1875.07	44
1876.07	40
1877.07	38
1878.07	32
1879.07	34
1880.07	32
1881.07	44
1882.07	40
1883.06	32
1884.06	36
1885.06	38
1886.06	36
1887.06	32
1888.05	34
1889.05	40
1890.05	42
1891.05	40
1892.04	40
1893.04	40
1894.04	36
1895.03	34
1896.03	36
1897.03	38
1898.02	40
1899.02	44
1900.01	38
1901.01	38
1902	42
1903	40
1903.99	40
1904.99	44
1905.98	44
1906.98	32
1907.97	30
1908.97	32
1909.96	38
1910.96	40
1911.95	42
1912.94	30
1913.94	34
1914.93	40
1915.93	40
1916.92	38
1917.91	36
1918.9	40
1919.9	48
1920.89	32
1921.88	40
1922.87	34
1923.87	40
1924.86	32
1925.85	40
1926.84	34
1927.83	38
1928.82	42
1929.82	30
1930.81	42
1931.8	46
1932.79	42
1933.78	34
1934.77	38
1935.76	46
1936.75	34
1937.74	40
1938.73	36
1939.72	32
1940.71	44
1941.7	32
1942.69	40
1943.68	42
1944.67	32
1945.65	46
1946.64	36
1947.63	34
1948.62	36
1949.61	42
1950.6	32
1951.58	44
1952.57	34
1953.56	36
1954.55	42
1955.53	44
1956.52	34
1957.51	38
1958.5	30
1959.48	36
1960.47	30
1961.45	36
1962.44	34
1963.43	38
1964.41	34
1965.4	36
1966.38	38
1967.37	38
1968.35	34
1969.34	34
1970.32	42
1971.31	32
1972.29	38
1973.28	32
1974.26	34
1975.25	38
1976.23	38
1977.22	32
1978.2	32
1979.18	36
1980.17	34
1981.15	36
1982.13	40
1983.12	34
1984.1	34
1985.08	36
1986.06	38
1987.05	42
1988.03	48
1989.01	36
1989.99	36
1990.97	32
1991.96	28
1992.94	34
1993.92	42
1994.9	38
1995.88	32
1996.86	36
1997.84	36
1998.82	38
1999.8	34
2000.78	38
2001.76	36
2002.74	36
2003.72	34
2004.7	34
2005.68	40
2006.66	34
2007.64	30
2008.62	34
2009.6	40
2010.58	38
2011.56	38
2012.54	36
2013.51	40
2014.49	38
2015.47	44
2016.45	42
2017.43	44
2018.4	40
2019.38	42
2020.36	40
2021.34	40
2022.31	34
2023.29	36
2024.27	36
2025.24	36
2026.22	40
2027.2	42
2028.17	37
2029.15	32
2030.12	38
2031.1	32
2032.07	42
2033.05	38
2034.03	40
2035	46
2035.98	44
2036.95	42
2037.93	44
2038.9	42
2039.87	40
2040.85	36
2041.82	38
2042.8	38
2043.77	36
2044.74	32
2045.72	38
2046.69	38
2047.66	50
2048.64	40
2049.61	36
2050.58	40
2051.55	34
2052.53	24
2053.5	30
2054.47	36
2055.44	38
2056.41	40
2057.39	40
2058.36	42
2059.33	34
2060.3	40
2061.27	44
2062.24	38
2063.21	32
2064.18	32
2065.15	40
2066.12	34
2067.09	38
2068.06	42
2069.03	34
2070	36
2070.97	36
2071.94	36
2072.91	34
2073.88	40
2074.85	36
2075.82	40
2076.79	36
2077.76	36
2078.73	36
2079.69	34
2080.66	36
2081.63	40
2082.6	42
2083.56	40
2084.53	34
2085.5	38
2086.47	38
2087.43	38
2088.4	36
2089.37	38
2090.33	40
2091.3	30
2092.27	34
2093.23	42
2094.2	40
2095.17	36
2096.13	40
2097.1	36
2098.06	38
2099.03	38
2099.99	32
2100.96	40
2101.92	44
2102.89	34
2103.85	40
2104.82	40
2105.78	36
2106.74	30
2107.71	38
2108.67	36
2109.64	36
2110.6	36
2111.56	26
2112.53	34
2113.49	28
2114.45	38
2115.41	40
2116.38	30
2117.34	40
2118.3	34
2119.26	36
2120.23	40
2121.19	46
2122.15	44
2123.11	38
2124.07	38
2125.03	38
2126	34
2126.96	44
2127.92	34
2128.88	24
2129.84	36
2130.8	40
2131.76	34
2132.72	32
2133.68	32
2134.64	42
2135.6	36
2136.56	34
2137.52	42
2138.48	32
2139.44	50
2140.4	38
2141.35	42
2142.31	38
2143.27	34
2144.23	30
2145.19	48
2146.15	34
2147.1	36
2148.06	38
2149.02	34
2149.98	36
2150.94	32
2151.89	34
2152.85	34
2153.81	38
2154.76	40
2155.72	46
2156.68	36
2157.63	44
2158.59	30
2159.55	38
2160.5	38
2161.46	36
2162.41	32
2163.37	36
2164.32	36
2165.28	40
2166.23	34
2167.19	26
2168.14	32
2169.1	40
2170.05	46
2171.01	42
2171.96	34
2172.91	42
2173.87	40
2174.82	36
2175.78	36
2176.73	42
2177.68	38
2178.64	42
2179.59	36
2180.54	34
2181.49	44
2182.45	40
2183.4	44
2184.35	36
2185.3	40
2186.26	30
2187.21	38
2188.16	34
2189.11	36
2190.06	34
2191.01	36
2191.96	36
2192.92	38
2193.87	28
2194.82	32
2195.77	30
2196.72	32
2197.67	36
2198.62	38
2199.57	28
2200.52	30
2201.47	38
2202.42	40
2203.37	40
2204.32	40
2205.27	44
2206.22	30
2207.16	40
2208.11	30
2209.06	36
2210.01	32
2210.96	34
2211.91	38
2212.85	36
2213.8	30
2214.75	28
2215.7	34
2216.64	30
2217.59	36
2218.54	30
2219.49	34
2220.43	38
2221.38	32
2222.33	38
2223.27	31.9883
2224.22	43.7062
2225.16	35.8953
2226.11	26.073
2227.06	31.91
2228	30.0146
2228.95	39.8558
2229.89	33.7202
2230.84	38.3309
2231.78	28.7575
2232.73	34.003
2233.67	39.7695
2234.62	36.0006
2235.56	39.46
2236.51	33.4313
2237.45	32.6035
2238.4	33.6848
2239.34	30.6901
2240.28	37.8168
2241.23	29.9852
2242.17	38.3202
2243.11	31.6743
2244.06	36.3541
2245	39.7334
2245.94	35.1523
2246.89	30.815
2247.83	43.4278
2248.77	34.6192
2249.71	38.6179
2250.66	33.8224
2251.6	32.1733
2252.54	33.9374
2253.48	31.3
2254.42	35.1941
2255.37	33.3708
2256.31	38.0451
2257.25	31.181
2258.19	38.7094
2259.13	28.9778
2260.07	38.089
2261.01	35.5021
2261.95	35.66
2262.89	36.1319
2263.83	34.14
2264.77	36.22
2265.71	36.18
2266.65	35.3742
2267.59	36.978
2268.53	34.4827
2269.47	32.6123
2270.41	32.3768
2271.35	38.1362
2272.29	35.9823
2273.23	38.14
2274.17	36.6467
2275.1	34.3682
2276.04	37.7465
2276.98	36.5043
2277.92	35.66
2278.86	35.62
2279.8	33.0896
2280.73	29.8385
2281.67	39.3802
2282.61	40.4667
2283.55	36.1019
2284.48	33.0783
2285.42	33.7713
2286.36	35.7051
2287.29	32.9169
2288.23	35.6312
2289.17	33.0143
2290.1	32.7166
2291.04	31.4498
2291.98	31.459
2292.91	35.5763
2293.85	34.9864
2294.78	35.5748
2295.72	37.4228
2296.65	36.1724
2297.59	36.77
2298.52	34.7456
2299.46	34
2300.39	36.8011
2301.33	34.8361
2302.26	30.632
2303.2	33.8633
2304.13	30.2765
2305.06	29.8873
2306	31.7616
2306.93	32.21
2307.87	28.9603
2308.8	31.5091
2309.73	34
2310.67	33.0466
2311.6	33.3061
2312.53	38.4299
2313.46	37.3752
2314.4	38.2028
2315.33	39.6699
2316.26	34.7089
2316.69	32
2317.62	36
2318.56	32
2319.5	32
2320.43	32
2321.37	36
2322.31	38
2323.24	32
2324.18	36
2325.12	34
2326.05	36
2326.99	32
2327.92	36
2328.86	34
2329.79	36
2330.73	36
2331.66	30
2332.6	38
2333.53	28
2334.47	32
2335.4	34
2336.34	38
2337.27	30
2338.2	38
2339.14	28
2340.07	36
2341.01	38
2341.94	38
2342.87	32
2343.81	34
2344.74	38
2345.67	30
2346.6	42
2347.54	34
2348.47	30
2349.4	30
2350.33	38
2351.27	32
2352.2	32
2353.13	32
2354.06	32
2354.99	30
2355.93	28
2356.86	36
2357.79	40
2358.72	34
2359.65	38
2360.58	38
2361.51	44
2362.44	34
2363.37	34
2364.3	26
2365.23	34
2366.16	32
2367.09	32
2368.02	40
2368.95	36
2369.88	30
2370.81	36
2371.74	40
2372.67	26
2373.6	32
2374.52	34
2375.45	40
2376.38	36
2377.31	36
2378.24	38
2379.17	34
2380.09	36
2381.02	34
2381.95	36
2382.88	36
2383.8	34
2384.73	36
2385.66	42
2386.58	28
2387.51	34
2388.44	34
2389.36	38
2390.29	34
2391.22	40
2392.14	36
2393.07	32
2393.99	40
2394.92	40
2395.85	32
2396.77	36
2397.7	38
2398.62	28
2399.55	28
2400.47	36
2401.4	38
2402.32	38
2403.25	32
2404.17	34
2405.09	38
2406.02	36
2406.94	38
2407.86	40
2408.79	34
2409.71	38
2410.63	40
2411.56	32
2412.48	36
2413.4	34
2414.33	34
2415.25	32
2416.17	30
2417.09	36
2418.02	32
2418.94	34
2419.86	42
2420.78	34
2421.7	38
2422.63	36
2423.55	32
2424.47	28
2425.39	34
2426.31	38
2427.23	32
2428.15	28
2429.07	36
2429.99	36
2430.91	34
2431.83	38
2432.75	38
2433.67	40
2434.59	28
2435.51	34
2436.43	34
2437.35	36
2438.27	28
2439.19	30
2440.11	34
2441.03	40
2441.95	38
2442.86	32
2443.78	28
2444.7	36
2445.62	30
2446.54	30
2447.46	34
2448.37	44
2449.29	34
2450.21	38
2451.13	30
2452.04	38
2452.96	28
2453.88	38
2454.79	30
2455.71	28
2456.63	34
2457.54	30
2458.46	42
2459.38	34
2460.29	34
2461.21	40
2462.12	34
2463.04	32
2463.95	40
2464.87	32
2465.78	36
2466.7	36
2467.61	28
2468.53	38
2469.44	28
2470.36	34
2471.27	38
2472.19	36
2473.1	22
2474.01	36
2474.93	36
2475.84	34
2476.76	38
2477.67	28
2478.58	32
2479.5	40
2480.41	36
2481.32	32
2482.23	36
2483.15	34
2484.06	28
2484.97	34
2485.88	38
2486.8	32
2487.71	34
2488.62	22
2489.53	28
2490.44	32
2491.35	36
2492.26	30
2493.18	32
2494.09	36
2495	34
2495.91	36
2496.82	26
2497.73	34
2498.64	28
2499.55	26
2500.46	32
2501.37	28
2502.28	34
2503.19	34
2504.1	30
2505.01	34
2505.92	38
2506.83	30
2507.74	36
2508.65	38
2509.55	34
2510.46	36
2511.37	42
2512.28	32
2513.19	38
2514.09	28
2515	34
2515.91	34
2516.82	36
2517.73	40
2518.63	32
2519.54	32
2520.45	32
2521.35	28
2522.26	34
2523.17	36
2524.07	30
2524.98	34
2525.89	34
2526.79	32
2527.7	30
2528.6	34
2529.51	26
2530.42	32
2531.32	32
2532.23	34
2533.13	34
2534.04	36
2534.94	38
2535.85	36
2536.75	32
2537.66	32
2538.56	32
2539.47	40
2540.37	30
2541.27	30
2542.18	36
2543.08	36
2543.98	36
2544.89	38
2545.79	30
2546.7	36
2547.6	36
2548.5	36
2549.4	38
2550.31	28
2551.21	32
2552.11	30
2553.01	40
2553.92	36
2554.82	32
2555.72	40
2556.62	30
2557.52	38
2558.42	26
2559.33	28
2560.23	30
2561.13	24
2562.03	36
2562.93	40
2563.83	30
2564.73	26
2565.63	30
2566.53	34
2567.43	38
2568.33	32
2569.23	30
2570.13	30
2571.03	32
2571.93	32
2572.83	32
2573.73	36
2574.63	36
2575.53	28
2576.43	38
2577.33	32
2578.22	30
2579.12	44
2580.02	34
2580.92	30
2581.82	30
2582.72	38
2583.61	36
2584.51	32
2585.41	34
2586.31	30
2587.2	38
2588.1	34
2589	28
2589.89	30
2590.79	30
2591.69	26
2592.58	32
2593.48	30
2594.38	30
2595.27	36
2596.17	28
2597.06	30
2597.96	36
2598.86	26
2599.75	38
2600.65	30
2601.54	40
2602.44	38
2603.33	28
2604.23	28
2605.12	48
2606.02	42
2606.91	40
2607.81	34
2608.7	36
2609.59	34
2610.49	40
2611.38	28
2612.27	28
2613.17	28
2614.06	38
2614.95	36
2615.85	38
2616.74	30
2617.63	36
2618.53	34
2619.42	40
2620.31	40
2621.2	34
2622.1	34
2622.99	36
2623.88	24
2624.77	32
2625.66	30
2626.55	32
2627.45	34
2628.34	34
2629.23	32
2630.12	36
2631.01	34
2631.9	34
2632.79	38
2633.68	32
2634.57	36
2635.46	38
2636.35	34
2637.24	34
2638.13	36
2639.02	30
2639.91	34
2640.8	28
2641.69	30
2642.58	30
2643.47	36
2644.36	36
2645.25	34
2646.14	40
2647.02	34
2647.91	32
2648.8	32
2649.69	28
2650.58	26
2651.46	36
2652.35	40
2653.24	26
2654.13	28
2655.01	32
2655.9	32
2656.79	38
2657.68	32
2658.56	38
2659.45	28
2660.34	38
2661.22	32
2662.11	34
2662.99	36
2663.88	30
2664.77	38
2665.65	34
2666.54	30
2667.42	38
2668.31	32
2669.2	36
2670.08	30
2670.96	34
2671.85	40
2672.73	28
2673.62	38
2674.5	32
2675.39	34
2676.27	30
2677.16	38
2678.04	34
2678.93	40
2679.81	34
2680.69	38
2681.58	30
2682.46	36
2683.34	28
2684.23	28
2685.11	26
2685.99	36
2686.87	40
2687.76	32
2688.64	32
2689.52	28
2690.4	38
2691.28	36
2692.17	36
2693.05	38
2693.93	32
2694.81	30
2695.69	34
2696.57	28
2697.46	30
2698.34	38
2699.22	34
2700.1	44
2700.98	34
2701.86	32
2702.74	36
2703.62	40
2704.5	30
2705.38	36
2706.26	34
2707.14	30
2708.02	32
2708.9	38
2709.78	26
2710.66	40
2711.54	32
2712.42	36
2713.3	28
2714.17	40
2715.05	38
2715.93	38
2716.81	38
2717.69	28
2718.57	32
2719.44	34
2720.32	38
2721.2	34
2722.08	28
2722.95	30
2723.83	36
2724.71	28
2725.59	38
2726.46	36
2727.34	30
2728.22	30
2729.09	24
2729.97	38
2730.85	34
2731.72	38
2732.6	32
2733.47	38
2734.35	38
2735.23	32
2736.1	30
2736.98	34
2737.85	26
2738.73	34
2739.6	36
2740.48	30
2741.35	30
2742.23	32
2743.1	28
2743.98	28
2744.85	36
2745.72	32
2746.6	34
2747.47	30
2748.35	36
2749.22	34
2750.09	36
2750.97	24
2751.84	32
2752.71	30
2753.59	34
2754.46	42
2755.33	30
2756.2	26
2757.08	34
2757.95	34
2758.82	32
2759.69	36
2760.57	32
2761.44	32
2762.31	32
2763.18	36
2764.05	30
2764.92	44
2765.79	22
2766.67	40
2767.54	28
2768.41	34
2769.28	32
2770.15	30
2771.02	30
2771.89	36
2772.76	24
2773.63	36
2774.5	30
2775.37	34
2776.24	34
2777.11	28
2777.98	30
2778.85	30
2779.72	26
2780.59	32
2781.46	32
2782.32	30
2783.19	30
2784.06	30
2784.93	32
2785.8	38
2786.67	30
2787.53	34
2788.4	38
2789.27	28
2790.14	32
2791.01	36
2791.87	32
2792.74	32
2793.61	32
2794.47	30
2795.34	28
2796.21	30
2797.07	32
2797.94	32
2798.81	30
2799.67	32
2800.54	34
2801.41	36
2802.27	22
2803.14	30
2804	30
2804.87	34
2805.74	32
2806.6	36
2807.47	26
2808.33	36
2809.2	34
2810.06	38
2810.93	32
2811.79	28
2812.65	26
2813.52	34
2814.38	28
2815.25	36
2816.11	30
2816.98	32
2817.84	26
2818.7	38
2819.56	34
2820.43	30
2821.29	24
2822.16	38
2823.02	32
2823.88	34
2824.74	22
2825.61	42
2826.47	28
2827.33	34
2828.19	30
2829.05	42
2829.92	36
2830.78	30
2831.64	34
2832.5	34
2833.36	30
2834.23	30
2835.09	34
2835.95	34
2836.81	36
2837.67	26
2838.53	34
2839.39	32
2840.25	36
2841.11	32
2841.97	30
2842.83	32
2843.69	32
2844.55	32
2845.41	34
2846.27	30
2847.13	26
2847.99	32
2848.85	30
2849.71	28
2850.57	26
2851.43	36
2852.28	30
2853.14	30
2854	34
2854.86	40
2855.72	30
2856.58	24
2857.43	32
2858.29	30
2859.15	24
2860.01	28
2860.86	32
2861.72	24
2862.58	22
2863.44	38
2864.29	30
2865.15	36
2866.01	36
2866.86	26
2867.72	28
2868.58	32
2869.43	32
2870.29	34
2871.14	30
2872	32
2872.86	32
2873.71	29
2874.57	26
2875.42	26
2876.28	22
2877.13	36
2877.99	32
2878.84	36
2879.7	34
2880.55	34
2881.41	24
2882.26	34
2883.11	30
2883.97	36
2884.82	34
2885.68	32
2886.53	34
2887.39	30
2888.24	36
2889.09	32
2889.94	30
2890.8	24
2891.65	30
2892.5	30
2893.36	32
2894.21	38
2895.06	30
2895.91	34
2896.77	36
2897.62	30
2898.47	26
2899.32	32
2900.17	32
2901.03	28
2901.88	38
2902.73	30
2903.58	26
2904.43	30
2905.28	26
2906.13	34
2906.98	34
2907.84	28
2908.69	34
2909.54	36
2910.39	36
2911.24	32
2912.09	28
2912.94	32
2913.79	22
2914.64	32
2915.49	26
2916.34	30
2917.19	34
2918.03	32
2918.88	24
2919.73	34
2920.58	32
2921.43	32
2922.28	28
2923.13	32
2923.98	28
2924.82	30
2925.67	26
2926.52	26
2927.37	30
2928.22	30
2929.06	30
2929.91	34
2930.76	24
2931.61	34
2932.45	28
2933.3	30
2934.15	26
2934.99	32
2935.84	26
2936.69	32
2937.53	40
2938.38	22
2939.23	20
2940.07	26
2940.92	24
2941.76	42
2942.61	34
2943.46	26
2944.3	36
2945.15	24
2945.99	22
2946.84	28
2947.68	34
2948.53	30
2949.37	38
2950.22	26
2951.06	38
2951.9	30
2952.75	26
2953.59	28
2954.44	28
2955.28	32
2956.12	26
2956.97	28
2957.81	30
2958.65	28
2959.5	32
2960.34	28
2961.18	32
2962.03	24
2962.87	30
2963.71	32
2964.56	34
2965.4	26
2966.24	28
2967.08	30
2967.92	32
2968.77	28
2969.61	26
2970.45	30
2971.29	26
2972.13	30
2972.97	26
2973.82	30
2974.66	32
2975.5	30
2976.34	30
2977.18	26
2978.02	32
2978.86	28
2979.7	24
2980.54	26
2981.38	26
2982.22	30
2983.06	36
2983.9	24
2984.74	36
2985.58	34
2986.42	34
2987.26	28
2988.1	30
2988.94	30
2989.78	32
2990.61	22
2991.45	28
2992.29	30
2993.13	22
2993.97	32
2994.81	32
2995.64	26
2996.48	30
2997.32	32
2998.16	32
2999	26
2999.83	26
