#Acq. time (s)=	10
#Accumulations=	1
#Range (cm-¹)=	200...3000
#Windows=	3
#Autofocus=	Off
#AutoExposure=	Off
#Spike filter=	Off
#Delay time (s)=	0
#Binning=	1
#Readout mode=	Signal
#DeNoise=	Off
#ICS correction=	Off
#Dark correction=	Off
#Inst. Process=	Off
#Instrument=	LabRAM HR Evol
#Detector=	Syncerity OE
#Objective=	x100_VIS
#Grating=	600 (500nm)
#ND Filter=	0.1%
#Laser=	633nm_Edge
#Hole=	100.021
#Range=	Visible
#Project=	Omar
#Sample=	03-07-23
#Site=	papal
#Title=	leaf_100x
#Remark=	
#Date=	03.07.2023 17:22
#Acquired=	03.07.2023 17:22:22
201.713	106
202.98	108
204.247	120
205.513	120
206.778	126
208.045	120
209.311	122
210.576	128
211.84	122
213.106	126
214.371	120
215.636	122
216.899	126
218.164	120
219.428	134
220.692	116
221.955	128
223.219	130
224.482	144
225.744	128
227.007	128
228.27	132
229.531	146
230.794	122
232.055	148
233.317	130
234.579	138
235.839	134
237.1	152
238.362	136
239.621	148
240.882	142
242.141	132
243.402	140
244.661	150
245.921	140
247.179	136
248.439	130
249.698	146
250.956	152
252.215	142
253.473	144
254.731	158
255.988	140
257.246	156
258.503	156
259.761	164
261.017	164
262.273	144
263.53	150
264.786	162
266.042	142
267.298	142
268.554	148
269.809	154
271.063	182
272.319	166
273.573	160
274.828	154
276.082	162
277.336	172
278.591	160
279.844	154
281.097	172
282.351	168
283.603	186
284.855	166
286.109	172
287.361	194
288.613	170
289.866	178
291.117	178
292.368	186
293.62	180
294.871	182
296.121	184
297.372	178
298.623	180
299.873	188
301.123	192
302.372	188
303.622	192
304.872	196
306.121	180
307.37	192
308.618	198
309.866	190
311.116	180
312.364	202
313.611	206
314.859	200
316.106	198
317.353	216
318.6	202
319.848	196
321.095	218
322.341	208
323.587	200
324.833	220
326.079	212
327.324	204
328.569	218
329.814	226
331.059	212
332.304	224
333.548	232
334.792	220
336.037	210
337.28	224
338.524	228
339.767	260
341.011	212
342.254	228
343.497	228
344.739	246
345.982	236
347.224	234
348.466	238
349.708	246
350.95	212
352.191	246
353.432	238
354.673	252
355.914	246
357.155	234
358.394	240
359.634	246
360.874	272
362.114	244
363.354	260
364.593	248
365.832	264
367.07	284
368.309	270
369.548	276
370.786	256
372.024	268
373.261	272
374.499	256
375.736	276
376.974	268
378.211	256
379.447	262
380.684	276
381.92	272
383.157	274
384.392	270
385.628	270
386.864	256
388.098	282
389.333	272
390.569	280
391.802	280
393.037	288
394.272	306
395.505	284
396.739	286
397.973	292
399.206	292
400.44	298
401.673	300
402.905	314
404.138	298
405.37	296
406.602	290
407.835	300
409.066	318
410.298	336
411.528	300
412.76	330
413.99	332
415.221	304
416.451	330
417.682	330
418.911	340
420.142	342
421.371	332
422.601	350
423.83	354
425.059	366
426.288	346
427.517	358
428.745	350
429.974	372
431.201	362
432.43	374
433.657	358
434.883	340
436.111	352
437.338	350
438.565	368
439.791	350
441.017	362
442.244	342
443.469	372
444.695	386
445.921	356
447.146	352
448.37	388
449.596	366
450.821	384
452.045	380
453.27	372
454.493	368
455.717	382
456.94	380
458.165	380
459.387	390
460.61	378
461.833	418
463.056	366
464.278	366
465.5	410
466.722	402
467.945	396
469.166	400
470.387	416
471.608	382
472.829	428
474.049	402
475.271	426
476.491	428
477.711	402
478.931	414
480.15	418
481.37	428
482.589	440
483.808	426
485.027	434
486.247	416
487.465	464
488.683	434
489.901	446
491.119	440
492.337	470
493.554	450
494.771	442
495.988	436
497.205	470
498.422	450
499.638	468
500.854	468
502.07	464
503.286	434
504.502	452
505.717	480
506.933	464
508.148	462
509.363	482
510.577	482
511.792	466
513.005	496
514.219	478
515.433	488
516.647	474
517.86	510
519.073	522
520.287	502
521.5	494
522.711	482
523.924	508
525.136	508
526.348	510
527.56	506
528.772	488
529.982	546
531.194	532
532.405	548
533.616	496
534.825	516
536.036	532
537.246	550
538.457	530
539.665	530
540.875	508
542.085	534
543.294	544
544.502	542
545.712	536
546.92	560
548.128	546
549.336	566
550.545	562
551.751	558
552.959	556
554.167	580
555.373	550
556.581	574
557.788	580
558.994	594
560.2	558
561.406	594
562.612	614
563.817	582
565.023	600
566.229	606
567.433	588
568.639	594
569.843	596
571.048	610
572.251	620
573.456	628
574.659	622
575.863	606
577.066	636
578.27	640
579.472	648
580.676	664
581.878	646
583.081	670
584.283	660
585.484	636
586.687	672
587.888	656
589.09	626
590.291	678
591.493	686
592.693	678
593.893	670
595.094	692
596.294	672
597.494	696
598.694	714
599.894	700
601.093	684
602.293	692
603.491	700
604.69	690
605.889	740
607.087	710
608.285	754
609.483	730
610.682	732
611.879	796
613.076	746
614.273	776
615.471	728
616.667	752
617.864	764
619.06	762
620.256	780
621.453	778
622.648	782
623.844	796
625.039	782
626.234	806
627.429	820
628.625	818
629.819	844
631.013	814
632.208	822
633.401	802
634.595	810
635.789	866
636.982	838
638.175	844
639.369	810
640.562	842
641.755	836
642.947	872
644.139	862
645.331	874
646.523	854
647.715	884
648.906	880
650.097	846
651.288	894
652.479	900
653.67	904
654.86	888
656.051	894
657.241	922
658.429	886
659.619	902
660.808	896
661.998	906
663.187	952
664.376	962
665.565	930
666.753	940
667.942	998
669.13	940
670.317	950
671.505	1000
672.692	1002
673.88	994
675.067	1022
676.254	986
677.44	1012
678.627	952
679.813	1060
681	972
682.184	1028
683.37	1002
684.556	1032
685.742	1000
686.926	1040
688.111	1032
689.296	994
690.481	1068
691.664	1074
692.849	1090
694.033	1060
695.216	1072
696.4	1084
697.584	1096
698.766	1070
699.949	1096
701.133	1096
702.314	1144
703.497	1100
704.678	1174
705.861	1140
707.043	1176
708.224	1132
709.406	1182
710.586	1214
711.768	1152
712.949	1158
714.129	1204
715.31	1206
716.489	1216
717.67	1218
718.849	1218
720.029	1206
721.208	1226
722.388	1278
723.566	1246
724.746	1274
725.924	1322
727.103	1324
728.28	1254
729.458	1286
730.636	1302
731.814	1320
732.992	1294
734.168	1344
735.345	1324
736.523	1384
737.699	1350
738.876	1368
740.052	1352
741.227	1376
742.404	1370
743.579	1410
744.754	1402
745.931	1420
747.105	1410
748.28	1392
749.455	1436
750.629	1402
751.803	1368
752.977	1476
754.152	1434
755.325	1430
756.499	1494
757.672	1484
758.846	1488
760.018	1536
761.191	1492
762.363	1478
763.535	1562
764.708	1498
765.88	1562
767.052	1586
768.223	1518
769.394	1546
770.565	1594
771.737	1544
772.908	1620
774.078	1584
775.249	1662
776.419	1606
777.589	1602
778.758	1684
779.928	1678
781.097	1684
782.266	1702
783.435	1634
784.604	1716
785.773	1662
786.941	1686
788.11	1736
789.278	1752
790.446	1740
791.613	1682
792.781	1736
793.948	1784
795.115	1778
796.282	1830
797.449	1798
798.616	1822
799.782	1884
800.948	1828
802.115	1882
803.28	1898
804.446	1866
805.612	1862
806.777	1892
807.941	1906
809.106	1968
810.271	1978
811.435	1944
812.6	1920
813.764	2012
814.927	2002
816.091	2056
817.254	2028
818.418	2056
819.581	2058
820.743	2096
821.906	2076
823.069	2112
824.232	2102
825.393	2084
826.555	2090
827.717	2082
828.879	2196
830.039	2168
831.201	2172
832.362	2194
833.522	2192
834.683	2252
835.844	2278
837.003	2234
838.164	2254
839.324	2278
840.483	2244
841.643	2316
842.801	2320
843.961	2312
845.12	2370
846.278	2386
847.437	2372
848.594	2332
849.753	2334
850.91	2414
852.069	2408
853.227	2482
854.383	2430
855.541	2472
856.697	2414
857.855	2506
859.011	2488
860.168	2496
861.323	2524
862.48	2504
863.635	2540
864.79	2630
865.946	2598
867.101	2630
868.257	2646
869.411	2692
870.567	2668
871.721	2650
872.874	2620
874.029	2696
875.183	2748
876.336	2678
877.49	2692
878.643	2758
879.796	2778
880.95	2758
882.102	2776
883.254	2808
884.407	2856
885.559	2822
886.711	2920
887.862	2874
889.015	2906
890.166	2918
891.317	2860
892.467	2932
893.619	2974
894.77	2856
895.92	2948
897.07	3030
898.221	2992
899.371	2980
900.52	2996
901.669	3006
902.819	3016
903.968	3030
905.116	3018
906.266	3020
907.415	3034
908.563	3124
909.711	3148
910.859	3168
912.007	3146
913.154	3250
914.301	3184
915.449	3190
916.596	3302
917.742	3272
918.889	3264
920.036	3282
921.183	3252
922.329	3296
923.475	3384
924.621	3286
925.765	3406
926.911	3402
928.056	3402
929.201	3420
930.346	3426
931.49	3466
932.635	3474
933.779	3454
934.924	3540
936.068	3428
937.211	3528
938.355	3576
939.498	3580
940.64	3642
941.784	3642
942.926	3648
944.069	3708
945.212	3652
946.354	3664
947.495	3742
948.637	3754
949.779	3764
950.921	3850
952.062	3914
953.202	3892
954.344	3844
955.484	3898
956.625	3936
957.765	3930
958.905	4002
960.045	4004
961.184	3974
962.324	4032
963.464	4048
964.604	4058
965.742	4124
966.881	4140
968.02	4166
969.158	4068
970.296	4166
971.434	4240
972.572	4140
973.71	4164
974.847	4210
975.985	4314
977.121	4316
978.259	4304
979.396	4362
980.532	4242
981.669	4390
982.804	4376
983.941	4336
985.076	4382
986.212	4518
987.347	4512
988.483	4522
989.617	4432
990.753	4526
991.887	4546
993.022	4610
994.156	4556
995.29	4638
996.424	4580
997.558	4602
998.692	4658
999.825	4648
1000.96	4668
1002.09	4718
1003.22	4644
1004.36	4850
1005.49	4846
1006.62	4822
1007.75	4886
1008.89	4886
1010.02	4872
1011.15	4930
1012.28	5012
1013.41	5010
1014.54	4976
1015.67	5010
1016.8	5016
1017.93	5070
1019.07	5048
1020.19	5108
1021.32	5108
1022.45	5170
1023.58	5168
1024.71	5244
1025.84	5252
1026.97	5312
1028.1	5326
1029.23	5322
1030.36	5358
1031.49	5356
1032.61	5374
1033.74	5450
1034.87	5462
1036	5458
1037.12	5526
1038.25	5530
1039.38	5562
1040.5	5630
1041.63	5642
1042.76	5688
1043.88	5752
1045.01	5706
1046.14	5764
1047.26	5884
1048.39	5900
1049.51	5954
1050.64	5868
1051.76	5936
1052.89	5968
1054.01	6070
1055.14	5994
1056.26	5980
1057.38	6100
1058.51	6152
1059.63	6154
1060.75	6178
1061.88	6150
1063	6122
1064.12	6236
1065.25	6194
1066.37	6194
1067.49	6252
1068.61	6312
1069.73	6284
1070.86	6270
1071.98	6364
1073.1	6382
1074.22	6362
1075.34	6416
1076.46	6464
1077.58	6472
1078.7	6472
1079.82	6520
1080.94	6520
1082.06	6528
1083.18	6510
1084.3	6572
1085.42	6660
1086.54	6636
1087.66	6654
1088.78	6700
1089.9	6660
1091.02	6790
1092.14	6780
1093.25	6714
1094.37	6856
1095.49	6754
1096.61	6828
1097.72	6798
1098.84	6870
1099.96	6944
1101.08	6796
1102.19	6900
1103.31	6900
1104.43	6966
1105.54	6968
1106.66	7000
1107.77	7046
1108.89	7050
1110	7032
1111.12	7134
1112.23	7066
1113.35	7170
1114.46	7092
1115.58	7208
1116.69	7210
1117.81	7178
1118.92	7288
1120.03	7196
1121.15	7360
1122.26	7350
1123.37	7392
1124.49	7268
1125.6	7296
1126.71	7424
1127.83	7454
1128.94	7404
1130.05	7500
1131.16	7428
1132.27	7612
1133.39	7546
1134.5	7544
1135.61	7540
1136.72	7672
1137.83	7628
1138.94	7634
1140.05	7676
1141.16	7758
1142.27	7748
1143.38	7828
1144.49	7864
1145.6	7746
1146.71	7848
1147.82	7968
1148.93	7818
1150.04	7884
1151.15	7928
1152.26	7976
1153.36	7940
1154.47	7998
1155.58	8010
1156.69	8104
1157.8	8060
1158.9	8058
1160.01	8042
1161.12	8126
1162.22	8072
1163.33	8192
1164.44	8104
1165.54	8150
1166.65	8078
1167.76	8126
1168.86	8194
1169.97	8108
1171.07	8188
1172.18	8156
1173.28	8192
1174.39	8250
1175.49	8140
1176.6	8288
1177.7	8284
1178.81	8238
1179.91	8342
1181.02	8312
1182.12	8344
1183.22	8236
1184.33	8266
1185.43	8110
1186.53	8292
1187.63	8214
1188.74	8292
1189.84	8280
1190.94	8296
1192.04	8352
1193.15	8296
1194.25	8276
1195.35	8276
1196.45	8124
1197.55	8304
1198.65	8310
1199.75	8246
1200.85	8200
1201.95	8232
1203.05	8294
1204.16	8258
1205.25	8232
1206.35	8258
1207.45	8216
1208.55	8232
1209.65	8218
1210.75	8170
1211.85	8154
1212.95	8154
1214.05	8144
1215.15	8118
1216.24	8112
1217.34	8080
1218.44	8068
1219.54	8084
1220.64	7994
1221.73	8088
1222.83	7984
1223.93	8046
1225.02	7952
1226.12	8026
1227.22	7968
1228.31	7928
1229.41	8096
1230.5	7926
1231.6	7916
1232.7	7998
1233.79	7932
1234.89	7868
1235.98	7914
1237.08	7918
1238.17	7896
1239.26	7910
1240.36	7912
1241.45	7844
1242.55	7922
1243.64	7778
1244.73	7784
1245.83	7704
1246.92	7886
1248.01	7936
1249.11	7758
1250.2	7716
1251.29	7904
1252.38	7742
1253.48	7774
1254.57	7720
1255.66	7662
1256.75	7628
1257.84	7700
1258.93	7750
1260.03	7620
1261.12	7726
1262.21	7614
1263.3	7730
1264.39	7598
1265.48	7542
1266.57	7478
1267.66	7590
1268.75	7594
1269.84	7540
1270.93	7488
1272.02	7444
1273.11	7514
1274.19	7536
1275.28	7574
1276.37	7430
1277.46	7334
1278.55	7462
1279.64	7286
1280.72	7352
1281.81	7256
1282.9	7344
1283.98	7260.3
1285.07	7255.06
1286.16	7136.49
1287.25	7206.91
1288.33	7099.23
1289.42	7055.94
1290.5	7134.64
1291.59	7164.95
1292.68	7047.42
1293.76	6930.34
1294.85	6886.78
1295.93	6889.06
1297.02	6831.06
1298.1	6867.86
1299.19	6817.78
1300.27	6803.74
1301.36	6761.4
1302.44	6764.05
1303.53	6660.96
1304.61	6715.83
1305.69	6728.87
1306.78	6672.19
1307.86	6599.65
1308.94	6576
1310.03	6485.63
1311.11	6519.72
1312.19	6498.75
1313.27	6411.8
1314.36	6446.82
1315.44	6347.29
1316.52	6382.28
1317.6	6345.39
1318.68	6301.41
1319.77	6252.57
1320.85	6236.51
1321.93	6162.15
1323.01	6191.96
1324.09	6166.53
1325.17	6182.87
1326.25	6035.57
1327.33	6097.87
1328.41	6052.01
1329.49	6027.06
1330.57	5995.03
1331.65	5958.99
1332.73	5890.66
1333.81	5905.93
1334.89	5864.44
1335.97	5787.95
1337.04	5802.47
1338.12	5787.34
1339.2	5765.47
1340.28	5768.31
1341.36	5683.62
1342.44	5647.39
1343.51	5655.54
1344.59	5570.57
1345.67	5543.09
1346.75	5485.55
1347.82	5515.45
1348.9	5444.13
1349.98	5468.93
1351.05	5472.14
1352.13	5399.83
1353.2	5403.52
1354.28	5361.64
1355.36	5308.31
1356.43	5292.3
1357.51	5345.78
1358.58	5161.38
1359.66	5325.6
1360.73	5162.44
1361.81	5107.04
1362.88	5157.56
1363.96	5061.09
1365.03	5063.51
1366.1	5101.53
1367.18	5038.08
1368.25	5064.44
1369.33	5008.51
1370.4	4943.74
1371.47	4977.1
1372.54	4904.94
1373.62	4951.37
1374.69	4915.01
1375.76	4884.75
1376.83	4826.41
1377.91	4853.57
1378.98	4831.01
1380.05	4784.1
1381.12	4691.88
1382.19	4751.58
1383.26	4744.57
1384.34	4731.31
1385.41	4730.99
1386.48	4656.84
1387.55	4660.9
1388.62	4565.84
1389.69	4547.89
1390.76	4564.95
1391.83	4603.46
1392.9	4510.98
1393.02	4496
1394.1	4508
1395.17	4492
1396.25	4470
1397.32	4436
1398.4	4444
1399.47	4484
1400.55	4402
1401.62	4298
1402.69	4388
1403.77	4338
1404.84	4256
1405.91	4342
1406.99	4322
1408.06	4262
1409.13	4262
1410.2	4292
1411.27	4226
1412.35	4338
1413.42	4234
1414.49	4256
1415.56	4238
1416.63	4168
1417.7	4162
1418.78	4164
1419.85	4170
1420.92	4084
1421.99	4146
1423.06	4094
1424.13	4096
1425.2	4080
1426.27	4072
1427.34	4092
1428.41	3920
1429.48	3988
1430.55	4012
1431.61	4030
1432.68	3938
1433.75	3924
1434.82	3994
1435.89	3968
1436.96	3890
1438.02	3912
1439.09	3912
1440.16	3988
1441.23	3888
1442.3	3902
1443.36	3892
1444.43	3832
1445.5	3834
1446.56	3702
1447.63	3876
1448.7	3798
1449.76	3788
1450.83	3806
1451.89	3832
1452.96	3736
1454.02	3748
1455.09	3736
1456.15	3712
1457.22	3688
1458.28	3680
1459.35	3654
1460.41	3684
1461.48	3674
1462.54	3668
1463.61	3616
1464.67	3608
1465.73	3690
1466.8	3628
1467.86	3600
1468.92	3608
1469.98	3560
1471.05	3540
1472.11	3620
1473.17	3590
1474.24	3488
1475.3	3556
1476.36	3556
1477.42	3428
1478.48	3538
1479.54	3516
1480.6	3550
1481.67	3496
1482.73	3444
1483.79	3496
1484.85	3508
1485.91	3480
1486.97	3378
1488.03	3500
1489.09	3412
1490.15	3396
1491.21	3434
1492.27	3426
1493.33	3402
1494.38	3392
1495.44	3448
1496.5	3368
1497.56	3354
1498.62	3366
1499.68	3314
1500.74	3300
1501.79	3368
1502.85	3272
1503.91	3290
1504.97	3396
1506.02	3334
1507.08	3262
1508.14	3280
1509.2	3252
1510.25	3278
1511.31	3264
1512.36	3312
1513.42	3246
1514.48	3172
1515.53	3200
1516.59	3222
1517.64	3162
1518.7	3242
1519.75	3200
1520.81	3138
1521.86	3164
1522.92	3124
1523.97	3118
1525.02	3098
1526.08	3148
1527.13	3096
1528.19	3086
1529.24	3114
1530.29	3128
1531.35	3088
1532.4	3090
1533.45	3050
1534.51	3008
1535.56	3036
1536.61	2986
1537.66	3096
1538.72	3034
1539.77	3048
1540.82	2956
1541.87	2992
1542.92	3038
1543.97	3044
1545.02	2972
1546.08	2932
1547.13	2930
1548.18	2948
1549.23	2974
1550.28	2926
1551.33	2924
1552.38	2982
1553.43	2952
1554.48	2910
1555.53	2874
1556.57	2906
1557.62	2874
1558.67	2810
1559.72	2878
1560.77	2804
1561.82	2934
1562.87	2816
1563.92	2812
1564.96	2850
1566.01	2820
1567.06	2772
1568.11	2782
1569.15	2886
1570.2	2780
1571.25	2866
1572.29	2766
1573.34	2832
1574.39	2752
1575.43	2764
1576.48	2808
1577.53	2746
1578.57	2806
1579.62	2782
1580.66	2738
1581.71	2802
1582.75	2760
1583.8	2772
1584.84	2770
1585.89	2780
1586.93	2680
1587.98	2746
1589.02	2720
1590.06	2720
1591.11	2722
1592.15	2750
1593.2	2750
1594.24	2708
1595.28	2708
1596.33	2678
1597.37	2768
1598.41	2700
1599.45	2696
1600.5	2694
1601.54	2704
1602.58	2696
1603.62	2648
1604.66	2630
1605.7	2680
1606.75	2644
1607.79	2648
1608.83	2698
1609.87	2678
1610.91	2602
1611.95	2622
1612.99	2640
1614.03	2636
1615.07	2702
1616.11	2656
1617.15	2636
1618.19	2596
1619.23	2630
1620.27	2622
1621.31	2626
1622.35	2662
1623.39	2566
1624.43	2596
1625.46	2606
1626.5	2594
1627.54	2638
1628.58	2612
1629.62	2566
1630.65	2574
1631.69	2624
1632.73	2526
1633.77	2606
1634.8	2604
1635.84	2606
1636.88	2550
1637.91	2592
1638.95	2586
1639.99	2616
1641.02	2534
1642.06	2474
1643.09	2520
1644.13	2522
1645.16	2522
1646.2	2550
1647.23	2494
1648.27	2536
1649.3	2500
1650.34	2550
1651.37	2494
1652.41	2570
1653.44	2538
1654.47	2512
1655.51	2518
1656.54	2482
1657.57	2472
1658.61	2472
1659.64	2488
1660.67	2476
1661.71	2438
1662.74	2456
1663.77	2454
1664.81	2484
1665.84	2488
1666.87	2464
1667.9	2432
1668.93	2468
1669.96	2412
1671	2452
1672.03	2372
1673.06	2404
1674.09	2446
1675.12	2406
1676.15	2394
1677.18	2436
1678.21	2476
1679.24	2460
1680.27	2376
1681.3	2350
1682.33	2300
1683.36	2364
1684.39	2404
1685.42	2354
1686.45	2386
1687.47	2386
1688.5	2370
1689.53	2386
1690.56	2408
1691.59	2406
1692.62	2390
1693.64	2352
1694.67	2342
1695.7	2348
1696.73	2352
1697.75	2396
1698.78	2348
1699.81	2352
1700.83	2320
1701.86	2314
1702.89	2348
1703.91	2346
1704.94	2346
1705.97	2304
1706.99	2330
1708.02	2364
1709.04	2340
1710.07	2320
1711.09	2258
1712.12	2310
1713.14	2320
1714.17	2344
1715.19	2280
1716.22	2200
1717.24	2286
1718.26	2320
1719.29	2314
1720.31	2304
1721.33	2272
1722.36	2300
1723.38	2320
1724.4	2258
1725.43	2322
1726.45	2360
1727.47	2240
1728.49	2286
1729.52	2296
1730.54	2296
1731.56	2254
1732.58	2268
1733.6	2238
1734.63	2270
1735.65	2300
1736.67	2228
1737.69	2266
1738.71	2294
1739.73	2256
1740.75	2214
1741.77	2298
1742.79	2206
1743.81	2202
1744.83	2240
1745.85	2262
1746.87	2224
1747.89	2236
1748.91	2268
1749.93	2242
1750.95	2260
1751.97	2294
1752.98	2236
1754	2234
1755.02	2226
1756.04	2248
1757.06	2272
1758.07	2208
1759.09	2228
1760.11	2266
1761.13	2198
1762.14	2244
1763.16	2184
1764.18	2212
1765.19	2258
1766.21	2236
1767.23	2236
1768.24	2216
1769.26	2194
1770.28	2262
1771.29	2182
1772.31	2176
1773.32	2220
1774.34	2232
1775.35	2240
1776.37	2262
1777.38	2212
1778.4	2194
1779.41	2156
1780.43	2302
1781.44	2236
1782.45	2242
1783.47	2252
1784.48	2200
1785.49	2212
1786.51	2234
1787.52	2270
1788.53	2232
1789.55	2226
1790.56	2230
1791.57	2214
1792.58	2186
1793.6	2208
1794.61	2218
1795.62	2222
1796.63	2194
1797.64	2216
1798.66	2234
1799.67	2172
1800.68	2252
1801.69	2138
1802.7	2172
1803.71	2264
1804.72	2202
1805.73	2148
1806.74	2184
1807.75	2172
1808.76	2258
1809.77	2166
1810.78	2138
1811.79	2196
1812.8	2202
1813.81	2216
1814.82	2178
1815.83	2190
1816.84	2224
1817.84	2172
1818.85	2180
1819.86	2198
1820.87	2188
1821.88	2156
1822.88	2142
1823.89	2176
1824.9	2172
1825.91	2156
1826.91	2204
1827.92	2190
1828.93	2192
1829.93	2180
1830.94	2140
1831.95	2140
1832.95	2178
1833.96	2158
1834.97	2170
1835.97	2140
1836.98	2144
1837.98	2130
1838.99	2188
1839.99	2156
1841	2162
1842	2184
1843.01	2154
1844.01	2172
1845.02	2122
1846.02	2120
1847.02	2104
1848.03	2140
1849.03	2154
1850.03	2144
1851.04	2098
1852.04	2146
1853.04	2098
1854.05	2130
1855.05	2092
1856.05	2190
1857.05	2122
1858.06	2100
1859.06	2150
1860.06	2092
1861.06	2110
1862.06	2144
1863.07	2136
1864.07	2120
1865.07	2108
1866.07	2108
1867.07	2142
1868.07	2176
1869.07	2094
1870.07	2078
1871.07	2180
1872.07	2112
1873.07	2128
1874.07	2116
1875.07	2088
1876.07	2082
1877.07	2096
1878.07	2094
1879.07	2098
1880.07	2160
1881.07	2130
1882.07	2174
1883.06	2116
1884.06	2120
1885.06	2110
1886.06	2150
1887.06	2126
1888.05	2100
1889.05	2078
1890.05	2128
1891.05	2090
1892.04	2120
1893.04	2156
1894.04	2138
1895.03	2080
1896.03	2086
1897.03	2102
1898.02	2118
1899.02	2086
1900.01	2116
1901.01	2084
1902	2096
1903	2098
1903.99	2110
1904.99	2092
1905.98	2106
1906.98	2124
1907.97	2072
1908.97	2094
1909.96	2116
1910.96	2078
1911.95	2098
1912.94	2066
1913.94	2070
1914.93	2064
1915.93	2108
1916.92	2054
1917.91	2096
1918.9	2134
1919.9	2064
1920.89	2112
1921.88	2084
1922.87	2016
1923.87	2104
1924.86	2080
1925.85	2082
1926.84	2090
1927.83	2100
1928.82	2118
1929.82	2094
1930.81	2070
1931.8	2092
1932.79	2110
1933.78	2094
1934.77	2084
1935.76	2100
1936.75	2136
1937.74	2100
1938.73	2082
1939.72	2096
1940.71	2040
1941.7	2084
1942.69	2048
1943.68	2112
1944.67	2118
1945.65	2076
1946.64	2034
1947.63	2026
1948.62	2058
1949.61	2064
1950.6	2120
1951.58	2036
1952.57	2068
1953.56	2050
1954.55	2034
1955.53	2046
1956.52	2088
1957.51	2066
1958.5	2038
1959.48	2052
1960.47	2058
1961.45	2026
1962.44	2036
1963.43	2032
1964.41	2050
1965.4	2038
1966.38	2068
1967.37	2004
1968.35	2056
1969.34	2006
1970.32	2000
1971.31	2028
1972.29	2066
1973.28	2050
1974.26	2058
1975.25	2032
1976.23	2060
1977.22	2082
1978.2	2014
1979.18	1980
1980.17	2010
1981.15	2034
1982.13	2028
1983.12	2066
1984.1	2010
1985.08	2046
1986.06	2054
1987.05	1986
1988.03	2036
1989.01	2014
1989.99	2038
1990.97	2004
1991.96	2008
1992.94	2026
1993.92	2020
1994.9	2010
1995.88	2002
1996.86	2032
1997.84	1990
1998.82	1986
1999.8	1966
2000.78	2038
2001.76	2004
2002.74	1994
2003.72	2028
2004.7	2046
2005.68	1966
2006.66	2022
2007.64	2000
2008.62	2046
2009.6	2030
2010.58	2026
2011.56	2000
2012.54	1978
2013.51	2036
2014.49	1982
2015.47	2010
2016.45	1978
2017.43	2022
2018.4	2012
2019.38	1976
2020.36	2010
2021.34	1994
2022.31	2008
2023.29	2014
2024.27	1950
2025.24	1998
2026.22	2006
2027.2	1976
2028.17	1991
2029.15	2006
2030.12	1990
2031.1	1970
2032.07	1990
2033.05	1974
2034.03	1966
2035	1982
2035.98	1956
2036.95	1960
2037.93	1986
2038.9	1942
2039.87	1970
2040.85	1970
2041.82	1946
2042.8	2004
2043.77	2000
2044.74	1964
2045.72	1964
2046.69	1978
2047.66	1954
2048.64	1940
2049.61	1970
2050.58	1966
2051.55	1912
2052.53	2002
2053.5	1986
2054.47	2006
2055.44	1948
2056.41	1972
2057.39	1926
2058.36	1940
2059.33	1996
2060.3	1942
2061.27	1958
2062.24	2018
2063.21	1920
2064.18	1994
2065.15	1914
2066.12	1912
2067.09	1978
2068.06	1992
2069.03	1958
2070	1918
2070.97	1918
2071.94	1942
2072.91	1946
2073.88	1932
2074.85	1918
2075.82	1932
2076.79	1970
2077.76	1928
2078.73	1968
2079.69	1894
2080.66	1884
2081.63	1916
2082.6	1922
2083.56	1944
2084.53	1956
2085.5	1902
2086.47	1966
2087.43	1902
2088.4	1926
2089.37	1968
2090.33	1940
2091.3	1916
2092.27	1944
2093.23	1896
2094.2	1922
2095.17	1956
2096.13	1932
2097.1	1896
2098.06	1876
2099.03	1936
2099.99	1914
2100.96	1962
2101.92	1900
2102.89	1930
2103.85	1886
2104.82	1924
2105.78	1918
2106.74	1834
2107.71	1970
2108.67	1912
2109.64	1898
2110.6	1886
2111.56	1938
2112.53	1970
2113.49	1920
2114.45	1912
2115.41	1932
2116.38	1924
2117.34	1916
2118.3	1912
2119.26	1894
2120.23	1926
2121.19	1936
2122.15	1904
2123.11	1888
2124.07	1866
2125.03	1890
2126	1910
2126.96	1898
2127.92	1872
2128.88	1862
2129.84	1896
2130.8	1894
2131.76	1938
2132.72	1922
2133.68	1918
2134.64	1928
2135.6	1934
2136.56	1854
2137.52	1862
2138.48	1892
2139.44	1876
2140.4	1866
2141.35	1922
2142.31	1922
2143.27	1906
2144.23	1892
2145.19	1888
2146.15	1926
2147.1	1844
2148.06	1900
2149.02	1886
2149.98	1912
2150.94	1900
2151.89	1878
2152.85	1888
2153.81	1856
2154.76	1896
2155.72	1864
2156.68	1874
2157.63	1880
2158.59	1828
2159.55	1856
2160.5	1860
2161.46	1840
2162.41	1816
2163.37	1822
2164.32	1830
2165.28	1860
2166.23	1862
2167.19	1896
2168.14	1860
2169.1	1888
2170.05	1840
2171.01	1864
2171.96	1854
2172.91	1856
2173.87	1820
2174.82	1848
2175.78	1840
2176.73	1832
2177.68	1856
2178.64	1830
2179.59	1860
2180.54	1862
2181.49	1818
2182.45	1898
2183.4	1850
2184.35	1864
2185.3	1830
2186.26	1846
2187.21	1822
2188.16	1810
2189.11	1856
2190.06	1802
2191.01	1794
2191.96	1826
2192.92	1774
2193.87	1794
2194.82	1794
2195.77	1766
2196.72	1816
2197.67	1760
2198.62	1792
2199.57	1778
2200.52	1828
2201.47	1794
2202.42	1754
2203.37	1772
2204.32	1842
2205.27	1766
2206.22	1730
2207.16	1764
2208.11	1808
2209.06	1808
2210.01	1772
2210.96	1784
2211.91	1796
2212.85	1844
2213.8	1768
2214.75	1796
2215.7	1764
2216.64	1760
2217.59	1814
2218.54	1740
2219.49	1770
2220.43	1724
2221.38	1756
2222.33	1800
2223.27	1759.66
2224.22	1707.46
2225.16	1746.19
2226.11	1732.1
2227.06	1760.29
2228	1745.37
2228.95	1715.93
2229.89	1726.67
2230.84	1721.37
2231.78	1789.56
2232.73	1734.79
2233.67	1757.25
2234.62	1757.51
2235.56	1749.13
2236.51	1752.02
2237.45	1765.82
2238.4	1714.28
2239.34	1714.95
2240.28	1766.59
2241.23	1736.96
2242.17	1715.38
2243.11	1713.53
2244.06	1702.99
2245	1734.94
2245.94	1741.5
2246.89	1720.75
2247.83	1698.93
2248.77	1708.08
2249.71	1712.62
2250.66	1715.13
2251.6	1728.21
2252.54	1663.68
2253.48	1697.06
2254.42	1684.35
2255.37	1699.63
2256.31	1723.54
2257.25	1672.2
2258.19	1713.37
2259.13	1709.32
2260.07	1699.73
2261.01	1710.34
2261.95	1700.78
2262.89	1666.26
2263.83	1667.36
2264.77	1667.36
2265.71	1685.21
2266.65	1678.04
2267.59	1681.67
2268.53	1684.96
2269.47	1666.22
2270.41	1688.78
2271.35	1637.09
2272.29	1674.88
2273.23	1660.53
2274.17	1646.63
2275.1	1661.54
2276.04	1640.8
2276.98	1632.09
2277.92	1654.01
2278.86	1626.95
2279.8	1613.9
2280.73	1662.04
2281.67	1633.47
2282.61	1614.94
2283.55	1615.7
2284.48	1608.86
2285.42	1606.68
2286.36	1609.47
2287.29	1621.94
2288.23	1601.72
2289.17	1614.24
2290.1	1602.4
2291.04	1557.5
2291.98	1604.61
2292.91	1604.87
2293.85	1601.19
2294.78	1613.43
2295.72	1592.76
2296.65	1578.85
2297.59	1594.18
2298.52	1595.26
2299.46	1608.01
2300.39	1567.74
2301.33	1596.59
2302.26	1588.55
2303.2	1556.99
2304.13	1559.9
2305.06	1569.69
2306	1555.35
2306.93	1547.38
2307.87	1532.77
2308.8	1557.51
2309.73	1588.43
2310.67	1574.76
2311.6	1539.32
2312.53	1534.3
2313.46	1541.58
2314.4	1529.92
2315.33	1512.81
2316.26	1503.98
2316.69	1504
2317.62	1514
2318.56	1524
2319.5	1536
2320.43	1522
2321.37	1506
2322.31	1516
2323.24	1526
2324.18	1494
2325.12	1524
2326.05	1576
2326.99	1506
2327.92	1510
2328.86	1556
2329.79	1478
2330.73	1520
2331.66	1502
2332.6	1540
2333.53	1546
2334.47	1540
2335.4	1536
2336.34	1508
2337.27	1508
2338.2	1470
2339.14	1518
2340.07	1440
2341.01	1486
2341.94	1480
2342.87	1502
2343.81	1484
2344.74	1480
2345.67	1478
2346.6	1480
2347.54	1486
2348.47	1490
2349.4	1462
2350.33	1516
2351.27	1462
2352.2	1444
2353.13	1476
2354.06	1500
2354.99	1502
2355.93	1480
2356.86	1442
2357.79	1464
2358.72	1448
2359.65	1462
2360.58	1476
2361.51	1442
2362.44	1458
2363.37	1488
2364.3	1438
2365.23	1414
2366.16	1476
2367.09	1402
2368.02	1454
2368.95	1434
2369.88	1426
2370.81	1394
2371.74	1442
2372.67	1418
2373.6	1436
2374.52	1434
2375.45	1350
2376.38	1352
2377.31	1422
2378.24	1406
2379.17	1416
2380.09	1386
2381.02	1428
2381.95	1388
2382.88	1418
2383.8	1392
2384.73	1380
2385.66	1386
2386.58	1346
2387.51	1416
2388.44	1386
2389.36	1376
2390.29	1348
2391.22	1384
2392.14	1362
2393.07	1350
2393.99	1356
2394.92	1374
2395.85	1324
2396.77	1382
2397.7	1374
2398.62	1328
2399.55	1380
2400.47	1354
2401.4	1330
2402.32	1384
2403.25	1328
2404.17	1358
2405.09	1314
2406.02	1284
2406.94	1344
2407.86	1318
2408.79	1350
2409.71	1310
2410.63	1328
2411.56	1280
2412.48	1342
2413.4	1278
2414.33	1316
2415.25	1318
2416.17	1340
2417.09	1288
2418.02	1322
2418.94	1334
2419.86	1292
2420.78	1308
2421.7	1288
2422.63	1294
2423.55	1246
2424.47	1290
2425.39	1284
2426.31	1316
2427.23	1256
2428.15	1254
2429.07	1276
2429.99	1240
2430.91	1208
2431.83	1266
2432.75	1250
2433.67	1242
2434.59	1300
2435.51	1250
2436.43	1278
2437.35	1292
2438.27	1256
2439.19	1204
2440.11	1268
2441.03	1252
2441.95	1246
2442.86	1202
2443.78	1202
2444.7	1204
2445.62	1218
2446.54	1176
2447.46	1218
2448.37	1198
2449.29	1218
2450.21	1210
2451.13	1200
2452.04	1210
2452.96	1170
2453.88	1204
2454.79	1186
2455.71	1224
2456.63	1162
2457.54	1188
2458.46	1174
2459.38	1188
2460.29	1158
2461.21	1172
2462.12	1172
2463.04	1152
2463.95	1158
2464.87	1130
2465.78	1140
2466.7	1162
2467.61	1178
2468.53	1182
2469.44	1154
2470.36	1122
2471.27	1146
2472.19	1124
2473.1	1118
2474.01	1156
2474.93	1098
2475.84	1142
2476.76	1130
2477.67	1156
2478.58	1146
2479.5	1126
2480.41	1146
2481.32	1126
2482.23	1096
2483.15	1104
2484.06	1108
2484.97	1126
2485.88	1080
2486.8	1110
2487.71	1098
2488.62	1064
2489.53	1124
2490.44	1074
2491.35	1058
2492.26	1044
2493.18	1086
2494.09	1056
2495	1070
2495.91	1088
2496.82	1056
2497.73	1040
2498.64	1058
2499.55	1068
2500.46	1084
2501.37	1088
2502.28	1058
2503.19	1052
2504.1	1028
2505.01	1040
2505.92	1006
2506.83	1054
2507.74	986
2508.65	1054
2509.55	1040
2510.46	1030
2511.37	1040
2512.28	1006
2513.19	1010
2514.09	1060
2515	1032
2515.91	974
2516.82	1010
2517.73	1048
2518.63	1018
2519.54	996
2520.45	976
2521.35	962
2522.26	1024
2523.17	982
2524.07	1018
2524.98	986
2525.89	1026
2526.79	972
2527.7	1006
2528.6	938
2529.51	976
2530.42	1018
2531.32	972
2532.23	976
2533.13	964
2534.04	948
2534.94	986
2535.85	944
2536.75	950
2537.66	940
2538.56	936
2539.47	912
2540.37	938
2541.27	954
2542.18	924
2543.08	976
2543.98	898
2544.89	928
2545.79	932
2546.7	938
2547.6	914
2548.5	976
2549.4	922
2550.31	944
2551.21	940
2552.11	930
2553.01	908
2553.92	894
2554.82	900
2555.72	920
2556.62	902
2557.52	878
2558.42	920
2559.33	936
2560.23	878
2561.13	882
2562.03	896
2562.93	882
2563.83	882
2564.73	902
2565.63	886
2566.53	892
2567.43	872
2568.33	904
2569.23	894
2570.13	870
2571.03	866
2571.93	870
2572.83	906
2573.73	856
2574.63	876
2575.53	872
2576.43	896
2577.33	838
2578.22	848
2579.12	862
2580.02	808
2580.92	842
2581.82	822
2582.72	830
2583.61	826
2584.51	860
2585.41	814
2586.31	866
2587.2	856
2588.1	808
2589	828
2589.89	816
2590.79	814
2591.69	824
2592.58	816
2593.48	842
2594.38	796
2595.27	806
2596.17	814
2597.06	816
2597.96	794
2598.86	778
2599.75	794
2600.65	834
2601.54	800
2602.44	802
2603.33	778
2604.23	816
2605.12	816
2606.02	774
2606.91	788
2607.81	800
2608.7	806
2609.59	786
2610.49	760
2611.38	776
2612.27	778
2613.17	770
2614.06	734
2614.95	752
2615.85	786
2616.74	772
2617.63	758
2618.53	750
2619.42	726
2620.31	726
2621.2	776
2622.1	752
2622.99	750
2623.88	762
2624.77	768
2625.66	726
2626.55	780
2627.45	740
2628.34	714
2629.23	734
2630.12	714
2631.01	726
2631.9	756
2632.79	712
2633.68	748
2634.57	716
2635.46	724
2636.35	708
2637.24	710
2638.13	726
2639.02	720
2639.91	694
2640.8	720
2641.69	718
2642.58	690
2643.47	700
2644.36	706
2645.25	684
2646.14	708
2647.02	704
2647.91	700
2648.8	696
2649.69	732
2650.58	698
2651.46	692
2652.35	688
2653.24	712
2654.13	682
2655.01	686
2655.9	682
2656.79	644
2657.68	682
2658.56	672
2659.45	694
2660.34	700
2661.22	672
2662.11	628
2662.99	686
2663.88	684
2664.77	676
2665.65	676
2666.54	644
2667.42	660
2668.31	650
2669.2	690
2670.08	662
2670.96	672
2671.85	664
2672.73	686
2673.62	652
2674.5	628
2675.39	672
2676.27	656
2677.16	666
2678.04	650
2678.93	634
2679.81	624
2680.69	620
2681.58	618
2682.46	618
2683.34	618
2684.23	638
2685.11	638
2685.99	628
2686.87	600
2687.76	602
2688.64	620
2689.52	612
2690.4	586
2691.28	624
2692.17	634
2693.05	646
2693.93	650
2694.81	606
2695.69	622
2696.57	608
2697.46	592
2698.34	606
2699.22	598
2700.1	594
2700.98	604
2701.86	578
2702.74	618
2703.62	600
2704.5	586
2705.38	580
2706.26	600
2707.14	596
2708.02	580
2708.9	568
2709.78	572
2710.66	586
2711.54	576
2712.42	562
2713.3	558
2714.17	572
2715.05	586
2715.93	582
2716.81	556
2717.69	550
2718.57	548
2719.44	552
2720.32	570
2721.2	568
2722.08	550
2722.95	534
2723.83	554
2724.71	556
2725.59	564
2726.46	544
2727.34	530
2728.22	542
2729.09	542
2729.97	518
2730.85	546
2731.72	550
2732.6	546
2733.47	534
2734.35	518
2735.23	568
2736.1	542
2736.98	522
2737.85	534
2738.73	502
2739.6	538
2740.48	510
2741.35	530
2742.23	536
2743.1	524
2743.98	502
2744.85	538
2745.72	496
2746.6	512
2747.47	502
2748.35	494
2749.22	518
2750.09	490
2750.97	490
2751.84	534
2752.71	526
2753.59	504
2754.46	528
2755.33	474
2756.2	494
2757.08	492
2757.95	524
2758.82	472
2759.69	470
2760.57	474
2761.44	496
2762.31	492
2763.18	466
2764.05	464
2764.92	464
2765.79	480
2766.67	482
2767.54	472
2768.41	472
2769.28	496
2770.15	454
2771.02	468
2771.89	452
2772.76	468
2773.63	490
2774.5	464
2775.37	462
2776.24	482
2777.11	442
2777.98	466
2778.85	454
2779.72	448
2780.59	462
2781.46	454
2782.32	458
2783.19	440
2784.06	436
2784.93	456
2785.8	442
2786.67	434
2787.53	464
2788.4	434
2789.27	428
2790.14	448
2791.01	422
2791.87	450
2792.74	436
2793.61	438
2794.47	418
2795.34	410
2796.21	428
2797.07	446
2797.94	434
2798.81	434
2799.67	392
2800.54	390
2801.41	436
2802.27	406
2803.14	430
2804	422
2804.87	396
2805.74	426
2806.6	402
2807.47	404
2808.33	436
2809.2	410
2810.06	402
2810.93	412
2811.79	378
2812.65	400
2813.52	398
2814.38	422
2815.25	404
2816.11	414
2816.98	394
2817.84	404
2818.7	412
2819.56	400
2820.43	380
2821.29	390
2822.16	366
2823.02	392
2823.88	382
2824.74	358
2825.61	386
2826.47	350
2827.33	392
2828.19	378
2829.05	382
2829.92	380
2830.78	378
2831.64	406
2832.5	366
2833.36	350
2834.23	396
2835.09	368
2835.95	348
2836.81	354
2837.67	366
2838.53	352
2839.39	356
2840.25	376
2841.11	346
2841.97	358
2842.83	354
2843.69	368
2844.55	356
2845.41	372
2846.27	346
2847.13	374
2847.99	358
2848.85	330
2849.71	342
2850.57	338
2851.43	336
2852.28	372
2853.14	342
2854	326
2854.86	332
2855.72	346
2856.58	328
2857.43	344
2858.29	332
2859.15	326
2860.01	316
2860.86	334
2861.72	326
2862.58	320
2863.44	326
2864.29	340
2865.15	322
2866.01	332
2866.86	328
2867.72	300
2868.58	304
2869.43	332
2870.29	306
2871.14	322
2872	310
2872.86	338
2873.71	324
2874.57	310
2875.42	316
2876.28	298
2877.13	312
2877.99	310
2878.84	302
2879.7	322
2880.55	318
2881.41	326
2882.26	300
2883.11	332
2883.97	320
2884.82	316
2885.68	304
2886.53	308
2887.39	284
2888.24	290
2889.09	282
2889.94	304
2890.8	294
2891.65	308
2892.5	296
2893.36	312
2894.21	292
2895.06	280
2895.91	276
2896.77	306
2897.62	294
2898.47	316
2899.32	302
2900.17	298
2901.03	296
2901.88	270
2902.73	280
2903.58	262
2904.43	284
2905.28	274
2906.13	276
2906.98	276
2907.84	296
2908.69	264
2909.54	278
2910.39	276
2911.24	284
2912.09	260
2912.94	278
2913.79	256
2914.64	254
2915.49	288
2916.34	278
2917.19	280
2918.03	266
2918.88	284
2919.73	274
2920.58	264
2921.43	256
2922.28	280
2923.13	272
2923.98	266
2924.82	268
2925.67	280
2926.52	272
2927.37	268
2928.22	278
2929.06	238
2929.91	270
2930.76	260
2931.61	252
2932.45	266
2933.3	258
2934.15	238
2934.99	266
2935.84	274
2936.69	252
2937.53	268
2938.38	246
2939.23	268
2940.07	238
2940.92	266
2941.76	256
2942.61	246
2943.46	238
2944.3	256
2945.15	248
2945.99	248
2946.84	246
2947.68	254
2948.53	256
2949.37	238
2950.22	244
2951.06	258
2951.9	244
2952.75	240
2953.59	242
2954.44	248
2955.28	232
2956.12	258
2956.97	236
2957.81	248
2958.65	224
2959.5	248
2960.34	232
2961.18	224
2962.03	230
2962.87	220
2963.71	230
2964.56	248
2965.4	232
2966.24	236
2967.08	240
2967.92	232
2968.77	242
2969.61	224
2970.45	212
2971.29	264
2972.13	232
2972.97	214
2973.82	220
2974.66	212
2975.5	226
2976.34	226
2977.18	244
2978.02	224
2978.86	216
2979.7	224
2980.54	220
2981.38	234
2982.22	224
2983.06	218
2983.9	222
2984.74	216
2985.58	228
2986.42	220
2987.26	220
2988.1	210
2988.94	220
2989.78	252
2990.61	218
2991.45	186
2992.29	210
2993.13	218
2993.97	216
2994.81	208
2995.64	204
2996.48	212
2997.32	212
2998.16	196
2999	210
2999.83	224
