#Acq. time (s)=	10
#Accumulations=	1
#Range (cm-¹)=	200...3000
#Windows=	3
#Autofocus=	Off
#AutoExposure=	Off
#Spike filter=	Off
#Delay time (s)=	0
#Binning=	1
#Readout mode=	Signal
#DeNoise=	Off
#ICS correction=	Off
#Dark correction=	Off
#Inst. Process=	Off
#Instrument=	LabRAM HR Evol
#Detector=	Syncerity OE
#Objective=	x100_VIS
#Grating=	600 (500nm)
#ND Filter=	0.1%
#Laser=	633nm_Edge
#Hole=	100.021
#Range=	Visible
#Project=	Omar
#Sample=	03-07-23
#Site=	papal
#Title=	leaf_100x
#Remark=	
#Date=	03.07.2023 17:25
#Acquired=	03.07.2023 17:25:35
201.713	84
202.98	88
204.247	88
205.513	102
206.778	98
208.045	98
209.311	102
210.576	102
211.84	80
213.106	90
214.371	92
215.636	92
216.899	98
218.164	104
219.428	92
220.692	106
221.955	92
223.219	104
224.482	110
225.744	102
227.007	100
228.27	96
229.531	102
230.794	92
232.055	96
233.317	116
234.579	104
235.839	102
237.1	110
238.362	94
239.621	102
240.882	120
242.141	114
243.402	104
244.661	118
245.921	116
247.179	120
248.439	102
249.698	116
250.956	112
252.215	110
253.473	102
254.731	118
255.988	104
257.246	116
258.503	116
259.761	112
261.017	110
262.273	114
263.53	122
264.786	110
266.042	120
267.298	124
268.554	124
269.809	128
271.063	112
272.319	130
273.573	134
274.828	118
276.082	140
277.336	112
278.591	112
279.844	124
281.097	136
282.351	132
283.603	136
284.855	128
286.109	126
287.361	144
288.613	138
289.866	126
291.117	138
292.368	140
293.62	130
294.871	142
296.121	144
297.372	134
298.623	148
299.873	140
301.123	124
302.372	130
303.622	148
304.872	142
306.121	142
307.37	138
308.618	152
309.866	134
311.116	130
312.364	156
313.611	150
314.859	146
316.106	160
317.353	148
318.6	150
319.848	146
321.095	146
322.341	160
323.587	162
324.833	170
326.079	136
327.324	164
328.569	138
329.814	160
331.059	154
332.304	172
333.548	160
334.792	150
336.037	158
337.28	162
338.524	154
339.767	172
341.011	156
342.254	196
343.497	172
344.739	172
345.982	170
347.224	180
348.466	186
349.708	170
350.95	182
352.191	180
353.432	174
354.673	160
355.914	194
357.155	188
358.394	194
359.634	184
360.874	182
362.114	190
363.354	194
364.593	184
365.832	206
367.07	192
368.309	192
369.548	188
370.786	196
372.024	208
373.261	192
374.499	188
375.736	178
376.974	208
378.211	190
379.447	212
380.684	222
381.92	208
383.157	188
384.392	196
385.628	200
386.864	212
388.098	220
389.333	214
390.569	214
391.802	200
393.037	204
394.272	210
395.505	200
396.739	208
397.973	214
399.206	200
400.44	226
401.673	210
402.905	242
404.138	224
405.37	232
406.602	230
407.835	232
409.066	242
410.298	236
411.528	234
412.76	242
413.99	246
415.221	244
416.451	246
417.682	250
418.911	246
420.142	260
421.371	244
422.601	226
423.83	250
425.059	246
426.288	248
427.517	246
428.745	246
429.974	258
431.201	256
432.43	264
433.657	272
434.883	242
436.111	236
437.338	280
438.565	260
439.791	268
441.017	260
442.244	260
443.469	276
444.695	258
445.921	276
447.146	292
448.37	250
449.596	282
450.821	278
452.045	274
453.27	286
454.493	294
455.717	274
456.94	288
458.165	286
459.387	302
460.61	276
461.833	282
463.056	282
464.278	280
465.5	294
466.722	298
467.945	278
469.166	306
470.387	300
471.608	290
472.829	292
474.049	310
475.271	288
476.491	288
477.711	318
478.931	306
480.15	306
481.37	316
482.589	292
483.808	308
485.027	290
486.247	338
487.465	316
488.683	318
489.901	316
491.119	324
492.337	322
493.554	326
494.771	314
495.988	324
497.205	318
498.422	328
499.638	316
500.854	348
502.07	334
503.286	316
504.502	344
505.717	358
506.933	354
508.148	350
509.363	326
510.577	370
511.792	334
513.005	364
514.219	328
515.433	358
516.647	372
517.86	346
519.073	360
520.287	368
521.5	356
522.711	382
523.924	340
525.136	370
526.348	366
527.56	368
528.772	388
529.982	390
531.194	384
532.405	362
533.616	354
534.825	398
536.036	384
537.246	392
538.457	406
539.665	390
540.875	388
542.085	378
543.294	386
544.502	400
545.712	390
546.92	388
548.128	418
549.336	374
550.545	396
551.751	416
552.959	408
554.167	412
555.373	428
556.581	400
557.788	438
558.994	398
560.2	402
561.406	412
562.612	392
563.817	420
565.023	446
566.229	460
567.433	438
568.639	426
569.843	420
571.048	434
572.251	424
573.456	432
574.659	460
575.863	432
577.066	476
578.27	444
579.472	454
580.676	466
581.878	420
583.081	444
584.283	448
585.484	448
586.687	462
587.888	480
589.09	468
590.291	484
591.493	478
592.693	500
593.893	500
595.094	500
596.294	498
597.494	470
598.694	504
599.894	502
601.093	516
602.293	506
603.491	532
604.69	510
605.889	526
607.087	472
608.285	504
609.483	546
610.682	512
611.879	526
613.076	506
614.273	504
615.471	526
616.667	542
617.864	524
619.06	558
620.256	536
621.453	536
622.648	584
623.844	572
625.039	572
626.234	552
627.429	584
628.625	572
629.819	570
631.013	546
632.208	598
633.401	572
634.595	616
635.789	580
636.982	600
638.175	578
639.369	596
640.562	612
641.755	608
642.947	602
644.139	610
645.331	622
646.523	654
647.715	596
648.906	606
650.097	630
651.288	654
652.479	654
653.67	638
654.86	662
656.051	634
657.241	650
658.429	670
659.619	652
660.808	674
661.998	666
663.187	650
664.376	678
665.565	722
666.753	688
667.942	694
669.13	660
670.317	700
671.505	684
672.692	702
673.88	720
675.067	676
676.254	720
677.44	688
678.627	744
679.813	722
681	722
682.184	732
683.37	706
684.556	718
685.742	744
686.926	744
688.111	740
689.296	742
690.481	782
691.664	764
692.849	764
694.033	764
695.216	776
696.4	794
697.584	798
698.766	774
699.949	792
701.133	792
702.314	802
703.497	794
704.678	790
705.861	868
707.043	826
708.224	838
709.406	858
710.586	812
711.768	858
712.949	824
714.129	828
715.31	868
716.489	856
717.67	864
718.849	864
720.029	904
721.208	844
722.388	920
723.566	898
724.746	912
725.924	890
727.103	894
728.28	890
729.458	900
730.636	902
731.814	934
732.992	952
734.168	936
735.345	906
736.523	962
737.699	952
738.876	942
740.052	964
741.227	970
742.404	952
743.579	994
744.754	986
745.931	964
747.105	1012
748.28	968
749.455	1008
750.629	1026
751.803	1028
752.977	972
754.152	1042
755.325	1054
756.499	1078
757.672	1038
758.846	1000
760.018	1050
761.191	1066
762.363	1046
763.535	1062
764.708	1110
765.88	1066
767.052	1112
768.223	1092
769.394	1092
770.565	1104
771.737	1096
772.908	1168
774.078	1124
775.249	1162
776.419	1140
777.589	1158
778.758	1170
779.928	1164
781.097	1200
782.266	1162
783.435	1192
784.604	1184
785.773	1184
786.941	1182
788.11	1178
789.278	1194
790.446	1226
791.613	1222
792.781	1224
793.948	1234
795.115	1216
796.282	1206
797.449	1250
798.616	1318
799.782	1302
800.948	1288
802.115	1280
803.28	1324
804.446	1312
805.612	1344
806.777	1298
807.941	1320
809.106	1332
810.271	1362
811.435	1362
812.6	1384
813.764	1374
814.927	1352
816.091	1376
817.254	1384
818.418	1382
819.581	1382
820.743	1442
821.906	1422
823.069	1392
824.232	1378
825.393	1444
826.555	1480
827.717	1498
828.879	1512
830.039	1514
831.201	1530
832.362	1588
833.522	1558
834.683	1564
835.844	1556
837.003	1564
838.164	1538
839.324	1584
840.483	1578
841.643	1578
842.801	1636
843.961	1640
845.12	1622
846.278	1628
847.437	1652
848.594	1656
849.753	1746
850.91	1650
852.069	1690
853.227	1692
854.383	1706
855.541	1762
856.697	1724
857.855	1762
859.011	1726
860.168	1734
861.323	1818
862.48	1794
863.635	1812
864.79	1772
865.946	1798
867.101	1846
868.257	1774
869.411	1812
870.567	1834
871.721	1896
872.874	1914
874.029	1862
875.183	1848
876.336	1838
877.49	1880
878.643	1886
879.796	1902
880.95	1946
882.102	1936
883.254	2022
884.407	1966
885.559	1968
886.711	1948
887.862	1984
889.015	2054
890.166	2028
891.317	1956
892.467	2016
893.619	2006
894.77	2076
895.92	2076
897.07	2024
898.221	2074
899.371	2038
900.52	2114
901.669	2058
902.819	2150
903.968	2128
905.116	2160
906.266	2148
907.415	2138
908.563	2172
909.711	2156
910.859	2222
912.007	2158
913.154	2182
914.301	2286
915.449	2208
916.596	2220
917.742	2234
918.889	2228
920.036	2294
921.183	2302
922.329	2356
923.475	2244
924.621	2388
925.765	2306
926.911	2318
928.056	2298
929.201	2370
930.346	2356
931.49	2394
932.635	2410
933.779	2426
934.924	2440
936.068	2466
937.211	2494
938.355	2506
939.498	2490
940.64	2524
941.784	2510
942.926	2556
944.069	2592
945.212	2556
946.354	2556
947.495	2638
948.637	2622
949.779	2618
950.921	2628
952.062	2622
953.202	2672
954.344	2690
955.484	2706
956.625	2688
957.765	2694
958.905	2770
960.045	2766
961.184	2698
962.324	2746
963.464	2762
964.604	2772
965.742	2786
966.881	2852
968.02	2876
969.158	2906
970.296	2924
971.434	2830
972.572	2916
973.71	2928
974.847	2982
975.985	2974
977.121	2966
978.259	2964
979.396	2950
980.532	2950
981.669	3048
982.804	2972
983.941	3020
985.076	3120
986.212	3062
987.347	3080
988.483	3092
989.617	3048
990.753	3068
991.887	3168
993.022	3120
994.156	3148
995.29	3204
996.424	3204
997.558	3234
998.692	3194
999.825	3198
1000.96	3206
1002.09	3236
1003.22	3280
1004.36	3292
1005.49	3340
1006.62	3454
1007.75	3348
1008.89	3376
1010.02	3396
1011.15	3408
1012.28	3418
1013.41	3458
1014.54	3410
1015.67	3540
1016.8	3514
1017.93	3592
1019.07	3460
1020.19	3538
1021.32	3526
1022.45	3646
1023.58	3548
1024.71	3530
1025.84	3656
1026.97	3626
1028.1	3662
1029.23	3716
1030.36	3688
1031.49	3668
1032.61	3728
1033.74	3726
1034.87	3742
1036	3804
1037.12	3860
1038.25	3908
1039.38	3866
1040.5	3928
1041.63	3904
1042.76	3914
1043.88	3914
1045.01	3930
1046.14	4006
1047.26	4032
1048.39	4030
1049.51	4020
1050.64	4056
1051.76	4050
1052.89	4128
1054.01	4182
1055.14	4128
1056.26	4176
1057.38	4106
1058.51	4200
1059.63	4180
1060.75	4282
1061.88	4287
1063	4292
1064.12	4244
1065.25	4374
1066.37	4400
1067.49	4378
1068.61	4372
1069.73	4340
1070.86	4332
1071.98	4368
1073.1	4412
1074.22	4418
1075.34	4444
1076.46	4456
1077.58	4370
1078.7	4426
1079.82	4512
1080.94	4492
1082.06	4490
1083.18	4434
1084.3	4546
1085.42	4542
1086.54	4606
1087.66	4568
1088.78	4618
1089.9	4672
1091.02	4636
1092.14	4626
1093.25	4630
1094.37	4680
1095.49	4730
1096.61	4706
1097.72	4668
1098.84	4764
1099.96	4754
1101.08	4860
1102.19	4838
1103.31	4802
1104.43	4796
1105.54	4910
1106.66	4772
1107.77	4852
1108.89	4838
1110	4884
1111.12	4918
1112.23	4982
1113.35	4970
1114.46	4998
1115.58	4940
1116.69	4950
1117.81	4964
1118.92	5056
1120.03	5004
1121.15	5044
1122.26	5002
1123.37	5092
1124.49	5074
1125.6	5082
1126.71	5118
1127.83	5208
1128.94	5100
1130.05	5172
1131.16	5136
1132.27	5230
1133.39	5218
1134.5	5308
1135.61	5236
1136.72	5300
1137.83	5346
1138.94	5264
1140.05	5316
1141.16	5368
1142.27	5350
1143.38	5426
1144.49	5422
1145.6	5486
1146.71	5498
1147.82	5496
1148.93	5466
1150.04	5414
1151.15	5520
1152.26	5444
1153.36	5586
1154.47	5570
1155.58	5546
1156.69	5620
1157.8	5594
1158.9	5566
1160.01	5610
1161.12	5644
1162.22	5700
1163.33	5572
1164.44	5616
1165.54	5762
1166.65	5628
1167.76	5678
1168.86	5602
1169.97	5704
1171.07	5666
1172.18	5706
1173.28	5722
1174.39	5762
1175.49	5706
1176.6	5746
1177.7	5780
1178.81	5738
1179.91	5684
1181.02	5812
1182.12	5826
1183.22	5722
1184.33	5796
1185.43	5710
1186.53	5822
1187.63	5816
1188.74	5772
1189.84	5806
1190.94	5776
1192.04	5726
1193.15	5748
1194.25	5804
1195.35	5820
1196.45	5750
1197.55	5774
1198.65	5732
1199.75	5794
1200.85	5772
1201.95	5866
1203.05	5780
1204.16	5658
1205.25	5676
1206.35	5762
1207.45	5704
1208.55	5744
1209.65	5722
1210.75	5776
1211.85	5654
1212.95	5852
1214.05	5812
1215.15	5678
1216.24	5620
1217.34	5688
1218.44	5658
1219.54	5692
1220.64	5608
1221.73	5614
1222.83	5612
1223.93	5706
1225.02	5624
1226.12	5518
1227.22	5626
1228.31	5670
1229.41	5642
1230.5	5592
1231.6	5644
1232.7	5576
1233.79	5662
1234.89	5612
1235.98	5544
1237.08	5558
1238.17	5658
1239.26	5530
1240.36	5546
1241.45	5522
1242.55	5532
1243.64	5530
1244.73	5538
1245.83	5460
1246.92	5486
1248.01	5506
1249.11	5400
1250.2	5640
1251.29	5492
1252.38	5522
1253.48	5590
1254.57	5510
1255.66	5492
1256.75	5468
1257.84	5450
1258.93	5466
1260.03	5426
1261.12	5364
1262.21	5392
1263.3	5380
1264.39	5400
1265.48	5428
1266.57	5310
1267.66	5362
1268.75	5396
1269.84	5278
1270.93	5328
1272.02	5332
1273.11	5138
1274.19	5278
1275.28	5344
1276.37	5204
1277.46	5274
1278.55	5198
1279.64	5192
1280.72	5210
1281.81	5168
1282.9	5066
1283.98	5130.42
1285.07	5159.77
1286.16	5148.46
1287.25	5148.84
1288.33	5121.08
1289.42	5151.51
1290.5	5098.78
1291.59	4953.47
1292.68	4929.17
1293.76	5006.44
1294.85	4981.55
1295.93	5017.7
1297.02	4990.9
1298.1	4757.63
1299.19	4952.6
1300.27	4870.54
1301.36	4923.94
1302.44	4881.07
1303.53	4763.24
1304.61	4847.2
1305.69	4737.82
1306.78	4711.55
1307.86	4752.23
1308.94	4687.72
1310.03	4692.6
1311.11	4733.94
1312.19	4578.62
1313.27	4658.51
1314.36	4604.49
1315.44	4622.65
1316.52	4585.44
1317.6	4578.45
1318.68	4628.76
1319.77	4487.79
1320.85	4486.32
1321.93	4493.12
1323.01	4423.17
1324.09	4482.99
1325.17	4465.67
1326.25	4379.88
1327.33	4427.7
1328.41	4365.72
1329.49	4337.96
1330.57	4298.08
1331.65	4324.71
1332.73	4287.13
1333.81	4297.18
1334.89	4251.46
1335.97	4230.69
1337.04	4230.16
1338.12	4219.29
1339.2	4167.09
1340.28	4136.65
1341.36	4140.04
1342.44	4128.13
1343.51	4128.25
1344.59	4114.44
1345.67	4070.7
1346.75	4047.08
1347.82	4020.42
1348.9	3967.81
1349.98	3973.04
1351.05	4037.77
1352.13	3959.25
1353.2	3971.82
1354.28	3909.51
1355.36	3941.24
1356.43	3933.57
1357.51	3871.6
1358.58	3876.3
1359.66	3845.12
1360.73	3805.18
1361.81	3834.29
1362.88	3748.24
1363.96	3804.32
1365.03	3753.01
1366.1	3792.27
1367.18	3743.58
1368.25	3683.31
1369.33	3693.2
1370.4	3671.64
1371.47	3658.86
1372.54	3658.83
1373.62	3645.74
1374.69	3678.61
1375.76	3667.81
1376.83	3591.56
1377.91	3616.85
1378.98	3516.81
1380.05	3526.98
1381.12	3569.87
1382.19	3566.06
1383.26	3478.35
1384.34	3481.79
1385.41	3447.78
1386.48	3505.97
1387.55	3466.54
1388.62	3435.49
1389.69	3430.71
1390.76	3408.71
1391.83	3385.74
1392.9	3346.26
1393.02	3340
1394.1	3316
1395.17	3420
1396.25	3316
1397.32	3314
1398.4	3358
1399.47	3306
1400.55	3310
1401.62	3278
1402.69	3246
1403.77	3276
1404.84	3282
1405.91	3172
1406.99	3318
1408.06	3212
1409.13	3178
1410.2	3208
1411.27	3190
1412.35	3140
1413.42	3194
1414.49	3168
1415.56	3092
1416.63	3128
1417.7	3202
1418.78	3134
1419.85	3122
1420.92	3096
1421.99	3024
1423.06	3048
1424.13	3068
1425.2	3040
1426.27	3012
1427.34	3076
1428.41	3008
1429.48	3036
1430.55	3062
1431.61	2986
1432.68	3026
1433.75	2934
1434.82	2988
1435.89	2948
1436.96	2978
1438.02	2930
1439.09	2952
1440.16	2922
1441.23	2894
1442.3	2924
1443.36	2888
1444.43	2930
1445.5	2872
1446.56	2848
1447.63	2882
1448.7	2844
1449.76	2864
1450.83	2816
1451.89	2758
1452.96	2882
1454.02	2850
1455.09	2726
1456.15	2800
1457.22	2852
1458.28	2792
1459.35	2756
1460.41	2778
1461.48	2828
1462.54	2760
1463.61	2796
1464.67	2734
1465.73	2782
1466.8	2694
1467.86	2758
1468.92	2694
1469.98	2748
1471.05	2718
1472.11	2710
1473.17	2692
1474.24	2668
1475.3	2668
1476.36	2694
1477.42	2698
1478.48	2620
1479.54	2658
1480.6	2648
1481.67	2656
1482.73	2618
1483.79	2640
1484.85	2686
1485.91	2600
1486.97	2642
1488.03	2632
1489.09	2550
1490.15	2598
1491.21	2540
1492.27	2594
1493.33	2594
1494.38	2548
1495.44	2558
1496.5	2514
1497.56	2540
1498.62	2518
1499.68	2506
1500.74	2556
1501.79	2512
1502.85	2462
1503.91	2570
1504.97	2536
1506.02	2544
1507.08	2520
1508.14	2442
1509.2	2466
1510.25	2482
1511.31	2472
1512.36	2454
1513.42	2492
1514.48	2426
1515.53	2464
1516.59	2434
1517.64	2392
1518.7	2472
1519.75	2402
1520.81	2424
1521.86	2436
1522.92	2402
1523.97	2364
1525.02	2402
1526.08	2364
1527.13	2358
1528.19	2342
1529.24	2398
1530.29	2326
1531.35	2348
1532.4	2306
1533.45	2334
1534.51	2342
1535.56	2356
1536.61	2262
1537.66	2280
1538.72	2310
1539.77	2252
1540.82	2288
1541.87	2214
1542.92	2264
1543.97	2192
1545.02	2324
1546.08	2194
1547.13	2246
1548.18	2196
1549.23	2214
1550.28	2212
1551.33	2282
1552.38	2234
1553.43	2270
1554.48	2200
1555.53	2230
1556.57	2158
1557.62	2252
1558.67	2162
1559.72	2154
1560.77	2190
1561.82	2176
1562.87	2108
1563.92	2146
1564.96	2160
1566.01	2138
1567.06	2206
1568.11	2146
1569.15	2166
1570.2	2150
1571.25	2134
1572.29	2120
1573.34	2112
1574.39	2108
1575.43	2112
1576.48	2154
1577.53	2158
1578.57	2122
1579.62	2112
1580.66	2136
1581.71	2094
1582.75	2054
1583.8	2046
1584.84	2080
1585.89	2066
1586.93	2152
1587.98	2128
1589.02	2118
1590.06	2080
1591.11	1990
1592.15	2020
1593.2	2094
1594.24	2066
1595.28	2080
1596.33	2048
1597.37	2052
1598.41	2096
1599.45	2034
1600.5	2048
1601.54	2076
1602.58	2084
1603.62	2064
1604.66	2058
1605.7	2044
1606.75	1990
1607.79	1996
1608.83	1990
1609.87	2028
1610.91	2046
1611.95	1980
1612.99	2056
1614.03	2030
1615.07	2038
1616.11	2016
1617.15	2048
1618.19	2000
1619.23	1980
1620.27	2040
1621.31	2020
1622.35	1978
1623.39	1982
1624.43	1964
1625.46	1960
1626.5	2004
1627.54	1998
1628.58	2020
1629.62	2048
1630.65	1992
1631.69	2034
1632.73	1932
1633.77	1970
1634.8	2002
1635.84	1988
1636.88	1976
1637.91	1942
1638.95	1908
1639.99	1948
1641.02	2006
1642.06	1940
1643.09	1916
1644.13	2010
1645.16	1902
1646.2	1982
1647.23	1936
1648.27	1900
1649.3	1896
1650.34	1860
1651.37	1970
1652.41	1936
1653.44	1906
1654.47	1966
1655.51	1914
1656.54	1876
1657.57	1904
1658.61	1856
1659.64	1890
1660.67	1876
1661.71	1924
1662.74	1846
1663.77	1898
1664.81	1900
1665.84	1890
1666.87	1880
1667.9	1874
1668.93	1890
1669.96	1870
1671	1886
1672.03	1800
1673.06	1828
1674.09	1836
1675.12	1848
1676.15	1906
1677.18	1826
1678.21	1834
1679.24	1824
1680.27	1854
1681.3	1860
1682.33	1868
1683.36	1804
1684.39	1868
1685.42	1844
1686.45	1762
1687.47	1808
1688.5	1774
1689.53	1838
1690.56	1796
1691.59	1790
1692.62	1830
1693.64	1848
1694.67	1814
1695.7	1790
1696.73	1820
1697.75	1782
1698.78	1818
1699.81	1856
1700.83	1810
1701.86	1814
1702.89	1794
1703.91	1768
1704.94	1784
1705.97	1824
1706.99	1740
1708.02	1778
1709.04	1754
1710.07	1770
1711.09	1800
1712.12	1764
1713.14	1762
1714.17	1796
1715.19	1766
1716.22	1778
1717.24	1766
1718.26	1758
1719.29	1770
1720.31	1736
1721.33	1748
1722.36	1724
1723.38	1752
1724.4	1744
1725.43	1744
1726.45	1750
1727.47	1810
1728.49	1760
1729.52	1760
1730.54	1764
1731.56	1764
1732.58	1710
1733.6	1778
1734.63	1762
1735.65	1760
1736.67	1700
1737.69	1696
1738.71	1720
1739.73	1736
1740.75	1772
1741.77	1760
1742.79	1764
1743.81	1708
1744.83	1730
1745.85	1648
1746.87	1706
1747.89	1784
1748.91	1734
1749.93	1770
1750.95	1764
1751.97	1724
1752.98	1714
1754	1742
1755.02	1756
1756.04	1714
1757.06	1724
1758.07	1762
1759.09	1704
1760.11	1694
1761.13	1758
1762.14	1760
1763.16	1674
1764.18	1708
1765.19	1762
1766.21	1722
1767.23	1702
1768.24	1696
1769.26	1678
1770.28	1704
1771.29	1738
1772.31	1694
1773.32	1730
1774.34	1734
1775.35	1742
1776.37	1714
1777.38	1716
1778.4	1726
1779.41	1688
1780.43	1734
1781.44	1700
1782.45	1710
1783.47	1678
1784.48	1728
1785.49	1660
1786.51	1724
1787.52	1716
1788.53	1674
1789.55	1700
1790.56	1696
1791.57	1666
1792.58	1708
1793.6	1704
1794.61	1682
1795.62	1728
1796.63	1686
1797.64	1766
1798.66	1708
1799.67	1720
1800.68	1684
1801.69	1718
1802.7	1738
1803.71	1650
1804.72	1752
1805.73	1708
1806.74	1680
1807.75	1654
1808.76	1746
1809.77	1710
1810.78	1724
1811.79	1628
1812.8	1680
1813.81	1694
1814.82	1682
1815.83	1636
1816.84	1688
1817.84	1604
1818.85	1688
1819.86	1654
1820.87	1678
1821.88	1686
1822.88	1706
1823.89	1688
1824.9	1674
1825.91	1684
1826.91	1680
1827.92	1668
1828.93	1656
1829.93	1672
1830.94	1688
1831.95	1624
1832.95	1634
1833.96	1634
1834.97	1680
1835.97	1628
1836.98	1676
1837.98	1686
1838.99	1654
1839.99	1662
1841	1636
1842	1670
1843.01	1668
1844.01	1650
1845.02	1678
1846.02	1646
1847.02	1596
1848.03	1640
1849.03	1650
1850.03	1640
1851.04	1654
1852.04	1670
1853.04	1622
1854.05	1658
1855.05	1650
1856.05	1670
1857.05	1638
1858.06	1668
1859.06	1620
1860.06	1618
1861.06	1648
1862.06	1652
1863.07	1620
1864.07	1668
1865.07	1648
1866.07	1634
1867.07	1622
1868.07	1622
1869.07	1608
1870.07	1630
1871.07	1612
1872.07	1624
1873.07	1616
1874.07	1666
1875.07	1620
1876.07	1644
1877.07	1614
1878.07	1654
1879.07	1632
1880.07	1652
1881.07	1642
1882.07	1656
1883.06	1602
1884.06	1660
1885.06	1616
1886.06	1608
1887.06	1644
1888.05	1624
1889.05	1622
1890.05	1628
1891.05	1620
1892.04	1646
1893.04	1622
1894.04	1626
1895.03	1616
1896.03	1658
1897.03	1602
1898.02	1660
1899.02	1622
1900.01	1586
1901.01	1612
1902	1596
1903	1626
1903.99	1620
1904.99	1656
1905.98	1648
1906.98	1658
1907.97	1594
1908.97	1604
1909.96	1620
1910.96	1652
1911.95	1680
1912.94	1606
1913.94	1648
1914.93	1616
1915.93	1640
1916.92	1638
1917.91	1612
1918.9	1566
1919.9	1628
1920.89	1672
1921.88	1678
1922.87	1602
1923.87	1606
1924.86	1622
1925.85	1640
1926.84	1660
1927.83	1624
1928.82	1534
1929.82	1626
1930.81	1576
1931.8	1584
1932.79	1638
1933.78	1602
1934.77	1580
1935.76	1574
1936.75	1660
1937.74	1664
1938.73	1578
1939.72	1628
1940.71	1622
1941.7	1576
1942.69	1610
1943.68	1558
1944.67	1664
1945.65	1592
1946.64	1550
1947.63	1632
1948.62	1612
1949.61	1572
1950.6	1644
1951.58	1602
1952.57	1622
1953.56	1580
1954.55	1594
1955.53	1574
1956.52	1574
1957.51	1616
1958.5	1558
1959.48	1574
1960.47	1616
1961.45	1604
1962.44	1622
1963.43	1584
1964.41	1560
1965.4	1608
1966.38	1586
1967.37	1594
1968.35	1578
1969.34	1568
1970.32	1620
1971.31	1554
1972.29	1536
1973.28	1554
1974.26	1594
1975.25	1560
1976.23	1540
1977.22	1558
1978.2	1584
1979.18	1604
1980.17	1556
1981.15	1584
1982.13	1544
1983.12	1604
1984.1	1566
1985.08	1562
1986.06	1542
1987.05	1590
1988.03	1582
1989.01	1586
1989.99	1596
1990.97	1582
1991.96	1596
1992.94	1606
1993.92	1540
1994.9	1598
1995.88	1604
1996.86	1566
1997.84	1572
1998.82	1554
1999.8	1556
2000.78	1576
2001.76	1534
2002.74	1546
2003.72	1612
2004.7	1556
2005.68	1524
2006.66	1576
2007.64	1570
2008.62	1562
2009.6	1584
2010.58	1522
2011.56	1632
2012.54	1498
2013.51	1594
2014.49	1578
2015.47	1582
2016.45	1524
2017.43	1560
2018.4	1538
2019.38	1494
2020.36	1618
2021.34	1534
2022.31	1580
2023.29	1530
2024.27	1518
2025.24	1564
2026.22	1524
2027.2	1544
2028.17	1538
2029.15	1532
2030.12	1556
2031.1	1468
2032.07	1560
2033.05	1522
2034.03	1526
2035	1528
2035.98	1604
2036.95	1556
2037.93	1454
2038.9	1544
2039.87	1510
2040.85	1476
2041.82	1544
2042.8	1500
2043.77	1494
2044.74	1546
2045.72	1544
2046.69	1508
2047.66	1534
2048.64	1506
2049.61	1524
2050.58	1444
2051.55	1494
2052.53	1518
2053.5	1520
2054.47	1520
2055.44	1550
2056.41	1554
2057.39	1520
2058.36	1548
2059.33	1528
2060.3	1502
2061.27	1504
2062.24	1528
2063.21	1528
2064.18	1492
2065.15	1482
2066.12	1508
2067.09	1536
2068.06	1522
2069.03	1490
2070	1560
2070.97	1458
2071.94	1572
2072.91	1526
2073.88	1498
2074.85	1448
2075.82	1500
2076.79	1464
2077.76	1484
2078.73	1534
2079.69	1532
2080.66	1512
2081.63	1498
2082.6	1516
2083.56	1530
2084.53	1516
2085.5	1486
2086.47	1490
2087.43	1520
2088.4	1508
2089.37	1490
2090.33	1528
2091.3	1460
2092.27	1484
2093.23	1480
2094.2	1490
2095.17	1468
2096.13	1530
2097.1	1486
2098.06	1460
2099.03	1572
2099.99	1526
2100.96	1508
2101.92	1500
2102.89	1474
2103.85	1506
2104.82	1490
2105.78	1454
2106.74	1474
2107.71	1488
2108.67	1440
2109.64	1458
2110.6	1430
2111.56	1452
2112.53	1470
2113.49	1490
2114.45	1456
2115.41	1446
2116.38	1486
2117.34	1464
2118.3	1492
2119.26	1488
2120.23	1470
2121.19	1508
2122.15	1468
2123.11	1500
2124.07	1470
2125.03	1456
2126	1436
2126.96	1462
2127.92	1432
2128.88	1464
2129.84	1456
2130.8	1448
2131.76	1486
2132.72	1476
2133.68	1496
2134.64	1498
2135.6	1464
2136.56	1454
2137.52	1462
2138.48	1490
2139.44	1444
2140.4	1488
2141.35	1480
2142.31	1458
2143.27	1440
2144.23	1452
2145.19	1480
2146.15	1460
2147.1	1510
2148.06	1448
2149.02	1440
2149.98	1460
2150.94	1430
2151.89	1468
2152.85	1464
2153.81	1408
2154.76	1446
2155.72	1454
2156.68	1406
2157.63	1434
2158.59	1408
2159.55	1462
2160.5	1470
2161.46	1462
2162.41	1472
2163.37	1406
2164.32	1466
2165.28	1462
2166.23	1454
2167.19	1478
2168.14	1390
2169.1	1388
2170.05	1458
2171.01	1406
2171.96	1426
2172.91	1454
2173.87	1436
2174.82	1408
2175.78	1456
2176.73	1434
2177.68	1384
2178.64	1390
2179.59	1422
2180.54	1402
2181.49	1384
2182.45	1438
2183.4	1408
2184.35	1432
2185.3	1392
2186.26	1432
2187.21	1436
2188.16	1384
2189.11	1368
2190.06	1404
2191.01	1352
2191.96	1408
2192.92	1354
2193.87	1422
2194.82	1376
2195.77	1354
2196.72	1374
2197.67	1406
2198.62	1406
2199.57	1438
2200.52	1392
2201.47	1402
2202.42	1404
2203.37	1416
2204.32	1372
2205.27	1352
2206.22	1392
2207.16	1378
2208.11	1408
2209.06	1386
2210.01	1398
2210.96	1348
2211.91	1358
2212.85	1392
2213.8	1364
2214.75	1408
2215.7	1372
2216.64	1350
2217.59	1348
2218.54	1426
2219.49	1374
2220.43	1412
2221.38	1352
2222.33	1360
2223.27	1347.72
2224.22	1390.29
2225.16	1419.26
2226.11	1405.04
2227.06	1304.17
2228	1388.99
2228.95	1386.12
2229.89	1338.46
2230.84	1351.75
2231.78	1357.6
2232.73	1358.1
2233.67	1350.78
2234.62	1347.25
2235.56	1358.89
2236.51	1360.75
2237.45	1342.13
2238.4	1337.58
2239.34	1407.28
2240.28	1377.29
2241.23	1336.87
2242.17	1352.23
2243.11	1340.71
2244.06	1357.27
2245	1311.04
2245.94	1317.62
2246.89	1348.1
2247.83	1326.97
2248.77	1339.01
2249.71	1341.3
2250.66	1306.65
2251.6	1328.53
2252.54	1317.67
2253.48	1317.74
2254.42	1336.89
2255.37	1351.31
2256.31	1313.83
2257.25	1331.54
2258.19	1323.61
2259.13	1333.1
2260.07	1323.81
2261.01	1282.84
2261.95	1300.92
2262.89	1300.84
2263.83	1329.26
2264.77	1296.49
2265.71	1294.23
2266.65	1320.65
2267.59	1308.1
2268.53	1308.97
2269.47	1295.23
2270.41	1312.28
2271.35	1309.18
2272.29	1304.13
2273.23	1310.77
2274.17	1315.53
2275.1	1307.84
2276.04	1309.9
2276.98	1292.53
2277.92	1301.54
2278.86	1290.25
2279.8	1281.73
2280.73	1279.89
2281.67	1286.7
2282.61	1278
2283.55	1280.59
2284.48	1255.5
2285.42	1269.53
2286.36	1267.64
2287.29	1308.45
2288.23	1299.98
2289.17	1271.47
2290.1	1249.09
2291.04	1267.05
2291.98	1224.38
2292.91	1245.96
2293.85	1242.68
2294.78	1255.27
2295.72	1245.14
2296.65	1242.73
2297.59	1233.63
2298.52	1254.9
2299.46	1255.66
2300.39	1263.9
2301.33	1246.87
2302.26	1243.9
2303.2	1282.87
2304.13	1252.29
2305.06	1245.85
2306	1251.77
2306.93	1225.1
2307.87	1225.38
2308.8	1216.06
2309.73	1221.41
2310.67	1234.49
2311.6	1210.17
2312.53	1217.48
2313.46	1227.86
2314.4	1244.4
2315.33	1223.3
2316.26	1203.13
2316.69	1210
2317.62	1166
2318.56	1208
2319.5	1208
2320.43	1190
2321.37	1198
2322.31	1200
2323.24	1240
2324.18	1192
2325.12	1178
2326.05	1246
2326.99	1182
2327.92	1226
2328.86	1164
2329.79	1172
2330.73	1194
2331.66	1210
2332.6	1182
2333.53	1188
2334.47	1176
2335.4	1180
2336.34	1182
2337.27	1174
2338.2	1222
2339.14	1196
2340.07	1172
2341.01	1210
2341.94	1176
2342.87	1162
2343.81	1192
2344.74	1208
2345.67	1180
2346.6	1164
2347.54	1196
2348.47	1186
2349.4	1170
2350.33	1148
2351.27	1174
2352.2	1156
2353.13	1196
2354.06	1162
2354.99	1164
2355.93	1174
2356.86	1168
2357.79	1150
2358.72	1148
2359.65	1168
2360.58	1176
2361.51	1162
2362.44	1132
2363.37	1150
2364.3	1124
2365.23	1162
2366.16	1102
2367.09	1102
2368.02	1116
2368.95	1160
2369.88	1148
2370.81	1160
2371.74	1110
2372.67	1112
2373.6	1144
2374.52	1130
2375.45	1118
2376.38	1124
2377.31	1094
2378.24	1098
2379.17	1134
2380.09	1088
2381.02	1120
2381.95	1114
2382.88	1086
2383.8	1096
2384.73	1112
2385.66	1132
2386.58	1122
2387.51	1100
2388.44	1068
2389.36	1060
2390.29	1094
2391.22	1076
2392.14	1070
2393.07	1060
2393.99	1058
2394.92	1096
2395.85	1066
2396.77	1084
2397.7	1094
2398.62	1092
2399.55	1078
2400.47	1004
2401.4	1084
2402.32	1006
2403.25	1082
2404.17	1068
2405.09	1030
2406.02	1078
2406.94	1064
2407.86	1052
2408.79	1074
2409.71	1052
2410.63	1056
2411.56	1088
2412.48	1046
2413.4	1026
2414.33	1046
2415.25	1054
2416.17	1062
2417.09	1014
2418.02	1042
2418.94	1024
2419.86	1028
2420.78	1018
2421.7	1014
2422.63	1000
2423.55	1012
2424.47	1012
2425.39	1004
2426.31	1022
2427.23	1006
2428.15	1020
2429.07	1028
2429.99	1010
2430.91	976
2431.83	990
2432.75	1002
2433.67	972
2434.59	968
2435.51	1016
2436.43	998
2437.35	1000
2438.27	982
2439.19	982
2440.11	980
2441.03	984
2441.95	982
2442.86	958
2443.78	1008
2444.7	984
2445.62	946
2446.54	1002
2447.46	946
2448.37	956
2449.29	968
2450.21	958
2451.13	926
2452.04	914
2452.96	956
2453.88	958
2454.79	942
2455.71	930
2456.63	960
2457.54	930
2458.46	926
2459.38	908
2460.29	950
2461.21	924
2462.12	906
2463.04	926
2463.95	890
2464.87	944
2465.78	958
2466.7	902
2467.61	910
2468.53	920
2469.44	928
2470.36	880
2471.27	940
2472.19	918
2473.1	910
2474.01	920
2474.93	914
2475.84	894
2476.76	910
2477.67	906
2478.58	858
2479.5	858
2480.41	902
2481.32	892
2482.23	884
2483.15	860
2484.06	890
2484.97	892
2485.88	904
2486.8	872
2487.71	858
2488.62	854
2489.53	858
2490.44	896
2491.35	856
2492.26	882
2493.18	854
2494.09	876
2495	872
2495.91	884
2496.82	858
2497.73	818
2498.64	882
2499.55	852
2500.46	856
2501.37	820
2502.28	846
2503.19	802
2504.1	824
2505.01	836
2505.92	808
2506.83	802
2507.74	820
2508.65	810
2509.55	824
2510.46	806
2511.37	848
2512.28	792
2513.19	802
2514.09	816
2515	796
2515.91	778
2516.82	790
2517.73	844
2518.63	826
2519.54	820
2520.45	756
2521.35	816
2522.26	780
2523.17	776
2524.07	808
2524.98	764
2525.89	716
2526.79	776
2527.7	762
2528.6	774
2529.51	786
2530.42	810
2531.32	778
2532.23	728
2533.13	770
2534.04	746
2534.94	770
2535.85	752
2536.75	742
2537.66	724
2538.56	774
2539.47	762
2540.37	784
2541.27	792
2542.18	744
2543.08	716
2543.98	736
2544.89	752
2545.79	744
2546.7	742
2547.6	732
2548.5	772
2549.4	740
2550.31	756
2551.21	758
2552.11	700
2553.01	714
2553.92	738
2554.82	752
2555.72	742
2556.62	716
2557.52	730
2558.42	706
2559.33	722
2560.23	712
2561.13	710
2562.03	718
2562.93	722
2563.83	750
2564.73	704
2565.63	714
2566.53	674
2567.43	696
2568.33	714
2569.23	690
2570.13	690
2571.03	700
2571.93	710
2572.83	712
2573.73	706
2574.63	698
2575.53	672
2576.43	682
2577.33	708
2578.22	694
2579.12	666
2580.02	662
2580.92	676
2581.82	704
2582.72	638
2583.61	680
2584.51	688
2585.41	658
2586.31	658
2587.2	684
2588.1	666
2589	664
2589.89	662
2590.79	666
2591.69	636
2592.58	656
2593.48	640
2594.38	650
2595.27	636
2596.17	670
2597.06	650
2597.96	654
2598.86	652
2599.75	616
2600.65	632
2601.54	636
2602.44	610
2603.33	622
2604.23	648
2605.12	614
2606.02	624
2606.91	624
2607.81	622
2608.7	614
2609.59	622
2610.49	652
2611.38	618
2612.27	628
2613.17	630
2614.06	624
2614.95	640
2615.85	624
2616.74	616
2617.63	608
2618.53	592
2619.42	622
2620.31	608
2621.2	590
2622.1	560
2622.99	594
2623.88	592
2624.77	596
2625.66	618
2626.55	568
2627.45	614
2628.34	630
2629.23	580
2630.12	616
2631.01	576
2631.9	608
2632.79	570
2633.68	578
2634.57	582
2635.46	604
2636.35	560
2637.24	590
2638.13	594
2639.02	588
2639.91	574
2640.8	594
2641.69	554
2642.58	566
2643.47	592
2644.36	558
2645.25	592
2646.14	588
2647.02	552
2647.91	580
2648.8	566
2649.69	580
2650.58	554
2651.46	554
2652.35	532
2653.24	568
2654.13	542
2655.01	546
2655.9	530
2656.79	528
2657.68	566
2658.56	540
2659.45	550
2660.34	534
2661.22	542
2662.11	538
2662.99	554
2663.88	566
2664.77	556
2665.65	554
2666.54	522
2667.42	534
2668.31	562
2669.2	544
2670.08	526
2670.96	534
2671.85	526
2672.73	526
2673.62	514
2674.5	502
2675.39	478
2676.27	506
2677.16	512
2678.04	516
2678.93	500
2679.81	498
2680.69	512
2681.58	506
2682.46	518
2683.34	494
2684.23	506
2685.11	526
2685.99	514
2686.87	500
2687.76	474
2688.64	498
2689.52	506
2690.4	484
2691.28	502
2692.17	478
2693.05	510
2693.93	458
2694.81	488
2695.69	496
2696.57	488
2697.46	504
2698.34	514
2699.22	478
2700.1	506
2700.98	450
2701.86	462
2702.74	496
2703.62	468
2704.5	490
2705.38	476
2706.26	482
2707.14	476
2708.02	476
2708.9	490
2709.78	470
2710.66	466
2711.54	484
2712.42	462
2713.3	450
2714.17	442
2715.05	434
2715.93	486
2716.81	474
2717.69	464
2718.57	434
2719.44	446
2720.32	440
2721.2	442
2722.08	458
2722.95	448
2723.83	448
2724.71	444
2725.59	452
2726.46	434
2727.34	408
2728.22	430
2729.09	446
2729.97	416
2730.85	444
2731.72	412
2732.6	416
2733.47	420
2734.35	420
2735.23	420
2736.1	438
2736.98	438
2737.85	402
2738.73	428
2739.6	412
2740.48	444
2741.35	414
2742.23	398
2743.1	424
2743.98	412
2744.85	408
2745.72	398
2746.6	426
2747.47	424
2748.35	422
2749.22	408
2750.09	406
2750.97	418
2751.84	396
2752.71	406
2753.59	410
2754.46	420
2755.33	404
2756.2	402
2757.08	382
2757.95	410
2758.82	388
2759.69	370
2760.57	400
2761.44	376
2762.31	372
2763.18	366
2764.05	372
2764.92	384
2765.79	386
2766.67	372
2767.54	386
2768.41	384
2769.28	344
2770.15	364
2771.02	374
2771.89	392
2772.76	364
2773.63	364
2774.5	370
2775.37	380
2776.24	370
2777.11	358
2777.98	362
2778.85	360
2779.72	386
2780.59	358
2781.46	384
2782.32	360
2783.19	380
2784.06	352
2784.93	362
2785.8	342
2786.67	366
2787.53	348
2788.4	334
2789.27	350
2790.14	334
2791.01	350
2791.87	368
2792.74	348
2793.61	366
2794.47	350
2795.34	354
2796.21	354
2797.07	362
2797.94	346
2798.81	352
2799.67	346
2800.54	328
2801.41	336
2802.27	328
2803.14	328
2804	326
2804.87	336
2805.74	340
2806.6	318
2807.47	308
2808.33	308
2809.2	328
2810.06	312
2810.93	338
2811.79	318
2812.65	316
2813.52	320
2814.38	318
2815.25	324
2816.11	320
2816.98	320
2817.84	318
2818.7	320
2819.56	310
2820.43	322
2821.29	308
2822.16	308
2823.02	322
2823.88	292
2824.74	310
2825.61	302
2826.47	294
2827.33	314
2828.19	280
2829.05	310
2829.92	310
2830.78	294
2831.64	304
2832.5	306
2833.36	298
2834.23	280
2835.09	282
2835.95	280
2836.81	294
2837.67	298
2838.53	288
2839.39	272
2840.25	284
2841.11	310
2841.97	288
2842.83	282
2843.69	282
2844.55	306
2845.41	274
2846.27	294
2847.13	276
2847.99	278
2848.85	276
2849.71	272
2850.57	282
2851.43	286
2852.28	232
2853.14	282
2854	268
2854.86	264
2855.72	280
2856.58	280
2857.43	262
2858.29	284
2859.15	272
2860.01	264
2860.86	274
2861.72	270
2862.58	270
2863.44	260
2864.29	254
2865.15	264
2866.01	264
2866.86	266
2867.72	256
2868.58	266
2869.43	246
2870.29	258
2871.14	238
2872	282
2872.86	254
2873.71	258
2874.57	262
2875.42	248
2876.28	256
2877.13	260
2877.99	246
2878.84	244
2879.7	262
2880.55	244
2881.41	240
2882.26	240
2883.11	254
2883.97	244
2884.82	248
2885.68	252
2886.53	250
2887.39	254
2888.24	256
2889.09	226
2889.94	226
2890.8	248
2891.65	246
2892.5	234
2893.36	240
2894.21	240
2895.06	226
2895.91	232
2896.77	244
2897.62	234
2898.47	242
2899.32	250
2900.17	238
2901.03	234
2901.88	236
2902.73	236
2903.58	230
2904.43	234
2905.28	240
2906.13	250
2906.98	228
2907.84	238
2908.69	248
2909.54	226
2910.39	224
2911.24	240
2912.09	218
2912.94	210
2913.79	224
2914.64	230
2915.49	238
2916.34	222
2917.19	218
2918.03	202
2918.88	210
2919.73	210
2920.58	222
2921.43	206
2922.28	236
2923.13	220
2923.98	212
2924.82	220
2925.67	200
2926.52	226
2927.37	206
2928.22	228
2929.06	228
2929.91	212
2930.76	228
2931.61	226
2932.45	202
2933.3	204
2934.15	212
2934.99	214
2935.84	224
2936.69	200
2937.53	204
2938.38	212
2939.23	208
2940.07	204
2940.92	202
2941.76	196
2942.61	206
2943.46	208
2944.3	198
2945.15	210
2945.99	194
2946.84	214
2947.68	204
2948.53	204
2949.37	196
2950.22	200
2951.06	188
2951.9	186
2952.75	212
2953.59	212
2954.44	196
2955.28	202
2956.12	204
2956.97	184
2957.81	204
2958.65	196
2959.5	190
2960.34	188
2961.18	196
2962.03	196
2962.87	192
2963.71	210
2964.56	194
2965.4	194
2966.24	198
2967.08	194
2967.92	170
2968.77	184
2969.61	196
2970.45	190
2971.29	198
2972.13	198
2972.97	196
2973.82	190
2974.66	174
2975.5	182
2976.34	180
2977.18	184
2978.02	178
2978.86	176
2979.7	178
2980.54	190
2981.38	186
2982.22	174
2983.06	184
2983.9	170
2984.74	184
2985.58	180
2986.42	172
2987.26	166
2988.1	186
2988.94	188
2989.78	184
2990.61	168
2991.45	180
2992.29	180
2993.13	162
2993.97	166
2994.81	172
2995.64	180
2996.48	168
2997.32	178
2998.16	176
2999	166
2999.83	172
