#Acq. time (s)=	10
#Accumulations=	1
#Range (cm-¹)=	200...3000
#Windows=	3
#Autofocus=	Off
#AutoExposure=	Off
#Spike filter=	Off
#Delay time (s)=	0
#Binning=	1
#Readout mode=	Signal
#DeNoise=	Off
#ICS correction=	Off
#Dark correction=	Off
#Inst. Process=	Off
#Instrument=	LabRAM HR Evol
#Detector=	Syncerity OE
#Objective=	x100_VIS
#Grating=	600 (500nm)
#ND Filter=	0.01%
#Laser=	633nm_Edge
#Hole=	100.021
#Range=	Visible
#Project=	Omar
#Sample=	03-07-23
#Site=	papal
#Title=	leaf
#Remark=	
#Date=	03.07.2023 17:06
#Acquired=	03.07.2023 17:06:18
201.713	100
202.98	90
204.247	106
205.513	98
206.778	108
208.045	108
209.311	100
210.576	96
211.84	104
213.106	104
214.371	112
215.636	104
216.899	92
218.164	106
219.428	102
220.692	114
221.955	116
223.219	118
224.482	116
225.744	122
227.007	106
228.27	124
229.531	112
230.794	124
232.055	118
233.317	108
234.579	114
235.839	108
237.1	114
238.362	118
239.621	116
240.882	126
242.141	122
243.402	132
244.661	128
245.921	138
247.179	120
248.439	126
249.698	134
250.956	124
252.215	134
253.473	122
254.731	116
255.988	118
257.246	128
258.503	144
259.761	140
261.017	140
262.273	138
263.53	144
264.786	136
266.042	132
267.298	136
268.554	110
269.809	132
271.063	138
272.319	138
273.573	134
274.828	134
276.082	160
277.336	134
278.591	142
279.844	130
281.097	150
282.351	152
283.603	148
284.855	148
286.109	134
287.361	154
288.613	152
289.866	150
291.117	164
292.368	144
293.62	152
294.871	158
296.121	154
297.372	154
298.623	166
299.873	168
301.123	154
302.372	164
303.622	162
304.872	152
306.121	158
307.37	164
308.618	164
309.866	168
311.116	164
312.364	162
313.611	164
314.859	160
316.106	162
317.353	176
318.6	164
319.848	180
321.095	180
322.341	170
323.587	176
324.833	176
326.079	172
327.324	180
328.569	174
329.814	180
331.059	176
332.304	178
333.548	174
334.792	190
336.037	202
337.28	184
338.524	172
339.767	206
341.011	188
342.254	204
343.497	204
344.739	206
345.982	202
347.224	202
348.466	198
349.708	186
350.95	204
352.191	196
353.432	216
354.673	198
355.914	208
357.155	236
358.394	190
359.634	220
360.874	206
362.114	204
363.354	214
364.593	222
365.832	214
367.07	228
368.309	226
369.548	218
370.786	228
372.024	232
373.261	202
374.499	222
375.736	224
376.974	218
378.211	238
379.447	240
380.684	236
381.92	226
383.157	218
384.392	234
385.628	232
386.864	244
388.098	246
389.333	246
390.569	236
391.802	254
393.037	250
394.272	248
395.505	246
396.739	254
397.973	248
399.206	286
400.44	242
401.673	266
402.905	246
404.138	252
405.37	258
406.602	274
407.835	272
409.066	234
410.298	272
411.528	266
412.76	292
413.99	270
415.221	272
416.451	282
417.682	262
418.911	276
420.142	282
421.371	272
422.601	298
423.83	288
425.059	278
426.288	272
427.517	298
428.745	292
429.974	314
431.201	304
432.43	272
433.657	306
434.883	286
436.111	304
437.338	312
438.565	302
439.791	312
441.017	298
442.244	306
443.469	312
444.695	312
445.921	312
447.146	360
448.37	306
449.596	326
450.821	296
452.045	320
453.27	308
454.493	302
455.717	336
456.94	314
458.165	312
459.387	330
460.61	316
461.833	328
463.056	348
464.278	334
465.5	330
466.722	358
467.945	336
469.166	344
470.387	350
471.608	332
472.829	348
474.049	354
475.271	332
476.491	362
477.711	356
478.931	356
480.15	356
481.37	378
482.589	366
483.808	352
485.027	394
486.247	372
487.465	354
488.683	362
489.901	388
491.119	376
492.337	392
493.554	388
494.771	362
495.988	398
497.205	392
498.422	392
499.638	386
500.854	402
502.07	396
503.286	390
504.502	400
505.717	398
506.933	388
508.148	398
509.363	406
510.577	410
511.792	410
513.005	384
514.219	408
515.433	438
516.647	442
517.86	396
519.073	430
520.287	416
521.5	422
522.711	396
523.924	428
525.136	420
526.348	436
527.56	440
528.772	430
529.982	428
531.194	434
532.405	430
533.616	412
534.825	446
536.036	472
537.246	432
538.457	440
539.665	456
540.875	458
542.085	450
543.294	430
544.502	482
545.712	454
546.92	464
548.128	458
549.336	466
550.545	446
551.751	460
552.959	478
554.167	472
555.373	496
556.581	478
557.788	458
558.994	504
560.2	492
561.406	498
562.612	498
563.817	502
565.023	524
566.229	500
567.433	480
568.639	530
569.843	486
571.048	526
572.251	520
573.456	532
574.659	558
575.863	538
577.066	510
578.27	542
579.472	532
580.676	542
581.878	560
583.081	532
584.283	540
585.484	556
586.687	566
587.888	544
589.09	572
590.291	560
591.493	560
592.693	580
593.893	610
595.094	566
596.294	588
597.494	564
598.694	564
599.894	588
601.093	588
602.293	596
603.491	606
604.69	618
605.889	620
607.087	622
608.285	592
609.483	612
610.682	612
611.879	652
613.076	642
614.273	604
615.471	662
616.667	638
617.864	668
619.06	640
620.256	628
621.453	650
622.648	658
623.844	698
625.039	662
626.234	690
627.429	688
628.625	696
629.819	690
631.013	698
632.208	686
633.401	668
634.595	716
635.789	716
636.982	730
638.175	718
639.369	724
640.562	696
641.755	736
642.947	728
644.139	756
645.331	738
646.523	764
647.715	718
648.906	702
650.097	750
651.288	752
652.479	774
653.67	776
654.86	794
656.051	782
657.241	788
658.429	780
659.619	788
660.808	800
661.998	784
663.187	784
664.376	826
665.565	788
666.753	836
667.942	816
669.13	838
670.317	820
671.505	850
672.692	814
673.88	836
675.067	866
676.254	874
677.44	854
678.627	908
679.813	836
681	870
682.184	886
683.37	874
684.556	888
685.742	874
686.926	874
688.111	902
689.296	870
690.481	922
691.664	920
692.849	918
694.033	922
695.216	922
696.4	948
697.584	958
698.766	936
699.949	980
701.133	982
702.314	968
703.497	1000
704.678	970
705.861	988
707.043	990
708.224	1054
709.406	1030
710.586	984
711.768	1020
712.949	1038
714.129	1042
715.31	1068
716.489	1044
717.67	1048
718.849	1064
720.029	1074
721.208	1100
722.388	1066
723.566	1050
724.746	1102
725.924	1052
727.103	1104
728.28	1078
729.458	1080
730.636	1150
731.814	1164
732.992	1148
734.168	1200
735.345	1150
736.523	1178
737.699	1174
738.876	1210
740.052	1166
741.227	1216
742.404	1176
743.579	1232
744.754	1208
745.931	1212
747.105	1214
748.28	1220
749.455	1230
750.629	1228
751.803	1302
752.977	1238
754.152	1276
755.325	1250
756.499	1262
757.672	1262
758.846	1292
760.018	1318
761.191	1270
762.363	1296
763.535	1292
764.708	1266
765.88	1354
767.052	1324
768.223	1312
769.394	1376
770.565	1400
771.737	1386
772.908	1354
774.078	1396
775.249	1408
776.419	1362
777.589	1440
778.758	1454
779.928	1418
781.097	1466
782.266	1474
783.435	1490
784.604	1492
785.773	1486
786.941	1500
788.11	1474
789.278	1542
790.446	1498
791.613	1470
792.781	1556
793.948	1490
795.115	1528
796.282	1560
797.449	1544
798.616	1566
799.782	1580
800.948	1642
802.115	1602
803.28	1686
804.446	1636
805.612	1616
806.777	1700
807.941	1652
809.106	1650
810.271	1690
811.435	1654
812.6	1700
813.764	1724
814.927	1738
816.091	1718
817.254	1746
818.418	1704
819.581	1758
820.743	1774
821.906	1804
823.069	1800
824.232	1830
825.393	1826
826.555	1854
827.717	1842
828.879	1838
830.039	1926
831.201	1868
832.362	1930
833.522	1912
834.683	1854
835.844	1942
837.003	1918
838.164	1976
839.324	1938
840.483	1944
841.643	2046
842.801	1998
843.961	2042
845.12	1996
846.278	2010
847.437	2082
848.594	2080
849.753	2110
850.91	2064
852.069	2118
853.227	2154
854.383	2136
855.541	2174
856.697	2140
857.855	2136
859.011	2200
860.168	2222
861.323	2210
862.48	2258
863.635	2302
864.79	2274
865.946	2266
867.101	2292
868.257	2314
869.411	2284
870.567	2340
871.721	2342
872.874	2386
874.029	2364
875.183	2362
876.336	2378
877.49	2408
878.643	2396
879.796	2376
880.95	2452
882.102	2508
883.254	2458
884.407	2520
885.559	2490
886.711	2506
887.862	2558
889.015	2530
890.166	2544
891.317	2580
892.467	2644
893.619	2606
894.77	2596
895.92	2608
897.07	2624
898.221	2710
899.371	2636
900.52	2684
901.669	2670
902.819	2712
903.968	2768
905.116	2710
906.266	2780
907.415	2774
908.563	2722
909.711	2788
910.859	2790
912.007	2896
913.154	2874
914.301	2834
915.449	2850
916.596	2904
917.742	2884
918.889	2862
920.036	2920
921.183	2986
922.329	2878
923.475	2954
924.621	2976
925.765	3066
926.911	2964
928.056	2988
929.201	2984
930.346	3036
931.49	3084
932.635	3060
933.779	3104
934.924	3096
936.068	3206
937.211	3186
938.355	3172
939.498	3148
940.64	3182
941.784	3300
942.926	3206
944.069	3288
945.212	3252
946.354	3346
947.495	3280
948.637	3318
949.779	3432
950.921	3420
952.062	3396
953.202	3482
954.344	3404
955.484	3450
956.625	3510
957.765	3472
958.905	3496
960.045	3520
961.184	3592
962.324	3588
963.464	3558
964.604	3604
965.742	3618
966.881	3668
968.02	3646
969.158	3716
970.296	3730
971.434	3770
972.572	3716
973.71	3790
974.847	3770
975.985	3804
977.121	3856
978.259	3868
979.396	3812
980.532	3912
981.669	3882
982.804	3910
983.941	3878
985.076	3982
986.212	3932
987.347	3942
988.483	4000
989.617	4018
990.753	4060
991.887	4128
993.022	4050
994.156	4136
995.29	4184
996.424	4144
997.558	4178
998.692	4148
999.825	4208
1000.96	4158
1002.09	4222
1003.22	4262
1004.36	4326
1005.49	4314
1006.62	4358
1007.75	4376
1008.89	4414
1010.02	4420
1011.15	4356
1012.28	4454
1013.41	4460
1014.54	4514
1015.67	4486
1016.8	4464
1017.93	4568
1019.07	4522
1020.19	4560
1021.32	4600
1022.45	4652
1023.58	4682
1024.71	4768
1025.84	4600
1026.97	4728
1028.1	4850
1029.23	4808
1030.36	4842
1031.49	4942
1032.61	4844
1033.74	4856
1034.87	4906
1036	4934
1037.12	4998
1038.25	4968
1039.38	5004
1040.5	5008
1041.63	5120
1042.76	5036
1043.88	5136
1045.01	5162
1046.14	5182
1047.26	5158
1048.39	5200
1049.51	5308
1050.64	5326
1051.76	5298
1052.89	5486
1054.01	5456
1055.14	5406
1056.26	5418
1057.38	5396
1058.51	5496
1059.63	5462
1060.75	5464
1061.88	5526
1063	5588
1064.12	5538
1065.25	5672
1066.37	5578
1067.49	5672
1068.61	5686
1069.73	5672
1070.86	5652
1071.98	5822
1073.1	5746
1074.22	5782
1075.34	5862
1076.46	5850
1077.58	5892
1078.7	5960
1079.82	5940
1080.94	5986
1082.06	5884
1083.18	5934
1084.3	5986
1085.42	6018
1086.54	6044
1087.66	6020
1088.78	5948
1089.9	5996
1091.02	6084
1092.14	6074
1093.25	6068
1094.37	6228
1095.49	6128
1096.61	6226
1097.72	6248
1098.84	6212
1099.96	6200
1101.08	6204
1102.19	6288
1103.31	6210
1104.43	6274
1105.54	6254
1106.66	6314
1107.77	6256
1108.89	6326
1110	6306
1111.12	6396
1112.23	6474
1113.35	6434
1114.46	6432
1115.58	6478
1116.69	6502
1117.81	6432
1118.92	6522
1120.03	6564
1121.15	6568
1122.26	6588
1123.37	6588
1124.49	6578
1125.6	6620
1126.71	6554
1127.83	6634
1128.94	6698
1130.05	6778
1131.16	6746
1132.27	6832
1133.39	6928
1134.5	6754
1135.61	6838
1136.72	6914
1137.83	6920
1138.94	6968
1140.05	6986
1141.16	6950
1142.27	6928
1143.38	6926
1144.49	6918
1145.6	6930
1146.71	7036
1147.82	7040
1148.93	7092
1150.04	7032
1151.15	7084
1152.26	7202
1153.36	7118
1154.47	7258
1155.58	7090
1156.69	7032
1157.8	7136
1158.9	7176
1160.01	7290
1161.12	7276
1162.22	7218
1163.33	7250
1164.44	7274
1165.54	7258
1166.65	7330
1167.76	7242
1168.86	7340
1169.97	7316
1171.07	7420
1172.18	7326
1173.28	7334
1174.39	7350
1175.49	7368
1176.6	7410
1177.7	7400
1178.81	7326
1179.91	7318
1181.02	7364
1182.12	7284
1183.22	7262
1184.33	7348
1185.43	7318
1186.53	7352
1187.63	7300
1188.74	7316
1189.84	7332
1190.94	7360
1192.04	7374
1193.15	7280
1194.25	7278
1195.35	7308
1196.45	7294
1197.55	7324
1198.65	7234
1199.75	7186
1200.85	7404
1201.95	7274
1203.05	7242
1204.16	7256
1205.25	7336
1206.35	7230
1207.45	7206
1208.55	7260
1209.65	7254
1210.75	7268
1211.85	7276
1212.95	7266
1214.05	7160
1215.15	7246
1216.24	7234
1217.34	7054
1218.44	7120
1219.54	7082
1220.64	6984
1221.73	7092
1222.83	7070
1223.93	7062
1225.02	7084
1226.12	7064
1227.22	7032
1228.31	6958
1229.41	6986
1230.5	6980
1231.6	6976
1232.7	6920
1233.79	6962
1234.89	6994
1235.98	6972
1237.08	6948
1238.17	6968
1239.26	6872
1240.36	6894
1241.45	6846
1242.55	6902
1243.64	6846
1244.73	6850
1245.83	6938
1246.92	6776
1248.01	6756
1249.11	6764
1250.2	6722
1251.29	6726
1252.38	6726
1253.48	6758
1254.57	6750
1255.66	6628
1256.75	6754
1257.84	6762
1258.93	6640
1260.03	6582
1261.12	6570
1262.21	6622
1263.3	6570
1264.39	6606
1265.48	6616
1266.57	6608
1267.66	6488
1268.75	6568
1269.84	6462
1270.93	6440
1272.02	6514
1273.11	6442
1274.19	6460
1275.28	6416
1276.37	6414
1277.46	6408
1278.55	6356
1279.64	6276
1280.72	6380
1281.81	6306
1282.9	6294
1283.98	6259.24
1285.07	6166.61
1286.16	6242.85
1287.25	6108.05
1288.33	6163.54
1289.42	6060.83
1290.5	6149.03
1291.59	6133.7
1292.68	6071.62
1293.76	6071.92
1294.85	6012.86
1295.93	6051.56
1297.02	5961.86
1298.1	5965.98
1299.19	5916.72
1300.27	5881.46
1301.36	5958.56
1302.44	5826.67
1303.53	5854.39
1304.61	5845.34
1305.69	5806.35
1306.78	5771.49
1307.86	5721.76
1308.94	5747.14
1310.03	5606.86
1311.11	5604.57
1312.19	5680.23
1313.27	5590.92
1314.36	5576.13
1315.44	5536.08
1316.52	5457.22
1317.6	5518.43
1318.68	5444.59
1319.77	5480.78
1320.85	5417.42
1321.93	5369.54
1323.01	5353.92
1324.09	5362.97
1325.17	5286.38
1326.25	5303.59
1327.33	5364.81
1328.41	5302.45
1329.49	5206.31
1330.57	5222.28
1331.65	5162.55
1332.73	5160.66
1333.81	5113.56
1334.89	5173.47
1335.97	5119.55
1337.04	5079.09
1338.12	5029.8
1339.2	5045.86
1340.28	4994.11
1341.36	4960.93
1342.44	4957.96
1343.51	4881.69
1344.59	4920.88
1345.67	4917.05
1346.75	4901.63
1347.82	4918.48
1348.9	4836.35
1349.98	4809.47
1351.05	4788.22
1352.13	4745.73
1353.2	4705.55
1354.28	4762.63
1355.36	4783.17
1356.43	4740.83
1357.51	4637.42
1358.58	4648.6
1359.66	4621.43
1360.73	4563.22
1361.81	4580.71
1362.88	4599.56
1363.96	4562.9
1365.03	4532.99
1366.1	4474.12
1367.18	4495.5
1368.25	4499.89
1369.33	4453.57
1370.4	4447.09
1371.47	4394.87
1372.54	4408.79
1373.62	4398.56
1374.69	4373.63
1375.76	4335.79
1376.83	4332.41
1377.91	4288.22
1378.98	4266.32
1380.05	4272.96
1381.12	4235.2
1382.19	4224.68
1383.26	4237.92
1384.34	4192.73
1385.41	4181.19
1386.48	4116.25
1387.55	4127.43
1388.62	4091.18
1389.69	4091.65
1390.76	4097.76
1391.83	4117.5
1392.9	4104.19
1393.02	4102
1394.1	4076
1395.17	3988
1396.25	3970
1397.32	3982
1398.4	3936
1399.47	3998
1400.55	3932
1401.62	3838
1402.69	3950
1403.77	3932
1404.84	3896
1405.91	3838
1406.99	3770
1408.06	3806
1409.13	3758
1410.2	3796
1411.27	3852
1412.35	3770
1413.42	3796
1414.49	3674
1415.56	3720
1416.63	3806
1417.7	3710
1418.78	3758
1419.85	3698
1420.92	3780
1421.99	3620
1423.06	3672
1424.13	3628
1425.2	3662
1426.27	3564
1427.34	3658
1428.41	3608
1429.48	3578
1430.55	3700
1431.61	3602
1432.68	3552
1433.75	3478
1434.82	3560
1435.89	3516
1436.96	3566
1438.02	3528
1439.09	3502
1440.16	3486
1441.23	3432
1442.3	3502
1443.36	3474
1444.43	3394
1445.5	3448
1446.56	3426
1447.63	3386
1448.7	3466
1449.76	3398
1450.83	3434
1451.89	3396
1452.96	3414
1454.02	3334
1455.09	3332
1456.15	3376
1457.22	3356
1458.28	3308
1459.35	3294
1460.41	3318
1461.48	3292
1462.54	3342
1463.61	3324
1464.67	3404
1465.73	3236
1466.8	3202
1467.86	3206
1468.92	3230
1469.98	3244
1471.05	3264
1472.11	3142
1473.17	3278
1474.24	3226
1475.3	3092
1476.36	3188
1477.42	3256
1478.48	3140
1479.54	3200
1480.6	3136
1481.67	3154
1482.73	3086
1483.79	3142
1484.85	3124
1485.91	3080
1486.97	3088
1488.03	3038
1489.09	3116
1490.15	3082
1491.21	3130
1492.27	3082
1493.33	2994
1494.38	3074
1495.44	3002
1496.5	3004
1497.56	3066
1498.62	2956
1499.68	2950
1500.74	3006
1501.79	3022
1502.85	2992
1503.91	2920
1504.97	2932
1506.02	2954
1507.08	2968
1508.14	2932
1509.2	2856
1510.25	2854
1511.31	2888
1512.36	2888
1513.42	2898
1514.48	2798
1515.53	2882
1516.59	2856
1517.64	2866
1518.7	2910
1519.75	2856
1520.81	2856
1521.86	2838
1522.92	2812
1523.97	2796
1525.02	2806
1526.08	2790
1527.13	2772
1528.19	2784
1529.24	2812
1530.29	2746
1531.35	2726
1532.4	2748
1533.45	2710
1534.51	2730
1535.56	2838
1536.61	2704
1537.66	2722
1538.72	2684
1539.77	2688
1540.82	2662
1541.87	2648
1542.92	2674
1543.97	2610
1545.02	2652
1546.08	2680
1547.13	2646
1548.18	2642
1549.23	2594
1550.28	2564
1551.33	2642
1552.38	2644
1553.43	2604
1554.48	2530
1555.53	2572
1556.57	2610
1557.62	2548
1558.67	2614
1559.72	2576
1560.77	2580
1561.82	2576
1562.87	2566
1563.92	2532
1564.96	2538
1566.01	2458
1567.06	2512
1568.11	2470
1569.15	2510
1570.2	2510
1571.25	2504
1572.29	2508
1573.34	2476
1574.39	2494
1575.43	2526
1576.48	2480
1577.53	2452
1578.57	2490
1579.62	2518
1580.66	2480
1581.71	2414
1582.75	2366
1583.8	2484
1584.84	2372
1585.89	2408
1586.93	2404
1587.98	2430
1589.02	2420
1590.06	2444
1591.11	2456
1592.15	2376
1593.2	2404
1594.24	2444
1595.28	2358
1596.33	2434
1597.37	2366
1598.41	2418
1599.45	2422
1600.5	2376
1601.54	2358
1602.58	2370
1603.62	2400
1604.66	2446
1605.7	2348
1606.75	2354
1607.79	2352
1608.83	2386
1609.87	2358
1610.91	2376
1611.95	2396
1612.99	2346
1614.03	2406
1615.07	2382
1616.11	2308
1617.15	2354
1618.19	2326
1619.23	2346
1620.27	2360
1621.31	2290
1622.35	2334
1623.39	2304
1624.43	2288
1625.46	2324
1626.5	2356
1627.54	2268
1628.58	2322
1629.62	2354
1630.65	2292
1631.69	2320
1632.73	2274
1633.77	2288
1634.8	2212
1635.84	2302
1636.88	2294
1637.91	2278
1638.95	2322
1639.99	2290
1641.02	2314
1642.06	2266
1643.09	2268
1644.13	2278
1645.16	2242
1646.2	2234
1647.23	2222
1648.27	2248
1649.3	2278
1650.34	2224
1651.37	2272
1652.41	2270
1653.44	2248
1654.47	2190
1655.51	2188
1656.54	2226
1657.57	2264
1658.61	2276
1659.64	2250
1660.67	2204
1661.71	2208
1662.74	2184
1663.77	2212
1664.81	2218
1665.84	2224
1666.87	2206
1667.9	2192
1668.93	2146
1669.96	2158
1671	2162
1672.03	2204
1673.06	2246
1674.09	2154
1675.12	2190
1676.15	2144
1677.18	2122
1678.21	2174
1679.24	2134
1680.27	2168
1681.3	2160
1682.33	2130
1683.36	2086
1684.39	2088
1685.42	2138
1686.45	2132
1687.47	2146
1688.5	2118
1689.53	2120
1690.56	2104
1691.59	2138
1692.62	2126
1693.64	2110
1694.67	2070
1695.7	2096
1696.73	2098
1697.75	2110
1698.78	2054
1699.81	2046
1700.83	2058
1701.86	2086
1702.89	2100
1703.91	2088
1704.94	2058
1705.97	2058
1706.99	2052
1708.02	2054
1709.04	2020
1710.07	2072
1711.09	2050
1712.12	2104
1713.14	2060
1714.17	2060
1715.19	2022
1716.22	2020
1717.24	2104
1718.26	2032
1719.29	2056
1720.31	2082
1721.33	2010
1722.36	2080
1723.38	2050
1724.4	2076
1725.43	2060
1726.45	1972
1727.47	2000
1728.49	1994
1729.52	2038
1730.54	2034
1731.56	2018
1732.58	2098
1733.6	2056
1734.63	1976
1735.65	2036
1736.67	2070
1737.69	2020
1738.71	2022
1739.73	2040
1740.75	1998
1741.77	2068
1742.79	1976
1743.81	2010
1744.83	2016
1745.85	1970
1746.87	2066
1747.89	1978
1748.91	1996
1749.93	2004
1750.95	1980
1751.97	2006
1752.98	2012
1754	1968
1755.02	2094
1756.04	1996
1757.06	1960
1758.07	1974
1759.09	2080
1760.11	2024
1761.13	1918
1762.14	2036
1763.16	2052
1764.18	1988
1765.19	2038
1766.21	1946
1767.23	2040
1768.24	2060
1769.26	1960
1770.28	2026
1771.29	2018
1772.31	1962
1773.32	1990
1774.34	1982
1775.35	2040
1776.37	1936
1777.38	1970
1778.4	2006
1779.41	1968
1780.43	2046
1781.44	2004
1782.45	2000
1783.47	1988
1784.48	1968
1785.49	1942
1786.51	2016
1787.52	1998
1788.53	1996
1789.55	1988
1790.56	2004
1791.57	2018
1792.58	1992
1793.6	1994
1794.61	2006
1795.62	1946
1796.63	1982
1797.64	1984
1798.66	2006
1799.67	2006
1800.68	1992
1801.69	2016
1802.7	1988
1803.71	2024
1804.72	1966
1805.73	1986
1806.74	1976
1807.75	2012
1808.76	1982
1809.77	2004
1810.78	1970
1811.79	1926
1812.8	1976
1813.81	1938
1814.82	1978
1815.83	1972
1816.84	1954
1817.84	1926
1818.85	1958
1819.86	1976
1820.87	1976
1821.88	1918
1822.88	1948
1823.89	1966
1824.9	1976
1825.91	1924
1826.91	1942
1827.92	1948
1828.93	2002
1829.93	1970
1830.94	1948
1831.95	1926
1832.95	1908
1833.96	1954
1834.97	1948
1835.97	1912
1836.98	1932
1837.98	1982
1838.99	1966
1839.99	1924
1841	1994
1842	1954
1843.01	1926
1844.01	1910
1845.02	1950
1846.02	1996
1847.02	1914
1848.03	1910
1849.03	1980
1850.03	1922
1851.04	1912
1852.04	1970
1853.04	1994
1854.05	1886
1855.05	1924
1856.05	1978
1857.05	1850
1858.06	1942
1859.06	1984
1860.06	1948
1861.06	1940
1862.06	1904
1863.07	1922
1864.07	1926
1865.07	1932
1866.07	1910
1867.07	1926
1868.07	1926
1869.07	1898
1870.07	1886
1871.07	1906
1872.07	1940
1873.07	1852
1874.07	1938
1875.07	1878
1876.07	1914
1877.07	1958
1878.07	1924
1879.07	1912
1880.07	1926
1881.07	1908
1882.07	1886
1883.06	1858
1884.06	1936
1885.06	1884
1886.06	1914
1887.06	1886
1888.05	1908
1889.05	1918
1890.05	1934
1891.05	1904
1892.04	1896
1893.04	1888
1894.04	1926
1895.03	1900
1896.03	1900
1897.03	1866
1898.02	1938
1899.02	1898
1900.01	1954
1901.01	1944
1902	1912
1903	1952
1903.99	1986
1904.99	1904
1905.98	1918
1906.98	1932
1907.97	1932
1908.97	1878
1909.96	1934
1910.96	1948
1911.95	1908
1912.94	1884
1913.94	1866
1914.93	1922
1915.93	1904
1916.92	1930
1917.91	1894
1918.9	1906
1919.9	1926
1920.89	1902
1921.88	1914
1922.87	1898
1923.87	1898
1924.86	1874
1925.85	1866
1926.84	1870
1927.83	1942
1928.82	1972
1929.82	1906
1930.81	1950
1931.8	1822
1932.79	1882
1933.78	1924
1934.77	1898
1935.76	1862
1936.75	1898
1937.74	1876
1938.73	1952
1939.72	1904
1940.71	1914
1941.7	1848
1942.69	1894
1943.68	1902
1944.67	1926
1945.65	1906
1946.64	1954
1947.63	1856
1948.62	1896
1949.61	1908
1950.6	1896
1951.58	1902
1952.57	1874
1953.56	1878
1954.55	1924
1955.53	1906
1956.52	1910
1957.51	1886
1958.5	1924
1959.48	1928
1960.47	1806
1961.45	1906
1962.44	1860
1963.43	1920
1964.41	1896
1965.4	1872
1966.38	1902
1967.37	1868
1968.35	1862
1969.34	1854
1970.32	1806
1971.31	1878
1972.29	1886
1973.28	1888
1974.26	1870
1975.25	1890
1976.23	1840
1977.22	1824
1978.2	1892
1979.18	1864
1980.17	1804
1981.15	1882
1982.13	1908
1983.12	1910
1984.1	1902
1985.08	1820
1986.06	1904
1987.05	1890
1988.03	1842
1989.01	1870
1989.99	1834
1990.97	1820
1991.96	1818
1992.94	1884
1993.92	1852
1994.9	1908
1995.88	1860
1996.86	1872
1997.84	1868
1998.82	1874
1999.8	1888
2000.78	1882
2001.76	1872
2002.74	1846
2003.72	1900
2004.7	1850
2005.68	1834
2006.66	1850
2007.64	1828
2008.62	1818
2009.6	1866
2010.58	1804
2011.56	1872
2012.54	1862
2013.51	1802
2014.49	1888
2015.47	1814
2016.45	1852
2017.43	1808
2018.4	1880
2019.38	1870
2020.36	1834
2021.34	1884
2022.31	1840
2023.29	1884
2024.27	1848
2025.24	1822
2026.22	1890
2027.2	1854
2028.17	1864
2029.15	1874
2030.12	1838
2031.1	1850
2032.07	1878
2033.05	1838
2034.03	1804
2035	1864
2035.98	1840
2036.95	1832
2037.93	1848
2038.9	1878
2039.87	1832
2040.85	1858
2041.82	1786
2042.8	1824
2043.77	1852
2044.74	1780
2045.72	1788
2046.69	1822
2047.66	1808
2048.64	1854
2049.61	1820
2050.58	1806
2051.55	1868
2052.53	1854
2053.5	1782
2054.47	1858
2055.44	1826
2056.41	1820
2057.39	1842
2058.36	1778
2059.33	1820
2060.3	1848
2061.27	1858
2062.24	1850
2063.21	1804
2064.18	1774
2065.15	1870
2066.12	1814
2067.09	1834
2068.06	1798
2069.03	1796
2070	1840
2070.97	1788
2071.94	1754
2072.91	1834
2073.88	1822
2074.85	1788
2075.82	1824
2076.79	1790
2077.76	1798
2078.73	1844
2079.69	1808
2080.66	1784
2081.63	1802
2082.6	1794
2083.56	1776
2084.53	1832
2085.5	1826
2086.47	1818
2087.43	1836
2088.4	1774
2089.37	1844
2090.33	1808
2091.3	1804
2092.27	1812
2093.23	1780
2094.2	1780
2095.17	1814
2096.13	1814
2097.1	1866
2098.06	1794
2099.03	1832
2099.99	1750
2100.96	1832
2101.92	1822
2102.89	1832
2103.85	1800
2104.82	1798
2105.78	1788
2106.74	1852
2107.71	1822
2108.67	1878
2109.64	1810
2110.6	1800
2111.56	1804
2112.53	1830
2113.49	1794
2114.45	1796
2115.41	1812
2116.38	1826
2117.34	1810
2118.3	1802
2119.26	1800
2120.23	1768
2121.19	1780
2122.15	1804
2123.11	1840
2124.07	1768
2125.03	1788
2126	1826
2126.96	1766
2127.92	1862
2128.88	1822
2129.84	1788
2130.8	1844
2131.76	1828
2132.72	1764
2133.68	1776
2134.64	1818
2135.6	1808
2136.56	1770
2137.52	1804
2138.48	1774
2139.44	1754
2140.4	1796
2141.35	1752
2142.31	1760
2143.27	1806
2144.23	1788
2145.19	1744
2146.15	1782
2147.1	1778
2148.06	1784
2149.02	1806
2149.98	1786
2150.94	1812
2151.89	1800
2152.85	1728
2153.81	1792
2154.76	1764
2155.72	1756
2156.68	1766
2157.63	1800
2158.59	1772
2159.55	1770
2160.5	1770
2161.46	1768
2162.41	1760
2163.37	1750
2164.32	1720
2165.28	1804
2166.23	1748
2167.19	1744
2168.14	1786
2169.1	1736
2170.05	1754
2171.01	1780
2171.96	1742
2172.91	1750
2173.87	1760
2174.82	1700
2175.78	1764
2176.73	1760
2177.68	1732
2178.64	1738
2179.59	1762
2180.54	1752
2181.49	1766
2182.45	1742
2183.4	1742
2184.35	1738
2185.3	1760
2186.26	1698
2187.21	1722
2188.16	1712
2189.11	1722
2190.06	1730
2191.01	1712
2191.96	1744
2192.92	1710
2193.87	1720
2194.82	1776
2195.77	1728
2196.72	1704
2197.67	1676
2198.62	1690
2199.57	1754
2200.52	1698
2201.47	1784
2202.42	1746
2203.37	1722
2204.32	1728
2205.27	1698
2206.22	1742
2207.16	1708
2208.11	1730
2209.06	1728
2210.01	1726
2210.96	1708
2211.91	1690
2212.85	1682
2213.8	1684
2214.75	1708
2215.7	1696
2216.64	1690
2217.59	1720
2218.54	1712
2219.49	1742
2220.43	1730
2221.38	1710
2222.33	1678
2223.27	1680
2224.22	1633.76
2225.16	1761.27
2226.11	1658.4
2227.06	1690.49
2228	1689.58
2228.95	1687.47
2229.89	1720.86
2230.84	1719.3
2231.78	1635.71
2232.73	1668.77
2233.67	1718.78
2234.62	1708.25
2235.56	1695.72
2236.51	1709.35
2237.45	1687.13
2238.4	1627.51
2239.34	1681.09
2240.28	1664.56
2241.23	1709.23
2242.17	1675.81
2243.11	1711.47
2244.06	1703.83
2245	1714.94
2245.94	1674.21
2246.89	1705.38
2247.83	1684.99
2248.77	1652.62
2249.71	1684.74
2250.66	1685.35
2251.6	1679.61
2252.54	1664.87
2253.48	1686.7
2254.42	1681.65
2255.37	1681.48
2256.31	1656.53
2257.25	1682.43
2258.19	1643.39
2259.13	1643.9
2260.07	1650.3
2261.01	1646.02
2261.95	1667.27
2262.89	1657.19
2263.83	1665.51
2264.77	1641.22
2265.71	1646.72
2266.65	1617.87
2267.59	1628.18
2268.53	1654.61
2269.47	1637.39
2270.41	1661.32
2271.35	1651.81
2272.29	1665.89
2273.23	1651.66
2274.17	1659.86
2275.1	1635.64
2276.04	1621.23
2276.98	1599.99
2277.92	1655.95
2278.86	1638.91
2279.8	1638.4
2280.73	1618.59
2281.67	1631.09
2282.61	1646.37
2283.55	1606.69
2284.48	1585.71
2285.42	1628.62
2286.36	1655.4
2287.29	1611.24
2288.23	1613.04
2289.17	1613.21
2290.1	1624.02
2291.04	1614.75
2291.98	1603.23
2292.91	1600.21
2293.85	1615.46
2294.78	1593.05
2295.72	1605.77
2296.65	1611.91
2297.59	1623.68
2298.52	1573.88
2299.46	1609.97
2300.39	1633.5
2301.33	1610.31
2302.26	1605.02
2303.2	1615.37
2304.13	1592.97
2305.06	1560.73
2306	1555.39
2306.93	1568.63
2307.87	1573.87
2308.8	1547.9
2309.73	1573.96
2310.67	1569.08
2311.6	1542.62
2312.53	1594.44
2313.46	1593.15
2314.4	1562.3
2315.33	1567.1
2316.26	1562.3
2316.69	1554
2317.62	1536
2318.56	1616
2319.5	1568
2320.43	1514
2321.37	1562
2322.31	1542
2323.24	1568
2324.18	1540
2325.12	1546
2326.05	1540
2326.99	1564
2327.92	1564
2328.86	1508
2329.79	1556
2330.73	1536
2331.66	1546
2332.6	1544
2333.53	1508
2334.47	1528
2335.4	1546
2336.34	1486
2337.27	1526
2338.2	1546
2339.14	1568
2340.07	1552
2341.01	1510
2341.94	1538
2342.87	1514
2343.81	1540
2344.74	1464
2345.67	1524
2346.6	1514
2347.54	1494
2348.47	1500
2349.4	1488
2350.33	1500
2351.27	1488
2352.2	1494
2353.13	1500
2354.06	1504
2354.99	1502
2355.93	1480
2356.86	1534
2357.79	1496
2358.72	1486
2359.65	1486
2360.58	1526
2361.51	1494
2362.44	1444
2363.37	1486
2364.3	1488
2365.23	1488
2366.16	1486
2367.09	1474
2368.02	1468
2368.95	1476
2369.88	1480
2370.81	1446
2371.74	1512
2372.67	1480
2373.6	1438
2374.52	1420
2375.45	1456
2376.38	1456
2377.31	1472
2378.24	1442
2379.17	1472
2380.09	1428
2381.02	1454
2381.95	1470
2382.88	1460
2383.8	1456
2384.73	1452
2385.66	1426
2386.58	1428
2387.51	1368
2388.44	1438
2389.36	1436
2390.29	1404
2391.22	1436
2392.14	1428
2393.07	1448
2393.99	1426
2394.92	1364
2395.85	1410
2396.77	1412
2397.7	1402
2398.62	1398
2399.55	1408
2400.47	1412
2401.4	1368
2402.32	1406
2403.25	1430
2404.17	1404
2405.09	1420
2406.02	1404
2406.94	1360
2407.86	1404
2408.79	1368
2409.71	1342
2410.63	1398
2411.56	1376
2412.48	1374
2413.4	1338
2414.33	1374
2415.25	1380
2416.17	1332
2417.09	1328
2418.02	1342
2418.94	1344
2419.86	1342
2420.78	1352
2421.7	1308
2422.63	1344
2423.55	1342
2424.47	1310
2425.39	1318
2426.31	1322
2427.23	1278
2428.15	1310
2429.07	1332
2429.99	1326
2430.91	1356
2431.83	1356
2432.75	1316
2433.67	1298
2434.59	1344
2435.51	1294
2436.43	1308
2437.35	1322
2438.27	1324
2439.19	1288
2440.11	1288
2441.03	1258
2441.95	1258
2442.86	1298
2443.78	1282
2444.7	1280
2445.62	1300
2446.54	1244
2447.46	1302
2448.37	1278
2449.29	1274
2450.21	1246
2451.13	1208
2452.04	1248
2452.96	1228
2453.88	1286
2454.79	1254
2455.71	1218
2456.63	1258
2457.54	1260
2458.46	1202
2459.38	1196
2460.29	1212
2461.21	1262
2462.12	1216
2463.04	1206
2463.95	1264
2464.87	1180
2465.78	1216
2466.7	1184
2467.61	1204
2468.53	1208
2469.44	1194
2470.36	1176
2471.27	1222
2472.19	1216
2473.1	1218
2474.01	1186
2474.93	1192
2475.84	1166
2476.76	1192
2477.67	1168
2478.58	1200
2479.5	1194
2480.41	1180
2481.32	1182
2482.23	1152
2483.15	1200
2484.06	1128
2484.97	1150
2485.88	1226
2486.8	1188
2487.71	1188
2488.62	1118
2489.53	1168
2490.44	1126
2491.35	1164
2492.26	1144
2493.18	1188
2494.09	1158
2495	1142
2495.91	1136
2496.82	1126
2497.73	1112
2498.64	1100
2499.55	1126
2500.46	1134
2501.37	1126
2502.28	1086
2503.19	1072
2504.1	1114
2505.01	1106
2505.92	1092
2506.83	1128
2507.74	1116
2508.65	1094
2509.55	1076
2510.46	1110
2511.37	1078
2512.28	1126
2513.19	1082
2514.09	1070
2515	1094
2515.91	1036
2516.82	1078
2517.73	1078
2518.63	1032
2519.54	1094
2520.45	1016
2521.35	1076
2522.26	1092
2523.17	1034
2524.07	1062
2524.98	1088
2525.89	1036
2526.79	1036
2527.7	1078
2528.6	1038
2529.51	1044
2530.42	1026
2531.32	1022
2532.23	1024
2533.13	1014
2534.04	1046
2534.94	1036
2535.85	994
2536.75	1052
2537.66	1020
2538.56	982
2539.47	968
2540.37	1008
2541.27	982
2542.18	1004
2543.08	982
2543.98	990
2544.89	968
2545.79	1022
2546.7	988
2547.6	1014
2548.5	1030
2549.4	980
2550.31	976
2551.21	996
2552.11	998
2553.01	994
2553.92	962
2554.82	988
2555.72	974
2556.62	950
2557.52	992
2558.42	942
2559.33	970
2560.23	966
2561.13	948
2562.03	940
2562.93	976
2563.83	964
2564.73	968
2565.63	978
2566.53	930
2567.43	948
2568.33	950
2569.23	932
2570.13	886
2571.03	926
2571.93	918
2572.83	974
2573.73	956
2574.63	948
2575.53	934
2576.43	948
2577.33	904
2578.22	894
2579.12	926
2580.02	884
2580.92	896
2581.82	898
2582.72	918
2583.61	888
2584.51	892
2585.41	922
2586.31	894
2587.2	910
2588.1	906
2589	900
2589.89	886
2590.79	870
2591.69	910
2592.58	930
2593.48	856
2594.38	860
2595.27	878
2596.17	890
2597.06	880
2597.96	872
2598.86	900
2599.75	864
2600.65	868
2601.54	856
2602.44	848
2603.33	838
2604.23	858
2605.12	854
2606.02	872
2606.91	858
2607.81	802
2608.7	882
2609.59	846
2610.49	874
2611.38	850
2612.27	822
2613.17	822
2614.06	874
2614.95	824
2615.85	808
2616.74	858
2617.63	818
2618.53	822
2619.42	830
2620.31	790
2621.2	804
2622.1	840
2622.99	814
2623.88	792
2624.77	846
2625.66	778
2626.55	784
2627.45	808
2628.34	806
2629.23	816
2630.12	802
2631.01	772
2631.9	780
2632.79	772
2633.68	788
2634.57	760
2635.46	780
2636.35	782
2637.24	746
2638.13	764
2639.02	766
2639.91	800
2640.8	776
2641.69	786
2642.58	790
2643.47	780
2644.36	790
2645.25	764
2646.14	778
2647.02	762
2647.91	758
2648.8	790
2649.69	766
2650.58	754
2651.46	756
2652.35	756
2653.24	760
2654.13	756
2655.01	756
2655.9	754
2656.79	732
2657.68	748
2658.56	752
2659.45	772
2660.34	732
2661.22	730
2662.11	740
2662.99	718
2663.88	752
2664.77	724
2665.65	720
2666.54	732
2667.42	722
2668.31	734
2669.2	728
2670.08	706
2670.96	702
2671.85	736
2672.73	708
2673.62	672
2674.5	732
2675.39	722
2676.27	694
2677.16	696
2678.04	684
2678.93	718
2679.81	694
2680.69	702
2681.58	706
2682.46	686
2683.34	676
2684.23	678
2685.11	678
2685.99	660
2686.87	704
2687.76	676
2688.64	708
2689.52	696
2690.4	698
2691.28	658
2692.17	666
2693.05	660
2693.93	690
2694.81	656
2695.69	640
2696.57	676
2697.46	644
2698.34	672
2699.22	640
2700.1	656
2700.98	650
2701.86	660
2702.74	674
2703.62	644
2704.5	646
2705.38	646
2706.26	628
2707.14	654
2708.02	640
2708.9	640
2709.78	622
2710.66	648
2711.54	594
2712.42	638
2713.3	604
2714.17	628
2715.05	618
2715.93	610
2716.81	624
2717.69	648
2718.57	600
2719.44	600
2720.32	608
2721.2	622
2722.08	614
2722.95	620
2723.83	598
2724.71	606
2725.59	616
2726.46	598
2727.34	610
2728.22	576
2729.09	588
2729.97	570
2730.85	610
2731.72	588
2732.6	580
2733.47	598
2734.35	594
2735.23	604
2736.1	568
2736.98	564
2737.85	584
2738.73	576
2739.6	546
2740.48	540
2741.35	540
2742.23	576
2743.1	582
2743.98	554
2744.85	546
2745.72	552
2746.6	566
2747.47	570
2748.35	544
2749.22	554
2750.09	546
2750.97	570
2751.84	538
2752.71	538
2753.59	538
2754.46	554
2755.33	540
2756.2	548
2757.08	558
2757.95	556
2758.82	526
2759.69	526
2760.57	540
2761.44	548
2762.31	522
2763.18	534
2764.05	550
2764.92	528
2765.79	514
2766.67	554
2767.54	536
2768.41	532
2769.28	506
2770.15	526
2771.02	530
2771.89	542
2772.76	512
2773.63	498
2774.5	502
2775.37	522
2776.24	488
2777.11	490
2777.98	490
2778.85	502
2779.72	500
2780.59	496
2781.46	484
2782.32	488
2783.19	514
2784.06	498
2784.93	478
2785.8	520
2786.67	480
2787.53	490
2788.4	486
2789.27	486
2790.14	482
2791.01	488
2791.87	486
2792.74	482
2793.61	480
2794.47	470
2795.34	508
2796.21	458
2797.07	494
2797.94	488
2798.81	466
2799.67	454
2800.54	468
2801.41	462
2802.27	486
2803.14	438
2804	436
2804.87	488
2805.74	482
2806.6	450
2807.47	450
2808.33	444
2809.2	472
2810.06	452
2810.93	446
2811.79	444
2812.65	424
2813.52	452
2814.38	464
2815.25	422
2816.11	450
2816.98	448
2817.84	422
2818.7	452
2819.56	424
2820.43	434
2821.29	448
2822.16	436
2823.02	466
2823.88	434
2824.74	424
2825.61	408
2826.47	422
2827.33	430
2828.19	434
2829.05	414
2829.92	424
2830.78	426
2831.64	404
2832.5	398
2833.36	426
2834.23	398
2835.09	426
2835.95	424
2836.81	412
2837.67	406
2838.53	408
2839.39	398
2840.25	402
2841.11	418
2841.97	392
2842.83	400
2843.69	398
2844.55	398
2845.41	384
2846.27	382
2847.13	404
2847.99	378
2848.85	378
2849.71	374
2850.57	392
2851.43	416
2852.28	398
2853.14	388
2854	366
2854.86	382
2855.72	380
2856.58	386
2857.43	392
2858.29	360
2859.15	366
2860.01	376
2860.86	376
2861.72	368
2862.58	356
2863.44	372
2864.29	376
2865.15	378
2866.01	364
2866.86	354
2867.72	368
2868.58	360
2869.43	386
2870.29	366
2871.14	366
2872	332
2872.86	374
2873.71	361
2874.57	348
2875.42	366
2876.28	366
2877.13	370
2877.99	332
2878.84	358
2879.7	326
2880.55	330
2881.41	356
2882.26	328
2883.11	344
2883.97	340
2884.82	340
2885.68	324
2886.53	378
2887.39	336
2888.24	362
2889.09	358
2889.94	322
2890.8	342
2891.65	330
2892.5	340
2893.36	320
2894.21	350
2895.06	326
2895.91	350
2896.77	314
2897.62	328
2898.47	316
2899.32	300
2900.17	348
2901.03	342
2901.88	328
2902.73	338
2903.58	294
2904.43	356
2905.28	310
2906.13	340
2906.98	344
2907.84	320
2908.69	318
2909.54	340
2910.39	330
2911.24	316
2912.09	306
2912.94	328
2913.79	310
2914.64	316
2915.49	306
2916.34	320
2917.19	286
2918.03	310
2918.88	302
2919.73	328
2920.58	306
2921.43	284
2922.28	308
2923.13	338
2923.98	284
2924.82	310
2925.67	288
2926.52	304
2927.37	300
2928.22	302
2929.06	290
2929.91	318
2930.76	308
2931.61	318
2932.45	286
2933.3	292
2934.15	296
2934.99	294
2935.84	298
2936.69	300
2937.53	280
2938.38	300
2939.23	288
2940.07	284
2940.92	268
2941.76	280
2942.61	306
2943.46	284
2944.3	296
2945.15	284
2945.99	282
2946.84	280
2947.68	302
2948.53	280
2949.37	284
2950.22	262
2951.06	268
2951.9	266
2952.75	292
2953.59	258
2954.44	270
2955.28	272
2956.12	282
2956.97	280
2957.81	276
2958.65	286
2959.5	286
2960.34	302
2961.18	284
2962.03	276
2962.87	248
2963.71	254
2964.56	280
2965.4	278
2966.24	276
2967.08	264
2967.92	276
2968.77	256
2969.61	272
2970.45	266
2971.29	264
2972.13	268
2972.97	266
2973.82	260
2974.66	246
2975.5	262
2976.34	260
2977.18	260
2978.02	272
2978.86	258
2979.7	246
2980.54	266
2981.38	256
2982.22	244
2983.06	262
2983.9	254
2984.74	256
2985.58	240
2986.42	234
2987.26	276
2988.1	258
2988.94	250
2989.78	256
2990.61	242
2991.45	246
2992.29	236
2993.13	250
2993.97	258
2994.81	230
2995.64	248
2996.48	228
2997.32	234
2998.16	260
2999	260
2999.83	236
