#Acq. time (s)=	10
#Accumulations=	1
#Range (cm-¹)=	200...3000
#Windows=	3
#Autofocus=	Off
#AutoExposure=	Off
#Spike filter=	Off
#Delay time (s)=	0
#Binning=	1
#Readout mode=	Signal
#DeNoise=	Off
#ICS correction=	Off
#Dark correction=	Off
#Inst. Process=	Off
#Instrument=	LabRAM HR Evol
#Detector=	Syncerity OE
#Objective=	x100_VIS
#Grating=	600 (500nm)
#ND Filter=	0.01%
#Laser=	633nm_Edge
#Hole=	100.021
#Range=	Visible
#Project=	Omar
#Sample=	03-07-23
#Site=	papal
#Title=	leaf
#Remark=	
#Date=	03.07.2023 17:04
#Acquired=	03.07.2023 17:04:30
201.713	94
202.98	108
204.247	112
205.513	118
206.778	106
208.045	124
209.311	118
210.576	110
211.84	128
213.106	106
214.371	110
215.636	116
216.899	112
218.164	134
219.428	124
220.692	110
221.955	118
223.219	130
224.482	122
225.744	122
227.007	128
228.27	124
229.531	134
230.794	132
232.055	122
233.317	118
234.579	118
235.839	124
237.1	124
238.362	130
239.621	140
240.882	134
242.141	136
243.402	134
244.661	126
245.921	132
247.179	126
248.439	142
249.698	138
250.956	130
252.215	134
253.473	148
254.731	136
255.988	140
257.246	134
258.503	138
259.761	140
261.017	150
262.273	146
263.53	144
264.786	122
266.042	158
267.298	134
268.554	156
269.809	148
271.063	168
272.319	150
273.573	158
274.828	152
276.082	152
277.336	154
278.591	158
279.844	142
281.097	154
282.351	164
283.603	150
284.855	164
286.109	158
287.361	162
288.613	176
289.866	152
291.117	176
292.368	166
293.62	166
294.871	170
296.121	168
297.372	176
298.623	166
299.873	176
301.123	190
302.372	184
303.622	174
304.872	168
306.121	188
307.37	184
308.618	178
309.866	190
311.116	184
312.364	182
313.611	190
314.859	186
316.106	162
317.353	190
318.6	190
319.848	184
321.095	198
322.341	196
323.587	192
324.833	182
326.079	202
327.324	202
328.569	180
329.814	188
331.059	206
332.304	184
333.548	226
334.792	204
336.037	192
337.28	196
338.524	200
339.767	202
341.011	214
342.254	218
343.497	214
344.739	224
345.982	214
347.224	210
348.466	244
349.708	218
350.95	214
352.191	218
353.432	226
354.673	214
355.914	228
357.155	250
358.394	228
359.634	230
360.874	220
362.114	252
363.354	232
364.593	242
365.832	230
367.07	232
368.309	238
369.548	246
370.786	230
372.024	228
373.261	260
374.499	238
375.736	240
376.974	244
378.211	248
379.447	256
380.684	250
381.92	242
383.157	248
384.392	252
385.628	242
386.864	262
388.098	268
389.333	252
390.569	248
391.802	256
393.037	262
394.272	276
395.505	244
396.739	270
397.973	294
399.206	282
400.44	264
401.673	272
402.905	270
404.138	294
405.37	262
406.602	296
407.835	298
409.066	260
410.298	288
411.528	288
412.76	300
413.99	270
415.221	302
416.451	278
417.682	300
418.911	312
420.142	290
421.371	296
422.601	306
423.83	300
425.059	332
426.288	324
427.517	316
428.745	340
429.974	310
431.201	328
432.43	310
433.657	332
434.883	326
436.111	342
437.338	324
438.565	328
439.791	340
441.017	344
442.244	326
443.469	340
444.695	306
445.921	350
447.146	336
448.37	348
449.596	348
450.821	354
452.045	336
453.27	358
454.493	338
455.717	358
456.94	370
458.165	348
459.387	346
460.61	372
461.833	346
463.056	358
464.278	378
465.5	372
466.722	372
467.945	372
469.166	362
470.387	380
471.608	386
472.829	372
474.049	356
475.271	392
476.491	404
477.711	392
478.931	398
480.15	402
481.37	396
482.589	398
483.808	388
485.027	404
486.247	394
487.465	392
488.683	402
489.901	414
491.119	400
492.337	404
493.554	424
494.771	430
495.988	424
497.205	426
498.422	416
499.638	422
500.854	412
502.07	434
503.286	422
504.502	436
505.717	440
506.933	418
508.148	436
509.363	448
510.577	442
511.792	452
513.005	426
514.219	472
515.433	472
516.647	452
517.86	448
519.073	444
520.287	474
521.5	448
522.711	454
523.924	464
525.136	450
526.348	446
527.56	474
528.772	482
529.982	488
531.194	488
532.405	482
533.616	476
534.825	472
536.036	456
537.246	480
538.457	464
539.665	498
540.875	472
542.085	506
543.294	500
544.502	506
545.712	518
546.92	496
548.128	502
549.336	506
550.545	532
551.751	496
552.959	530
554.167	518
555.373	558
556.581	540
557.788	536
558.994	512
560.2	560
561.406	556
562.612	534
563.817	538
565.023	538
566.229	520
567.433	560
568.639	528
569.843	546
571.048	550
572.251	568
573.456	570
574.659	570
575.863	560
577.066	562
578.27	564
579.472	588
580.676	602
581.878	594
583.081	580
584.283	608
585.484	616
586.687	614
587.888	602
589.09	606
590.291	588
591.493	596
592.693	634
593.893	626
595.094	640
596.294	640
597.494	636
598.694	632
599.894	676
601.093	648
602.293	648
603.491	674
604.69	654
605.889	676
607.087	654
608.285	654
609.483	682
610.682	670
611.879	674
613.076	664
614.273	684
615.471	682
616.667	666
617.864	690
619.06	670
620.256	720
621.453	712
622.648	712
623.844	748
625.039	718
626.234	744
627.429	752
628.625	726
629.819	756
631.013	732
632.208	768
633.401	772
634.595	780
635.789	786
636.982	802
638.175	788
639.369	780
640.562	758
641.755	798
642.947	834
644.139	824
645.331	830
646.523	784
647.715	814
648.906	838
650.097	836
651.288	868
652.479	838
653.67	820
654.86	858
656.051	816
657.241	850
658.429	856
659.619	850
660.808	838
661.998	844
663.187	872
664.376	878
665.565	882
666.753	916
667.942	882
669.13	908
670.317	878
671.505	896
672.692	934
673.88	908
675.067	948
676.254	914
677.44	938
678.627	980
679.813	1002
681	972
682.184	948
683.37	956
684.556	944
685.742	980
686.926	964
688.111	972
689.296	1000
690.481	962
691.664	1012
692.849	1014
694.033	1018
695.216	1038
696.4	1012
697.584	1048
698.766	1068
699.949	1080
701.133	1040
702.314	1044
703.497	1056
704.678	1066
705.861	1026
707.043	1082
708.224	1094
709.406	1114
710.586	1118
711.768	1096
712.949	1134
714.129	1156
715.31	1144
716.489	1130
717.67	1144
718.849	1162
720.029	1180
721.208	1186
722.388	1178
723.566	1242
724.746	1194
725.924	1228
727.103	1206
728.28	1206
729.458	1212
730.636	1270
731.814	1216
732.992	1244
734.168	1238
735.345	1270
736.523	1278
737.699	1228
738.876	1272
740.052	1280
741.227	1294
742.404	1282
743.579	1318
744.754	1290
745.931	1310
747.105	1312
748.28	1286
749.455	1330
750.629	1362
751.803	1384
752.977	1342
754.152	1340
755.325	1390
756.499	1408
757.672	1428
758.846	1394
760.018	1418
761.191	1422
762.363	1470
763.535	1466
764.708	1422
765.88	1488
767.052	1452
768.223	1500
769.394	1454
770.565	1508
771.737	1506
772.908	1486
774.078	1492
775.249	1498
776.419	1512
777.589	1502
778.758	1528
779.928	1552
781.097	1594
782.266	1564
783.435	1610
784.604	1618
785.773	1604
786.941	1618
788.11	1606
789.278	1644
790.446	1672
791.613	1662
792.781	1672
793.948	1668
795.115	1716
796.282	1712
797.449	1718
798.616	1736
799.782	1736
800.948	1732
802.115	1780
803.28	1752
804.446	1818
805.612	1836
806.777	1832
807.941	1874
809.106	1842
810.271	1804
811.435	1896
812.6	1852
813.764	1854
814.927	1926
816.091	1916
817.254	1856
818.418	2024
819.581	1926
820.743	1964
821.906	1966
823.069	2012
824.232	2016
825.393	2020
826.555	1978
827.717	2084
828.879	2070
830.039	2106
831.201	2058
832.362	2044
833.522	2126
834.683	2084
835.844	2136
837.003	2112
838.164	2154
839.324	2186
840.483	2182
841.643	2190
842.801	2192
843.961	2238
845.12	2230
846.278	2306
847.437	2306
848.594	2294
849.753	2334
850.91	2272
852.069	2330
853.227	2364
854.383	2384
855.541	2346
856.697	2324
857.855	2404
859.011	2434
860.168	2390
861.323	2426
862.48	2402
863.635	2500
864.79	2462
865.946	2488
867.101	2536
868.257	2540
869.411	2574
870.567	2564
871.721	2604
872.874	2624
874.029	2598
875.183	2668
876.336	2572
877.49	2598
878.643	2560
879.796	2654
880.95	2682
882.102	2684
883.254	2692
884.407	2764
885.559	2704
886.711	2796
887.862	2694
889.015	2864
890.166	2750
891.317	2756
892.467	2798
893.619	2808
894.77	2814
895.92	2892
897.07	2842
898.221	2858
899.371	2956
900.52	2910
901.669	2942
902.819	2908
903.968	2908
905.116	2964
906.266	3000
907.415	3022
908.563	3018
909.711	2994
910.859	3012
912.007	3106
913.154	3074
914.301	3124
915.449	3180
916.596	3132
917.742	3128
918.889	3144
920.036	3194
921.183	3214
922.329	3230
923.475	3252
924.621	3230
925.765	3278
926.911	3338
928.056	3318
929.201	3348
930.346	3366
931.49	3290
932.635	3428
933.779	3394
934.924	3496
936.068	3464
937.211	3486
938.355	3498
939.498	3514
940.64	3500
941.784	3670
942.926	3470
944.069	3622
945.212	3598
946.354	3592
947.495	3722
948.637	3642
949.779	3604
950.921	3748
952.062	3804
953.202	3790
954.344	3720
955.484	3866
956.625	3832
957.765	3914
958.905	3830
960.045	3900
961.184	3906
962.324	3856
963.464	3944
964.604	3922
965.742	3934
966.881	3960
968.02	4000
969.158	4070
970.296	4028
971.434	4088
972.572	4116
973.71	4098
974.847	4130
975.985	4186
977.121	4226
978.259	4186
979.396	4246
980.532	4210
981.669	4226
982.804	4230
983.941	4336
985.076	4434
986.212	4384
987.347	4478
988.483	4402
989.617	4480
990.753	4390
991.887	4560
993.022	4434
994.156	4500
995.29	4512
996.424	4586
997.558	4466
998.692	4578
999.825	4596
1000.96	4566
1002.09	4700
1003.22	4678
1004.36	4714
1005.49	4678
1006.62	4728
1007.75	4826
1008.89	4792
1010.02	4856
1011.15	4824
1012.28	4912
1013.41	4850
1014.54	4998
1015.67	4970
1016.8	4918
1017.93	5020
1019.07	5016
1020.19	5086
1021.32	5116
1022.45	5074
1023.58	5092
1024.71	5132
1025.84	5088
1026.97	5126
1028.1	5182
1029.23	5280
1030.36	5308
1031.49	5308
1032.61	5392
1033.74	5358
1034.87	5432
1036	5384
1037.12	5528
1038.25	5526
1039.38	5480
1040.5	5588
1041.63	5632
1042.76	5586
1043.88	5616
1045.01	5658
1046.14	5774
1047.26	5710
1048.39	5678
1049.51	5686
1050.64	5730
1051.76	5814
1052.89	5880
1054.01	5918
1055.14	5894
1056.26	6018
1057.38	5998
1058.51	5984
1059.63	5990
1060.75	6142
1061.88	6109
1063	6076
1064.12	6164
1065.25	6218
1066.37	6142
1067.49	6316
1068.61	6302
1069.73	6264
1070.86	6322
1071.98	6316
1073.1	6300
1074.22	6356
1075.34	6294
1076.46	6316
1077.58	6402
1078.7	6390
1079.82	6378
1080.94	6438
1082.06	6408
1083.18	6498
1084.3	6524
1085.42	6560
1086.54	6464
1087.66	6580
1088.78	6656
1089.9	6604
1091.02	6682
1092.14	6690
1093.25	6640
1094.37	6702
1095.49	6780
1096.61	6840
1097.72	6756
1098.84	6802
1099.96	6778
1101.08	6766
1102.19	6898
1103.31	6924
1104.43	6890
1105.54	6918
1106.66	6916
1107.77	7048
1108.89	7038
1110	7054
1111.12	6890
1112.23	6958
1113.35	6984
1114.46	7172
1115.58	7148
1116.69	7080
1117.81	7174
1118.92	7108
1120.03	7132
1121.15	7212
1122.26	7276
1123.37	7118
1124.49	7388
1125.6	7422
1126.71	7214
1127.83	7332
1128.94	7346
1130.05	7380
1131.16	7350
1132.27	7456
1133.39	7476
1134.5	7512
1135.61	7476
1136.72	7504
1137.83	7502
1138.94	7574
1140.05	7466
1141.16	7624
1142.27	7642
1143.38	7688
1144.49	7714
1145.6	7678
1146.71	7734
1147.82	7730
1148.93	7812
1150.04	7636
1151.15	7714
1152.26	7748
1153.36	7886
1154.47	7882
1155.58	7986
1156.69	7814
1157.8	7954
1158.9	7860
1160.01	7964
1161.12	8008
1162.22	8014
1163.33	7870
1164.44	8004
1165.54	7938
1166.65	7968
1167.76	8124
1168.86	8058
1169.97	8146
1171.07	8026
1172.18	8116
1173.28	7930
1174.39	8050
1175.49	8004
1176.6	8102
1177.7	8008
1178.81	8038
1179.91	8008
1181.02	8034
1182.12	8042
1183.22	8130
1184.33	8152
1185.43	8128
1186.53	8154
1187.63	8004
1188.74	8024
1189.84	8068
1190.94	7948
1192.04	8080
1193.15	8000
1194.25	8100
1195.35	8012
1196.45	8078
1197.55	8028
1198.65	7966
1199.75	8052
1200.85	8014
1201.95	7988
1203.05	7982
1204.16	7958
1205.25	7838
1206.35	7894
1207.45	7870
1208.55	7926
1209.65	7972
1210.75	7880
1211.85	7906
1212.95	7766
1214.05	7926
1215.15	7758
1216.24	7840
1217.34	7770
1218.44	7736
1219.54	7776
1220.64	7854
1221.73	7858
1222.83	7788
1223.93	7718
1225.02	7622
1226.12	7714
1227.22	7776
1228.31	7750
1229.41	7586
1230.5	7674
1231.6	7608
1232.7	7632
1233.79	7608
1234.89	7638
1235.98	7602
1237.08	7560
1238.17	7502
1239.26	7616
1240.36	7562
1241.45	7452
1242.55	7548
1243.64	7512
1244.73	7408
1245.83	7458
1246.92	7450
1248.01	7550
1249.11	7366
1250.2	7324
1251.29	7396
1252.38	7402
1253.48	7336
1254.57	7336
1255.66	7274
1256.75	7294
1257.84	7434
1258.93	7390
1260.03	7322
1261.12	7190
1262.21	7166
1263.3	7138
1264.39	7236
1265.48	7266
1266.57	7140
1267.66	7170
1268.75	7026
1269.84	7110
1270.93	7118
1272.02	7066
1273.11	7072
1274.19	7024
1275.28	7094
1276.37	6988
1277.46	6882
1278.55	6986
1279.64	6972
1280.72	6838
1281.81	6952
1282.9	6830
1283.98	6801.06
1285.07	6812.45
1286.16	6798.27
1287.25	6838.23
1288.33	6728.78
1289.42	6602.08
1290.5	6724.58
1291.59	6735.84
1292.68	6630.21
1293.76	6587.12
1294.85	6615.13
1295.93	6619.09
1297.02	6556.24
1298.1	6496.67
1299.19	6516.56
1300.27	6462.58
1301.36	6498.42
1302.44	6409.27
1303.53	6363.65
1304.61	6387.28
1305.69	6268.81
1306.78	6287.9
1307.86	6306
1308.94	6341.87
1310.03	6200.55
1311.11	6106.31
1312.19	6216.54
1313.27	6129.54
1314.36	6170.1
1315.44	6082.63
1316.52	6048.24
1317.6	6039.71
1318.68	5944.76
1319.77	5950.48
1320.85	5974.67
1321.93	5955.33
1323.01	5902.57
1324.09	5847.6
1325.17	5828.69
1326.25	5784.08
1327.33	5782.58
1328.41	5737.98
1329.49	5731.56
1330.57	5735.94
1331.65	5706.53
1332.73	5616.12
1333.81	5670.93
1334.89	5635.78
1335.97	5552.65
1337.04	5559.91
1338.12	5516.36
1339.2	5545.97
1340.28	5485.41
1341.36	5540.17
1342.44	5482.55
1343.51	5410.49
1344.59	5352.99
1345.67	5392.82
1346.75	5308.23
1347.82	5334.57
1348.9	5315.54
1349.98	5288.14
1351.05	5216.77
1352.13	5228.68
1353.2	5174.59
1354.28	5100.31
1355.36	5163.99
1356.43	5136.06
1357.51	5108.63
1358.58	5089.8
1359.66	5044.01
1360.73	4983.6
1361.81	5005.93
1362.88	5016.96
1363.96	4970.91
1365.03	4930.48
1366.1	4913.78
1367.18	4872.55
1368.25	4966.56
1369.33	4799.75
1370.4	4865.19
1371.47	4857.32
1372.54	4822.95
1373.62	4803.07
1374.69	4805.57
1375.76	4748.77
1376.83	4813.95
1377.91	4705.15
1378.98	4752.79
1380.05	4744.37
1381.12	4588.16
1382.19	4613.96
1383.26	4676.12
1384.34	4648.23
1385.41	4591.11
1386.48	4593.69
1387.55	4551.38
1388.62	4537.28
1389.69	4502.8
1390.76	4479.5
1391.83	4453.49
1392.9	4425.8
1393.02	4422
1394.1	4480
1395.17	4362
1396.25	4380
1397.32	4360
1398.4	4384
1399.47	4372
1400.55	4446
1401.62	4266
1402.69	4344
1403.77	4292
1404.84	4214
1405.91	4254
1406.99	4252
1408.06	4156
1409.13	4238
1410.2	4140
1411.27	4142
1412.35	4122
1413.42	4148
1414.49	4106
1415.56	4012
1416.63	4038
1417.7	4026
1418.78	4054
1419.85	3978
1420.92	3926
1421.99	4020
1423.06	3974
1424.13	4022
1425.2	4022
1426.27	3846
1427.34	3912
1428.41	3890
1429.48	3874
1430.55	3974
1431.61	3848
1432.68	3886
1433.75	3870
1434.82	3854
1435.89	3752
1436.96	3832
1438.02	3780
1439.09	3798
1440.16	3886
1441.23	3804
1442.3	3802
1443.36	3758
1444.43	3728
1445.5	3788
1446.56	3728
1447.63	3700
1448.7	3716
1449.76	3672
1450.83	3748
1451.89	3706
1452.96	3674
1454.02	3616
1455.09	3654
1456.15	3682
1457.22	3682
1458.28	3622
1459.35	3582
1460.41	3560
1461.48	3570
1462.54	3584
1463.61	3590
1464.67	3532
1465.73	3510
1466.8	3540
1467.86	3526
1468.92	3524
1469.98	3516
1471.05	3442
1472.11	3534
1473.17	3486
1474.24	3468
1475.3	3534
1476.36	3468
1477.42	3414
1478.48	3432
1479.54	3432
1480.6	3388
1481.67	3480
1482.73	3442
1483.79	3412
1484.85	3412
1485.91	3392
1486.97	3404
1488.03	3394
1489.09	3384
1490.15	3314
1491.21	3332
1492.27	3322
1493.33	3316
1494.38	3324
1495.44	3310
1496.5	3270
1497.56	3228
1498.62	3196
1499.68	3300
1500.74	3270
1501.79	3236
1502.85	3274
1503.91	3216
1504.97	3200
1506.02	3246
1507.08	3200
1508.14	3160
1509.2	3200
1510.25	3152
1511.31	3232
1512.36	3092
1513.42	3080
1514.48	3146
1515.53	3082
1516.59	3168
1517.64	3070
1518.7	3118
1519.75	3122
1520.81	3086
1521.86	3098
1522.92	3048
1523.97	3090
1525.02	3036
1526.08	2984
1527.13	3026
1528.19	3030
1529.24	2976
1530.29	3020
1531.35	3026
1532.4	2956
1533.45	2964
1534.51	2950
1535.56	2940
1536.61	2948
1537.66	2858
1538.72	2946
1539.77	2950
1540.82	2938
1541.87	2914
1542.92	2958
1543.97	2842
1545.02	2946
1546.08	2932
1547.13	2796
1548.18	2800
1549.23	2846
1550.28	2878
1551.33	2864
1552.38	2812
1553.43	2856
1554.48	2864
1555.53	2836
1556.57	2836
1557.62	2844
1558.67	2782
1559.72	2790
1560.77	2818
1561.82	2728
1562.87	2714
1563.92	2746
1564.96	2792
1566.01	2720
1567.06	2770
1568.11	2668
1569.15	2734
1570.2	2748
1571.25	2768
1572.29	2678
1573.34	2794
1574.39	2690
1575.43	2670
1576.48	2674
1577.53	2654
1578.57	2696
1579.62	2650
1580.66	2640
1581.71	2652
1582.75	2676
1583.8	2680
1584.84	2638
1585.89	2740
1586.93	2618
1587.98	2608
1589.02	2596
1590.06	2630
1591.11	2684
1592.15	2642
1593.2	2602
1594.24	2618
1595.28	2558
1596.33	2564
1597.37	2600
1598.41	2522
1599.45	2606
1600.5	2640
1601.54	2634
1602.58	2612
1603.62	2588
1604.66	2648
1605.7	2608
1606.75	2562
1607.79	2576
1608.83	2602
1609.87	2580
1610.91	2580
1611.95	2524
1612.99	2620
1614.03	2564
1615.07	2544
1616.11	2604
1617.15	2528
1618.19	2516
1619.23	2562
1620.27	2558
1621.31	2548
1622.35	2568
1623.39	2530
1624.43	2584
1625.46	2480
1626.5	2544
1627.54	2492
1628.58	2500
1629.62	2494
1630.65	2572
1631.69	2460
1632.73	2526
1633.77	2434
1634.8	2416
1635.84	2554
1636.88	2518
1637.91	2448
1638.95	2442
1639.99	2428
1641.02	2480
1642.06	2436
1643.09	2398
1644.13	2500
1645.16	2510
1646.2	2430
1647.23	2446
1648.27	2432
1649.3	2490
1650.34	2396
1651.37	2390
1652.41	2448
1653.44	2456
1654.47	2486
1655.51	2444
1656.54	2408
1657.57	2458
1658.61	2384
1659.64	2382
1660.67	2398
1661.71	2416
1662.74	2386
1663.77	2358
1664.81	2320
1665.84	2342
1666.87	2378
1667.9	2416
1668.93	2394
1669.96	2374
1671	2358
1672.03	2376
1673.06	2404
1674.09	2336
1675.12	2322
1676.15	2336
1677.18	2356
1678.21	2328
1679.24	2306
1680.27	2288
1681.3	2346
1682.33	2372
1683.36	2262
1684.39	2302
1685.42	2372
1686.45	2344
1687.47	2292
1688.5	2276
1689.53	2308
1690.56	2242
1691.59	2254
1692.62	2328
1693.64	2352
1694.67	2320
1695.7	2332
1696.73	2306
1697.75	2262
1698.78	2252
1699.81	2282
1700.83	2286
1701.86	2290
1702.89	2276
1703.91	2282
1704.94	2236
1705.97	2256
1706.99	2250
1708.02	2228
1709.04	2262
1710.07	2246
1711.09	2244
1712.12	2270
1713.14	2240
1714.17	2196
1715.19	2266
1716.22	2196
1717.24	2200
1718.26	2232
1719.29	2220
1720.31	2226
1721.33	2168
1722.36	2232
1723.38	2226
1724.4	2224
1725.43	2164
1726.45	2252
1727.47	2224
1728.49	2192
1729.52	2196
1730.54	2248
1731.56	2238
1732.58	2180
1733.6	2214
1734.63	2208
1735.65	2228
1736.67	2222
1737.69	2194
1738.71	2222
1739.73	2182
1740.75	2234
1741.77	2166
1742.79	2192
1743.81	2120
1744.83	2170
1745.85	2222
1746.87	2172
1747.89	2178
1748.91	2176
1749.93	2228
1750.95	2216
1751.97	2208
1752.98	2150
1754	2132
1755.02	2166
1756.04	2188
1757.06	2182
1758.07	2142
1759.09	2220
1760.11	2158
1761.13	2174
1762.14	2170
1763.16	2206
1764.18	2196
1765.19	2128
1766.21	2210
1767.23	2210
1768.24	2140
1769.26	2190
1770.28	2216
1771.29	2174
1772.31	2158
1773.32	2190
1774.34	2154
1775.35	2174
1776.37	2160
1777.38	2104
1778.4	2170
1779.41	2138
1780.43	2152
1781.44	2166
1782.45	2222
1783.47	2204
1784.48	2156
1785.49	2188
1786.51	2094
1787.52	2190
1788.53	2168
1789.55	2176
1790.56	2176
1791.57	2158
1792.58	2126
1793.6	2146
1794.61	2066
1795.62	2134
1796.63	2166
1797.64	2170
1798.66	2172
1799.67	2132
1800.68	2122
1801.69	2186
1802.7	2146
1803.71	2130
1804.72	2180
1805.73	2212
1806.74	2140
1807.75	2128
1808.76	2130
1809.77	2122
1810.78	2176
1811.79	2148
1812.8	2164
1813.81	2132
1814.82	2170
1815.83	2164
1816.84	2164
1817.84	2138
1818.85	2124
1819.86	2150
1820.87	2124
1821.88	2112
1822.88	2132
1823.89	2102
1824.9	2166
1825.91	2118
1826.91	2100
1827.92	2132
1828.93	2070
1829.93	2112
1830.94	2102
1831.95	2134
1832.95	2096
1833.96	2130
1834.97	2118
1835.97	2094
1836.98	2064
1837.98	2088
1838.99	2118
1839.99	2094
1841	2114
1842	2088
1843.01	2082
1844.01	2102
1845.02	2168
1846.02	2106
1847.02	2118
1848.03	2084
1849.03	2080
1850.03	2136
1851.04	2044
1852.04	2084
1853.04	2116
1854.05	2070
1855.05	2060
1856.05	2068
1857.05	2038
1858.06	2058
1859.06	2104
1860.06	2078
1861.06	2100
1862.06	2072
1863.07	2052
1864.07	2106
1865.07	2100
1866.07	2070
1867.07	2104
1868.07	2114
1869.07	2118
1870.07	2042
1871.07	2100
1872.07	2114
1873.07	2074
1874.07	2030
1875.07	2058
1876.07	2076
1877.07	2094
1878.07	2086
1879.07	2086
1880.07	2092
1881.07	2060
1882.07	2052
1883.06	2086
1884.06	2104
1885.06	2108
1886.06	2046
1887.06	2112
1888.05	2090
1889.05	2032
1890.05	2038
1891.05	2064
1892.04	2106
1893.04	2106
1894.04	2126
1895.03	2106
1896.03	2112
1897.03	2010
1898.02	2082
1899.02	2024
1900.01	2088
1901.01	2128
1902	2126
1903	2066
1903.99	2030
1904.99	2108
1905.98	2078
1906.98	2056
1907.97	2088
1908.97	2064
1909.96	2034
1910.96	2092
1911.95	2094
1912.94	2060
1913.94	2044
1914.93	2030
1915.93	2024
1916.92	2096
1917.91	2048
1918.9	2088
1919.9	2058
1920.89	1972
1921.88	2036
1922.87	2084
1923.87	2080
1924.86	2070
1925.85	2054
1926.84	2070
1927.83	2040
1928.82	2062
1929.82	2060
1930.81	2060
1931.8	2074
1932.79	2048
1933.78	2036
1934.77	2094
1935.76	2064
1936.75	2040
1937.74	2096
1938.73	2058
1939.72	2026
1940.71	2002
1941.7	2058
1942.69	2058
1943.68	2114
1944.67	2066
1945.65	2062
1946.64	1996
1947.63	2058
1948.62	2056
1949.61	2014
1950.6	2074
1951.58	2100
1952.57	2034
1953.56	2060
1954.55	2056
1955.53	2034
1956.52	2032
1957.51	2066
1958.5	2022
1959.48	2090
1960.47	2102
1961.45	2048
1962.44	2052
1963.43	2014
1964.41	2044
1965.4	2000
1966.38	2074
1967.37	2074
1968.35	2054
1969.34	2006
1970.32	2050
1971.31	2060
1972.29	2090
1973.28	2028
1974.26	2016
1975.25	2008
1976.23	2006
1977.22	2026
1978.2	2076
1979.18	2018
1980.17	2048
1981.15	2056
1982.13	2036
1983.12	2018
1984.1	2046
1985.08	2006
1986.06	2028
1987.05	2110
1988.03	2014
1989.01	1970
1989.99	2008
1990.97	2032
1991.96	2014
1992.94	1926
1993.92	2086
1994.9	2072
1995.88	1954
1996.86	2062
1997.84	1970
1998.82	1982
1999.8	1954
2000.78	2044
2001.76	2002
2002.74	2044
2003.72	1988
2004.7	2034
2005.68	2044
2006.66	1988
2007.64	2010
2008.62	2028
2009.6	2064
2010.58	2012
2011.56	2006
2012.54	2002
2013.51	1994
2014.49	1992
2015.47	1968
2016.45	2070
2017.43	2018
2018.4	2016
2019.38	2028
2020.36	2008
2021.34	2030
2022.31	2000
2023.29	1998
2024.27	1950
2025.24	1998
2026.22	2002
2027.2	2008
2028.17	1996
2029.15	1984
2030.12	2018
2031.1	2016
2032.07	1998
2033.05	2018
2034.03	2046
2035	1932
2035.98	1966
2036.95	2026
2037.93	1994
2038.9	1988
2039.87	2010
2040.85	1958
2041.82	1988
2042.8	2000
2043.77	1988
2044.74	1974
2045.72	2004
2046.69	1986
2047.66	1968
2048.64	2002
2049.61	1986
2050.58	2056
2051.55	1992
2052.53	1970
2053.5	2024
2054.47	1956
2055.44	1956
2056.41	1982
2057.39	1992
2058.36	2002
2059.33	2004
2060.3	1954
2061.27	1986
2062.24	2056
2063.21	2008
2064.18	1980
2065.15	1980
2066.12	1974
2067.09	1960
2068.06	1992
2069.03	1946
2070	1974
2070.97	1926
2071.94	1990
2072.91	1956
2073.88	2000
2074.85	1994
2075.82	1986
2076.79	2024
2077.76	1904
2078.73	1994
2079.69	1954
2080.66	2002
2081.63	1968
2082.6	1962
2083.56	1966
2084.53	1928
2085.5	2030
2086.47	2002
2087.43	1994
2088.4	1908
2089.37	1946
2090.33	1964
2091.3	1968
2092.27	2000
2093.23	1946
2094.2	1958
2095.17	1948
2096.13	1958
2097.1	1948
2098.06	1968
2099.03	1990
2099.99	1952
2100.96	1972
2101.92	1946
2102.89	1966
2103.85	1958
2104.82	1972
2105.78	1946
2106.74	1970
2107.71	1970
2108.67	1972
2109.64	1934
2110.6	1906
2111.56	2004
2112.53	1974
2113.49	1940
2114.45	1956
2115.41	1938
2116.38	1972
2117.34	1980
2118.3	1936
2119.26	1928
2120.23	1908
2121.19	1930
2122.15	1956
2123.11	1944
2124.07	1936
2125.03	1926
2126	1912
2126.96	1966
2127.92	1984
2128.88	1968
2129.84	1908
2130.8	1928
2131.76	1936
2132.72	1950
2133.68	1928
2134.64	1972
2135.6	1962
2136.56	1892
2137.52	1934
2138.48	1946
2139.44	1922
2140.4	1960
2141.35	1952
2142.31	1908
2143.27	1938
2144.23	1940
2145.19	1944
2146.15	1892
2147.1	1910
2148.06	1944
2149.02	1910
2149.98	1922
2150.94	1940
2151.89	1904
2152.85	1882
2153.81	1912
2154.76	1932
2155.72	1898
2156.68	1992
2157.63	1888
2158.59	1888
2159.55	1948
2160.5	1906
2161.46	1870
2162.41	1902
2163.37	1900
2164.32	1900
2165.28	1896
2166.23	1910
2167.19	1882
2168.14	1924
2169.1	1876
2170.05	1932
2171.01	1940
2171.96	1902
2172.91	1914
2173.87	1934
2174.82	1912
2175.78	1912
2176.73	1810
2177.68	1870
2178.64	1882
2179.59	1902
2180.54	1886
2181.49	1906
2182.45	1896
2183.4	1858
2184.35	1898
2185.3	1886
2186.26	1908
2187.21	1834
2188.16	1894
2189.11	1872
2190.06	1894
2191.01	1872
2191.96	1884
2192.92	1892
2193.87	1894
2194.82	1858
2195.77	1914
2196.72	1870
2197.67	1846
2198.62	1850
2199.57	1838
2200.52	1880
2201.47	1862
2202.42	1850
2203.37	1824
2204.32	1866
2205.27	1864
2206.22	1830
2207.16	1802
2208.11	1856
2209.06	1868
2210.01	1902
2210.96	1862
2211.91	1838
2212.85	1846
2213.8	1836
2214.75	1848
2215.7	1850
2216.64	1850
2217.59	1820
2218.54	1806
2219.49	1842
2220.43	1836
2221.38	1824
2222.33	1860
2223.27	1883.62
2224.22	1872.53
2225.16	1868.59
2226.11	1818.87
2227.06	1817.89
2228	1855.15
2228.95	1802.54
2229.89	1818.13
2230.84	1805.94
2231.78	1809.65
2232.73	1810.86
2233.67	1823.86
2234.62	1836.75
2235.56	1846.99
2236.51	1804.02
2237.45	1781.96
2238.4	1791.32
2239.34	1868.76
2240.28	1834.61
2241.23	1817.78
2242.17	1857.28
2243.11	1822.01
2244.06	1852.83
2245	1808.76
2245.94	1829.12
2246.89	1789.25
2247.83	1827.81
2248.77	1817.13
2249.71	1799.94
2250.66	1810.78
2251.6	1818.28
2252.54	1819.42
2253.48	1803.89
2254.42	1801.62
2255.37	1774.96
2256.31	1795.67
2257.25	1798.24
2258.19	1806.49
2259.13	1806.61
2260.07	1791.86
2261.01	1787.28
2261.95	1809.31
2262.89	1775.18
2263.83	1797.23
2264.77	1771.39
2265.71	1791.29
2266.65	1792.11
2267.59	1764.9
2268.53	1795.86
2269.47	1790.23
2270.41	1794.8
2271.35	1811.95
2272.29	1780.73
2273.23	1763.58
2274.17	1769.45
2275.1	1780.02
2276.04	1772.87
2276.98	1782.76
2277.92	1781.67
2278.86	1780
2279.8	1770.43
2280.73	1745.73
2281.67	1759.32
2282.61	1745.34
2283.55	1759.97
2284.48	1747.11
2285.42	1766.64
2286.36	1749.51
2287.29	1750.01
2288.23	1741.19
2289.17	1754.88
2290.1	1730.38
2291.04	1759.3
2291.98	1756.62
2292.91	1742.98
2293.85	1708.2
2294.78	1721.68
2295.72	1733.64
2296.65	1724.34
2297.59	1729.26
2298.52	1747.05
2299.46	1727.35
2300.39	1733.21
2301.33	1735.19
2302.26	1750.01
2303.2	1720.06
2304.13	1687.09
2305.06	1675
2306	1703.67
2306.93	1712.22
2307.87	1660.65
2308.8	1685.68
2309.73	1694.2
2310.67	1671.71
2311.6	1707.55
2312.53	1720.34
2313.46	1688.56
2314.4	1704.21
2315.33	1699.75
2316.26	1660.9
2316.69	1648
2317.62	1706
2318.56	1696
2319.5	1708
2320.43	1706
2321.37	1728
2322.31	1690
2323.24	1678
2324.18	1692
2325.12	1648
2326.05	1658
2326.99	1678
2327.92	1656
2328.86	1656
2329.79	1668
2330.73	1680
2331.66	1674
2332.6	1660
2333.53	1600
2334.47	1648
2335.4	1636
2336.34	1628
2337.27	1604
2338.2	1668
2339.14	1654
2340.07	1656
2341.01	1690
2341.94	1708
2342.87	1604
2343.81	1608
2344.74	1642
2345.67	1658
2346.6	1626
2347.54	1660
2348.47	1660
2349.4	1636
2350.33	1644
2351.27	1586
2352.2	1648
2353.13	1640
2354.06	1596
2354.99	1638
2355.93	1642
2356.86	1594
2357.79	1616
2358.72	1598
2359.65	1632
2360.58	1604
2361.51	1582
2362.44	1550
2363.37	1616
2364.3	1596
2365.23	1602
2366.16	1596
2367.09	1606
2368.02	1578
2368.95	1580
2369.88	1572
2370.81	1560
2371.74	1562
2372.67	1604
2373.6	1602
2374.52	1560
2375.45	1582
2376.38	1566
2377.31	1580
2378.24	1620
2379.17	1528
2380.09	1536
2381.02	1592
2381.95	1626
2382.88	1592
2383.8	1546
2384.73	1552
2385.66	1498
2386.58	1582
2387.51	1556
2388.44	1558
2389.36	1548
2390.29	1508
2391.22	1516
2392.14	1486
2393.07	1534
2393.99	1538
2394.92	1548
2395.85	1508
2396.77	1474
2397.7	1556
2398.62	1544
2399.55	1530
2400.47	1520
2401.4	1498
2402.32	1500
2403.25	1462
2404.17	1476
2405.09	1480
2406.02	1494
2406.94	1464
2407.86	1488
2408.79	1482
2409.71	1488
2410.63	1488
2411.56	1496
2412.48	1478
2413.4	1424
2414.33	1500
2415.25	1510
2416.17	1484
2417.09	1464
2418.02	1454
2418.94	1480
2419.86	1466
2420.78	1468
2421.7	1432
2422.63	1410
2423.55	1446
2424.47	1458
2425.39	1444
2426.31	1440
2427.23	1404
2428.15	1432
2429.07	1438
2429.99	1424
2430.91	1388
2431.83	1430
2432.75	1398
2433.67	1408
2434.59	1394
2435.51	1360
2436.43	1424
2437.35	1444
2438.27	1384
2439.19	1394
2440.11	1392
2441.03	1424
2441.95	1410
2442.86	1408
2443.78	1372
2444.7	1334
2445.62	1388
2446.54	1386
2447.46	1404
2448.37	1388
2449.29	1366
2450.21	1342
2451.13	1386
2452.04	1388
2452.96	1356
2453.88	1384
2454.79	1360
2455.71	1310
2456.63	1354
2457.54	1348
2458.46	1354
2459.38	1366
2460.29	1336
2461.21	1330
2462.12	1292
2463.04	1340
2463.95	1340
2464.87	1330
2465.78	1340
2466.7	1340
2467.61	1330
2468.53	1334
2469.44	1292
2470.36	1330
2471.27	1284
2472.19	1316
2473.1	1310
2474.01	1276
2474.93	1314
2475.84	1274
2476.76	1280
2477.67	1316
2478.58	1266
2479.5	1318
2480.41	1260
2481.32	1268
2482.23	1254
2483.15	1248
2484.06	1284
2484.97	1272
2485.88	1252
2486.8	1250
2487.71	1236
2488.62	1280
2489.53	1266
2490.44	1268
2491.35	1286
2492.26	1234
2493.18	1234
2494.09	1250
2495	1226
2495.91	1226
2496.82	1248
2497.73	1210
2498.64	1192
2499.55	1196
2500.46	1192
2501.37	1186
2502.28	1196
2503.19	1174
2504.1	1176
2505.01	1228
2505.92	1196
2506.83	1122
2507.74	1194
2508.65	1152
2509.55	1250
2510.46	1148
2511.37	1188
2512.28	1180
2513.19	1182
2514.09	1190
2515	1138
2515.91	1160
2516.82	1156
2517.73	1154
2518.63	1120
2519.54	1172
2520.45	1142
2521.35	1130
2522.26	1170
2523.17	1148
2524.07	1140
2524.98	1138
2525.89	1136
2526.79	1134
2527.7	1106
2528.6	1152
2529.51	1124
2530.42	1184
2531.32	1140
2532.23	1126
2533.13	1106
2534.04	1064
2534.94	1112
2535.85	1106
2536.75	1126
2537.66	1116
2538.56	1106
2539.47	1082
2540.37	1114
2541.27	1080
2542.18	1118
2543.08	1068
2543.98	1084
2544.89	1108
2545.79	1056
2546.7	1082
2547.6	1068
2548.5	1072
2549.4	1074
2550.31	1080
2551.21	1070
2552.11	1092
2553.01	1034
2553.92	1084
2554.82	1052
2555.72	1034
2556.62	1054
2557.52	1056
2558.42	1016
2559.33	1044
2560.23	1042
2561.13	1042
2562.03	1084
2562.93	1008
2563.83	1016
2564.73	1046
2565.63	998
2566.53	1034
2567.43	1000
2568.33	1048
2569.23	1002
2570.13	1012
2571.03	1048
2571.93	1010
2572.83	966
2573.73	1008
2574.63	994
2575.53	1016
2576.43	990
2577.33	980
2578.22	1004
2579.12	970
2580.02	982
2580.92	1000
2581.82	968
2582.72	992
2583.61	956
2584.51	996
2585.41	964
2586.31	968
2587.2	970
2588.1	950
2589	950
2589.89	956
2590.79	958
2591.69	978
2592.58	956
2593.48	930
2594.38	914
2595.27	942
2596.17	932
2597.06	924
2597.96	944
2598.86	938
2599.75	910
2600.65	908
2601.54	936
2602.44	910
2603.33	926
2604.23	912
2605.12	926
2606.02	922
2606.91	898
2607.81	894
2608.7	914
2609.59	910
2610.49	872
2611.38	912
2612.27	892
2613.17	872
2614.06	900
2614.95	878
2615.85	916
2616.74	892
2617.63	914
2618.53	882
2619.42	890
2620.31	912
2621.2	890
2622.1	858
2622.99	896
2623.88	888
2624.77	854
2625.66	876
2626.55	862
2627.45	832
2628.34	860
2629.23	866
2630.12	866
2631.01	838
2631.9	842
2632.79	828
2633.68	872
2634.57	886
2635.46	818
2636.35	822
2637.24	856
2638.13	812
2639.02	830
2639.91	824
2640.8	848
2641.69	796
2642.58	814
2643.47	818
2644.36	802
2645.25	826
2646.14	846
2647.02	824
2647.91	824
2648.8	822
2649.69	806
2650.58	794
2651.46	836
2652.35	812
2653.24	824
2654.13	808
2655.01	810
2655.9	814
2656.79	778
2657.68	786
2658.56	794
2659.45	766
2660.34	784
2661.22	806
2662.11	772
2662.99	794
2663.88	818
2664.77	796
2665.65	772
2666.54	800
2667.42	766
2668.31	760
2669.2	792
2670.08	752
2670.96	778
2671.85	788
2672.73	786
2673.62	774
2674.5	762
2675.39	774
2676.27	724
2677.16	738
2678.04	760
2678.93	762
2679.81	790
2680.69	758
2681.58	760
2682.46	736
2683.34	758
2684.23	722
2685.11	756
2685.99	752
2686.87	744
2687.76	734
2688.64	730
2689.52	724
2690.4	734
2691.28	726
2692.17	752
2693.05	720
2693.93	720
2694.81	716
2695.69	720
2696.57	714
2697.46	742
2698.34	710
2699.22	694
2700.1	708
2700.98	718
2701.86	724
2702.74	670
2703.62	708
2704.5	724
2705.38	698
2706.26	708
2707.14	698
2708.02	684
2708.9	680
2709.78	666
2710.66	684
2711.54	674
2712.42	670
2713.3	698
2714.17	674
2715.05	684
2715.93	704
2716.81	646
2717.69	698
2718.57	686
2719.44	676
2720.32	650
2721.2	636
2722.08	630
2722.95	668
2723.83	656
2724.71	636
2725.59	638
2726.46	616
2727.34	642
2728.22	674
2729.09	662
2729.97	632
2730.85	638
2731.72	636
2732.6	646
2733.47	656
2734.35	638
2735.23	606
2736.1	590
2736.98	632
2737.85	610
2738.73	616
2739.6	574
2740.48	634
2741.35	594
2742.23	598
2743.1	614
2743.98	614
2744.85	596
2745.72	598
2746.6	602
2747.47	620
2748.35	594
2749.22	600
2750.09	594
2750.97	586
2751.84	574
2752.71	592
2753.59	580
2754.46	602
2755.33	612
2756.2	572
2757.08	590
2757.95	594
2758.82	590
2759.69	598
2760.57	598
2761.44	548
2762.31	584
2763.18	590
2764.05	602
2764.92	598
2765.79	546
2766.67	566
2767.54	556
2768.41	578
2769.28	570
2770.15	536
2771.02	546
2771.89	554
2772.76	566
2773.63	548
2774.5	542
2775.37	552
2776.24	538
2777.11	544
2777.98	542
2778.85	560
2779.72	526
2780.59	572
2781.46	530
2782.32	550
2783.19	530
2784.06	538
2784.93	526
2785.8	534
2786.67	550
2787.53	514
2788.4	514
2789.27	516
2790.14	526
2791.01	544
2791.87	554
2792.74	544
2793.61	526
2794.47	538
2795.34	504
2796.21	518
2797.07	480
2797.94	536
2798.81	512
2799.67	516
2800.54	490
2801.41	486
2802.27	536
2803.14	496
2804	496
2804.87	490
2805.74	506
2806.6	490
2807.47	504
2808.33	490
2809.2	510
2810.06	490
2810.93	470
2811.79	490
2812.65	486
2813.52	474
2814.38	470
2815.25	484
2816.11	470
2816.98	464
2817.84	468
2818.7	472
2819.56	468
2820.43	468
2821.29	460
2822.16	486
2823.02	446
2823.88	500
2824.74	466
2825.61	444
2826.47	466
2827.33	450
2828.19	466
2829.05	458
2829.92	448
2830.78	440
2831.64	458
2832.5	440
2833.36	478
2834.23	430
2835.09	444
2835.95	454
2836.81	434
2837.67	418
2838.53	432
2839.39	442
2840.25	444
2841.11	422
2841.97	450
2842.83	444
2843.69	406
2844.55	416
2845.41	422
2846.27	398
2847.13	428
2847.99	420
2848.85	406
2849.71	402
2850.57	404
2851.43	424
2852.28	428
2853.14	406
2854	436
2854.86	438
2855.72	416
2856.58	412
2857.43	396
2858.29	410
2859.15	392
2860.01	394
2860.86	410
2861.72	392
2862.58	398
2863.44	378
2864.29	396
2865.15	404
2866.01	410
2866.86	410
2867.72	412
2868.58	386
2869.43	372
2870.29	388
2871.14	382
2872	382
2872.86	382
2873.71	379
2874.57	376
2875.42	388
2876.28	382
2877.13	384
2877.99	378
2878.84	364
2879.7	368
2880.55	376
2881.41	380
2882.26	378
2883.11	376
2883.97	384
2884.82	362
2885.68	360
2886.53	358
2887.39	374
2888.24	354
2889.09	342
2889.94	364
2890.8	370
2891.65	346
2892.5	386
2893.36	364
2894.21	346
2895.06	360
2895.91	368
2896.77	366
2897.62	362
2898.47	368
2899.32	362
2900.17	334
2901.03	324
2901.88	358
2902.73	332
2903.58	346
2904.43	334
2905.28	368
2906.13	346
2906.98	354
2907.84	326
2908.69	354
2909.54	366
2910.39	350
2911.24	326
2912.09	340
2912.94	338
2913.79	326
2914.64	342
2915.49	354
2916.34	346
2917.19	332
2918.03	324
2918.88	314
2919.73	328
2920.58	332
2921.43	340
2922.28	318
2923.13	340
2923.98	342
2924.82	340
2925.67	318
2926.52	320
2927.37	330
2928.22	322
2929.06	308
2929.91	328
2930.76	320
2931.61	340
2932.45	308
2933.3	322
2934.15	294
2934.99	328
2935.84	302
2936.69	322
2937.53	324
2938.38	284
2939.23	314
2940.07	300
2940.92	312
2941.76	318
2942.61	282
2943.46	304
2944.3	320
2945.15	324
2945.99	324
2946.84	294
2947.68	308
2948.53	308
2949.37	298
2950.22	296
2951.06	314
2951.9	304
2952.75	284
2953.59	292
2954.44	306
2955.28	284
2956.12	292
2956.97	296
2957.81	298
2958.65	288
2959.5	310
2960.34	276
2961.18	280
2962.03	284
2962.87	286
2963.71	268
2964.56	274
2965.4	294
2966.24	318
2967.08	286
2967.92	296
2968.77	274
2969.61	282
2970.45	280
2971.29	288
2972.13	282
2972.97	296
2973.82	276
2974.66	286
2975.5	274
2976.34	284
2977.18	284
2978.02	274
2978.86	272
2979.7	252
2980.54	278
2981.38	272
2982.22	258
2983.06	262
2983.9	280
2984.74	278
2985.58	262
2986.42	292
2987.26	266
2988.1	264
2988.94	264
2989.78	254
2990.61	270
2991.45	272
2992.29	272
2993.13	250
2993.97	262
2994.81	260
2995.64	260
2996.48	260
2997.32	250
2998.16	278
2999	272
2999.83	278
