#Acq. time (s)=	15
#Accumulations=	2
#Range (cm-¹)=	200...3000
#Windows=	3
#Autofocus=	Off
#AutoExposure=	Off
#Spike filter=	Multiple accum.
#Delay time (s)=	0
#Binning=	1
#Readout mode=	Signal
#DeNoise=	Off
#ICS correction=	Off
#Dark correction=	Off
#Inst. Process=	Off
#Instrument=	LabRAM HR Evol
#Detector=	Syncerity OE
#Objective=	x100_VIS
#Grating=	600 (500nm)
#ND Filter=	10%
#Laser=	633nm_Edge
#Hole=	24.99
#Range=	Visible
#Project=	Omar
#Sample=	03-07-23
#Site=	nop
#Title=	inside_prf
#Remark=	
#Date=	03.07.2023 14:13
#Acquired=	03.07.2023 14:13:55
201.713	512
202.98	510
204.247	484
205.513	492
206.778	530
208.045	466
209.311	510
210.576	490
211.84	478
213.106	506
214.371	488
215.636	478
216.899	456
218.164	492
219.428	492
220.692	498
221.955	496
223.219	494
224.482	528
225.744	494
227.007	516
228.27	512
229.531	510
230.794	508
232.055	496
233.317	512
234.579	506
235.839	494
237.1	524
238.362	510
239.621	536
240.882	522
242.141	546
243.402	534
244.661	544
245.921	572
247.179	534
248.439	532
249.698	548
250.956	554
252.215	550
253.473	532
254.731	532
255.988	552
257.246	550
258.503	544
259.761	540
261.017	538
262.273	532
263.53	542
264.786	588
266.042	558
267.298	526
268.554	538
269.809	556
271.063	554
272.319	556
273.573	548
274.828	544
276.082	568
277.336	566
278.591	542
279.844	562
281.097	554
282.351	552
283.603	570
284.855	564
286.109	562
287.361	576
288.613	562
289.866	614
291.117	574
292.368	582
293.62	574
294.871	582
296.121	592
297.372	574
298.623	614
299.873	628
301.123	580
302.372	602
303.622	586
304.872	612
306.121	610
307.37	618
308.618	588
309.866	632
311.116	620
312.364	598
313.611	610
314.859	600
316.106	604
317.353	612
318.6	608
319.848	622
321.095	610
322.341	630
323.587	632
324.833	622
326.079	620
327.324	632
328.569	636
329.814	646
331.059	648
332.304	658
333.548	630
334.792	632
336.037	634
337.28	648
338.524	646
339.767	648
341.011	644
342.254	662
343.497	698
344.739	650
345.982	658
347.224	672
348.466	666
349.708	654
350.95	628
352.191	664
353.432	654
354.673	646
355.914	676
357.155	682
358.394	680
359.634	682
360.874	690
362.114	664
363.354	738
364.593	654
365.832	656
367.07	678
368.309	714
369.548	706
370.786	688
372.024	698
373.261	690
374.499	722
375.736	706
376.974	676
378.211	680
379.447	722
380.684	672
381.92	684
383.157	708
384.392	722
385.628	708
386.864	712
388.098	664
389.333	688
390.569	738
391.802	700
393.037	710
394.272	688
395.505	716
396.739	742
397.973	700
399.206	724
400.44	758
401.673	736
402.905	740
404.138	692
405.37	734
406.602	740
407.835	722
409.066	728
410.298	774
411.528	764
412.76	784
413.99	778
415.221	768
416.451	736
417.682	762
418.911	758
420.142	776
421.371	758
422.601	736
423.83	788
425.059	778
426.288	804
427.517	798
428.745	808
429.974	796
431.201	798
432.43	818
433.657	788
434.883	812
436.111	820
437.338	820
438.565	826
439.791	826
441.017	822
442.244	840
443.469	860
444.695	826
445.921	862
447.146	842
448.37	828
449.596	816
450.821	810
452.045	842
453.27	832
454.493	842
455.717	828
456.94	860
458.165	878
459.387	890
460.61	826
461.833	846
463.056	892
464.278	804
465.5	860
466.722	830
467.945	822
469.166	872
470.387	880
471.608	856
472.829	854
474.049	846
475.271	850
476.491	874
477.711	832
478.931	902
480.15	862
481.37	912
482.589	880
483.808	882
485.027	864
486.247	904
487.465	900
488.683	904
489.901	926
491.119	914
492.337	916
493.554	924
494.771	920
495.988	940
497.205	908
498.422	938
499.638	936
500.854	928
502.07	922
503.286	948
504.502	926
505.717	944
506.933	954
508.148	916
509.363	964
510.577	980
511.792	912
513.005	974
514.219	948
515.433	938
516.647	924
517.86	972
519.073	906
520.287	936
521.5	992
522.711	968
523.924	950
525.136	964
526.348	936
527.56	964
528.772	962
529.982	988
531.194	992
532.405	974
533.616	1000
534.825	986
536.036	988
537.246	1012
538.457	960
539.665	1026
540.875	1000
542.085	1006
543.294	996
544.502	1002
545.712	1032
546.92	1018
548.128	990
549.336	996
550.545	1036
551.751	1026
552.959	1046
554.167	1004
555.373	1042
556.581	1076
557.788	1020
558.994	1000
560.2	1086
561.406	1012
562.612	1032
563.817	986
565.023	1036
566.229	1052
567.433	1032
568.639	1080
569.843	1028
571.048	1058
572.251	1102
573.456	1128
574.659	1086
575.863	1096
577.066	1050
578.27	1046
579.472	1092
580.676	1066
581.878	1104
583.081	1058
584.283	1118
585.484	1044
586.687	1116
587.888	1162
589.09	1074
590.291	1088
591.493	1126
592.693	1126
593.893	1104
595.094	1120
596.294	1156
597.494	1170
598.694	1158
599.894	1150
601.093	1138
602.293	1132
603.491	1140
604.69	1188
605.889	1182
607.087	1166
608.285	1166
609.483	1162
610.682	1162
611.879	1140
613.076	1196
614.273	1150
615.471	1220
616.667	1220
617.864	1246
619.06	1204
620.256	1216
621.453	1210
622.648	1232
623.844	1202
625.039	1232
626.234	1220
627.429	1206
628.625	1216
629.819	1242
631.013	1266
632.208	1222
633.401	1270
634.595	1296
635.789	1290
636.982	1290
638.175	1298
639.369	1316
640.562	1266
641.755	1322
642.947	1306
644.139	1296
645.331	1322
646.523	1330
647.715	1374
648.906	1320
650.097	1408
651.288	1344
652.479	1364
653.67	1340
654.86	1322
656.051	1398
657.241	1338
658.429	1344
659.619	1382
660.808	1390
661.998	1362
663.187	1360
664.376	1352
665.565	1406
666.753	1378
667.942	1414
669.13	1406
670.317	1370
671.505	1420
672.692	1434
673.88	1446
675.067	1410
676.254	1454
677.44	1422
678.627	1468
679.813	1454
681	1438
682.184	1430
683.37	1490
684.556	1472
685.742	1432
686.926	1478
688.111	1472
689.296	1542
690.481	1450
691.664	1458
692.849	1468
694.033	1458
695.216	1520
696.4	1554
697.584	1492
698.766	1530
699.949	1550
701.133	1510
702.314	1518
703.497	1540
704.678	1566
705.861	1602
707.043	1582
708.224	1610
709.406	1540
710.586	1616
711.768	1590
712.949	1604
714.129	1594
715.31	1622
716.489	1584
717.67	1646
718.849	1572
720.029	1638
721.208	1692
722.388	1654
723.566	1684
724.746	1662
725.924	1704
727.103	1702
728.28	1702
729.458	1694
730.636	1716
731.814	1722
732.992	1766
734.168	1724
735.345	1726
736.523	1754
737.699	1774
738.876	1736
740.052	1810
741.227	1780
742.404	1776
743.579	1836
744.754	1834
745.931	1782
747.105	1790
748.28	1846
749.455	1786
750.629	1854
751.803	1860
752.977	1850
754.152	1830
755.325	1870
756.499	1888
757.672	1902
758.846	1876
760.018	1898
761.191	1880
762.363	1904
763.535	1914
764.708	1894
765.88	1892
767.052	2002
768.223	1918
769.394	2000
770.565	2002
771.737	2020
772.908	1938
774.078	1972
775.249	1994
776.419	1976
777.589	1982
778.758	2074
779.928	2018
781.097	2032
782.266	2052
783.435	2068
784.604	2046
785.773	2082
786.941	2124
788.11	2088
789.278	2104
790.446	2128
791.613	2122
792.781	2176
793.948	2108
795.115	2096
796.282	2162
797.449	2138
798.616	2210
799.782	2160
800.948	2218
802.115	2204
803.28	2252
804.446	2240
805.612	2294
806.777	2246
807.941	2288
809.106	2298
810.271	2296
811.435	2282
812.6	2316
813.764	2350
814.927	2330
816.091	2402
817.254	2362
818.418	2352
819.581	2376
820.743	2392
821.906	2408
823.069	2398
824.232	2474
825.393	2474
826.555	2446
827.717	2454
828.879	2478
830.039	2492
831.201	2510
832.362	2576
833.522	2514
834.683	2566
835.844	2596
837.003	2606
838.164	2578
839.324	2666
840.483	2634
841.643	2622
842.801	2628
843.961	2618
845.12	2678
846.278	2666
847.437	2754
848.594	2728
849.753	2710
850.91	2746
852.069	2752
853.227	2798
854.383	2720
855.541	2714
856.697	2898
857.855	2818
859.011	2824
860.168	2894
861.323	2842
862.48	2864
863.635	2918
864.79	2896
865.946	2930
867.101	2938
868.257	2850
869.411	2962
870.567	2964
871.721	2964
872.874	2964
874.029	2994
875.183	3088
876.336	2986
877.49	3038
878.643	3030
879.796	3032
880.95	3004
882.102	3080
883.254	3116
884.407	3114
885.559	3122
886.711	3090
887.862	3164
889.015	3132
890.166	3172
891.317	3240
892.467	3276
893.619	3258
894.77	3194
895.92	3294
897.07	3254
898.221	3220
899.371	3298
900.52	3320
901.669	3232
902.819	3354
903.968	3316
905.116	3378
906.266	3344
907.415	3324
908.563	3418
909.711	3420
910.859	3396
912.007	3482
913.154	3506
914.301	3490
915.449	3478
916.596	3552
917.742	3462
918.889	3466
920.036	3544
921.183	3518
922.329	3574
923.475	3630
924.621	3608
925.765	3628
926.911	3626
928.056	3666
929.201	3618
930.346	3664
931.49	3716
932.635	3744
933.779	3754
934.924	3716
936.068	3782
937.211	3802
938.355	3816
939.498	3810
940.64	3862
941.784	3776
942.926	3888
944.069	3914
945.212	3970
946.354	3922
947.495	4030
948.637	3992
949.779	4004
950.921	4108
952.062	4040
953.202	4026
954.344	4128
955.484	4132
956.625	4120
957.765	4170
958.905	4216
960.045	4120
961.184	4148
962.324	4256
963.464	4192
964.604	4282
965.742	4298
966.881	4302
968.02	4334
969.158	4276
970.296	4282
971.434	4350
972.572	4374
973.71	4450
974.847	4432
975.985	4424
977.121	4408
978.259	4550
979.396	4454
980.532	4498
981.669	4538
982.804	4580
983.941	4566
985.076	4592
986.212	4618
987.347	4636
988.483	4624
989.617	4686
990.753	4696
991.887	4730
993.022	4746
994.156	4736
995.29	4844
996.424	4738
997.558	4834
998.692	4894
999.825	4816
1000.96	4854
1002.09	4878
1003.22	4978
1004.36	4918
1005.49	4932
1006.62	5002
1007.75	4970
1008.89	4980
1010.02	5064
1011.15	5080
1012.28	5124
1013.41	5020
1014.54	5172
1015.67	5076
1016.8	5186
1017.93	5164
1019.07	5208
1020.19	5186
1021.32	5262
1022.45	5320
1023.58	5342
1024.71	5354
1025.84	5360
1026.97	5374
1028.1	5502
1029.23	5390
1030.36	5450
1031.49	5422
1032.61	5450
1033.74	5508
1034.87	5618
1036	5570
1037.12	5598
1038.25	5534
1039.38	5716
1040.5	5668
1041.63	5626
1042.76	5742
1043.88	5720
1045.01	5838
1046.14	5814
1047.26	5776
1048.39	5898
1049.51	5994
1050.64	6070
1051.76	5928
1052.89	5874
1054.01	5940
1055.14	6036
1056.26	6082
1057.38	6020
1058.51	6164
1059.63	6096
1060.75	6186
1061.88	6159
1063	6132
1064.12	6218
1065.25	6224
1066.37	6204
1067.49	6298
1068.61	6286
1069.73	6330
1070.86	6346
1071.98	6272
1073.1	6436
1074.22	6482
1075.34	6418
1076.46	6528
1077.58	6492
1078.7	6468
1079.82	6384
1080.94	6504
1082.06	6524
1083.18	6524
1084.3	6554
1085.42	6528
1086.54	6450
1087.66	6626
1088.78	6632
1089.9	6612
1091.02	6668
1092.14	6658
1093.25	6646
1094.37	6654
1095.49	6750
1096.61	6698
1097.72	6724
1098.84	6780
1099.96	6778
1101.08	6850
1102.19	6796
1103.31	6814
1104.43	6778
1105.54	6756
1106.66	6900
1107.77	6928
1108.89	6804
1110	6906
1111.12	6890
1112.23	6944
1113.35	6964
1114.46	6974
1115.58	7008
1116.69	7064
1117.81	6958
1118.92	7198
1120.03	7068
1121.15	7106
1122.26	7078
1123.37	7198
1124.49	7128
1125.6	7226
1126.71	7194
1127.83	7240
1128.94	7236
1130.05	7328
1131.16	7332
1132.27	7342
1133.39	7384
1134.5	7272
1135.61	7326
1136.72	7442
1137.83	7364
1138.94	7444
1140.05	7502
1141.16	7436
1142.27	7536
1143.38	7496
1144.49	7470
1145.6	7512
1146.71	7498
1147.82	7558
1148.93	7576
1150.04	7706
1151.15	7690
1152.26	7756
1153.36	7716
1154.47	7632
1155.58	7696
1156.69	7780
1157.8	7694
1158.9	7784
1160.01	7774
1161.12	7782
1162.22	7864
1163.33	7826
1164.44	7758
1165.54	7868
1166.65	7824
1167.76	7840
1168.86	7936
1169.97	8018
1171.07	7818
1172.18	7812
1173.28	7898
1174.39	7902
1175.49	7894
1176.6	7936
1177.7	7938
1178.81	7954
1179.91	7834
1181.02	7880
1182.12	7968
1183.22	7918
1184.33	7872
1185.43	8038
1186.53	7938
1187.63	7968
1188.74	7986
1189.84	7898
1190.94	7986
1192.04	7936
1193.15	7760
1194.25	7814
1195.35	8014
1196.45	7862
1197.55	7908
1198.65	7900
1199.75	7936
1200.85	7800
1201.95	7898
1203.05	7924
1204.16	7844
1205.25	7812
1206.35	7862
1207.45	7728
1208.55	8012
1209.65	7838
1210.75	7900
1211.85	7820
1212.95	7828
1214.05	7850
1215.15	7842
1216.24	7668
1217.34	7874
1218.44	7786
1219.54	7840
1220.64	7816
1221.73	7768
1222.83	7776
1223.93	7622
1225.02	7776
1226.12	7736
1227.22	7816
1228.31	7706
1229.41	7758
1230.5	7690
1231.6	7742
1232.7	7612
1233.79	7632
1234.89	7660
1235.98	7608
1237.08	7632
1238.17	7770
1239.26	7688
1240.36	7734
1241.45	7730
1242.55	7716
1243.64	7548
1244.73	7648
1245.83	7674
1246.92	7670
1248.01	7542
1249.11	7604
1250.2	7672
1251.29	7570
1252.38	7728
1253.48	7534
1254.57	7696
1255.66	7566
1256.75	7600
1257.84	7532
1258.93	7556
1260.03	7492
1261.12	7530
1262.21	7444
1263.3	7520
1264.39	7504
1265.48	7510
1266.57	7454
1267.66	7512
1268.75	7460
1269.84	7430
1270.93	7450
1272.02	7430
1273.11	7398
1274.19	7402
1275.28	7322
1276.37	7356
1277.46	7414
1278.55	7400
1279.64	7354
1280.72	7382
1281.81	7358
1282.9	7336
1283.98	7265.39
1285.07	7406.54
1286.16	7295.1
1287.25	7260.21
1288.33	7267.17
1289.42	7261.64
1290.5	7268.02
1291.59	7214.85
1292.68	7233.68
1293.76	7091.87
1294.85	7063.49
1295.93	7092.86
1297.02	7032.2
1298.1	7106.07
1299.19	7064.76
1300.27	7063.84
1301.36	6972.12
1302.44	6944.21
1303.53	7055.68
1304.61	6959.7
1305.69	6947.72
1306.78	6905.04
1307.86	6788.25
1308.94	6841.53
1310.03	6831.02
1311.11	6834.73
1312.19	6812.75
1313.27	6779.92
1314.36	6819.72
1315.44	6691.85
1316.52	6734.48
1317.6	6726.25
1318.68	6605.52
1319.77	6727.43
1320.85	6654.56
1321.93	6612.87
1323.01	6642.08
1324.09	6535.53
1325.17	6555.85
1326.25	6487.25
1327.33	6436.26
1328.41	6556.54
1329.49	6414.46
1330.57	6423.27
1331.65	6370.27
1332.73	6393.86
1333.81	6335.89
1334.89	6365.21
1335.97	6331.02
1337.04	6240.86
1338.12	6246.67
1339.2	6272.89
1340.28	6295.73
1341.36	6203.59
1342.44	6152.6
1343.51	6196.32
1344.59	6151.84
1345.67	6150.46
1346.75	6157.56
1347.82	6080.08
1348.9	6130.45
1349.98	6111.59
1351.05	6030.58
1352.13	6045.57
1353.2	6022.97
1354.28	6057.45
1355.36	5992.08
1356.43	6008.43
1357.51	5884.6
1358.58	5902.58
1359.66	5913.48
1360.73	5910.67
1361.81	5815.02
1362.88	5845.91
1363.96	5781.02
1365.03	5835.14
1366.1	5766.68
1367.18	5729.74
1368.25	5811.36
1369.33	5685.48
1370.4	5650.53
1371.47	5770.78
1372.54	5654.02
1373.62	5694.81
1374.69	5692.41
1375.76	5616.44
1376.83	5621.61
1377.91	5615.68
1378.98	5595
1380.05	5641.78
1381.12	5510.49
1382.19	5482.2
1383.26	5602.47
1384.34	5528.06
1385.41	5468.65
1386.48	5500.7
1387.55	5539.99
1388.62	5408.47
1389.69	5496.72
1390.76	5399
1391.83	5451.24
1392.9	5418.62
1393.02	5412
1394.1	5340
1395.17	5320
1396.25	5350
1397.32	5374
1398.4	5322
1399.47	5296
1400.55	5280
1401.62	5234
1402.69	5304
1403.77	5084
1404.84	5258
1405.91	5172
1406.99	5216
1408.06	5138
1409.13	5176
1410.2	5188
1411.27	5188
1412.35	5218
1413.42	5176
1414.49	5034
1415.56	5164
1416.63	5172
1417.7	5094
1418.78	5022
1419.85	5124
1420.92	5138
1421.99	5102
1423.06	4988
1424.13	5118
1425.2	4992
1426.27	5058
1427.34	4956
1428.41	5074
1429.48	5020
1430.55	4978
1431.61	4904
1432.68	5018
1433.75	4866
1434.82	4970
1435.89	4864
1436.96	4970
1438.02	4954
1439.09	4896
1440.16	4894
1441.23	4912
1442.3	4930
1443.36	4876
1444.43	4892
1445.5	4896
1446.56	4832
1447.63	4840
1448.7	4868
1449.76	4902
1450.83	4806
1451.89	4842
1452.96	4752
1454.02	4790
1455.09	4920
1456.15	4784
1457.22	4790
1458.28	4884
1459.35	4762
1460.41	4738
1461.48	4740
1462.54	4760
1463.61	4808
1464.67	4670
1465.73	4672
1466.8	4784
1467.86	4712
1468.92	4738
1469.98	4778
1471.05	4742
1472.11	4612
1473.17	4574
1474.24	4686
1475.3	4600
1476.36	4692
1477.42	4662
1478.48	4560
1479.54	4618
1480.6	4556
1481.67	4624
1482.73	4688
1483.79	4646
1484.85	4608
1485.91	4576
1486.97	4544
1488.03	4578
1489.09	4528
1490.15	4550
1491.21	4556
1492.27	4540
1493.33	4570
1494.38	4538
1495.44	4496
1496.5	4538
1497.56	4506
1498.62	4454
1499.68	4582
1500.74	4516
1501.79	4534
1502.85	4428
1503.91	4402
1504.97	4498
1506.02	4416
1507.08	4444
1508.14	4462
1509.2	4478
1510.25	4424
1511.31	4426
1512.36	4346
1513.42	4390
1514.48	4374
1515.53	4354
1516.59	4400
1517.64	4356
1518.7	4326
1519.75	4410
1520.81	4356
1521.86	4294
1522.92	4306
1523.97	4326
1525.02	4330
1526.08	4326
1527.13	4240
1528.19	4198
1529.24	4258
1530.29	4206
1531.35	4190
1532.4	4296
1533.45	4230
1534.51	4246
1535.56	4244
1536.61	4218
1537.66	4206
1538.72	4152
1539.77	4242
1540.82	4166
1541.87	4140
1542.92	4156
1543.97	4152
1545.02	4118
1546.08	4194
1547.13	4172
1548.18	4106
1549.23	4230
1550.28	4074
1551.33	4132
1552.38	4112
1553.43	4008
1554.48	4074
1555.53	4094
1556.57	4072
1557.62	4054
1558.67	4030
1559.72	4044
1560.77	4064
1561.82	3972
1562.87	4040
1563.92	4050
1564.96	4106
1566.01	4042
1567.06	4046
1568.11	3984
1569.15	3980
1570.2	4006
1571.25	3930
1572.29	3988
1573.34	3990
1574.39	3928
1575.43	4034
1576.48	3966
1577.53	4028
1578.57	3974
1579.62	3918
1580.66	4024
1581.71	3900
1582.75	3972
1583.8	3844
1584.84	3936
1585.89	3926
1586.93	3834
1587.98	3918
1589.02	3876
1590.06	4008
1591.11	3946
1592.15	3966
1593.2	3936
1594.24	3836
1595.28	3918
1596.33	3938
1597.37	3924
1598.41	3902
1599.45	3872
1600.5	3880
1601.54	3808
1602.58	3890
1603.62	3882
1604.66	3910
1605.7	3868
1606.75	3846
1607.79	3846
1608.83	3882
1609.87	3878
1610.91	3866
1611.95	3868
1612.99	3838
1614.03	3878
1615.07	3790
1616.11	3860
1617.15	3822
1618.19	3810
1619.23	3904
1620.27	3772
1621.31	3842
1622.35	3774
1623.39	3824
1624.43	3882
1625.46	3866
1626.5	3704
1627.54	3880
1628.58	3832
1629.62	3778
1630.65	3928
1631.69	3786
1632.73	3768
1633.77	3816
1634.8	3740
1635.84	3774
1636.88	3828
1637.91	3776
1638.95	3844
1639.99	3770
1641.02	3738
1642.06	3726
1643.09	3748
1644.13	3772
1645.16	3768
1646.2	3752
1647.23	3796
1648.27	3774
1649.3	3708
1650.34	3688
1651.37	3732
1652.41	3760
1653.44	3800
1654.47	3664
1655.51	3760
1656.54	3694
1657.57	3752
1658.61	3714
1659.64	3660
1660.67	3634
1661.71	3760
1662.74	3638
1663.77	3742
1664.81	3686
1665.84	3678
1666.87	3564
1667.9	3732
1668.93	3704
1669.96	3728
1671	3648
1672.03	3614
1673.06	3572
1674.09	3642
1675.12	3640
1676.15	3740
1677.18	3628
1678.21	3562
1679.24	3616
1680.27	3608
1681.3	3556
1682.33	3582
1683.36	3568
1684.39	3572
1685.42	3504
1686.45	3578
1687.47	3564
1688.5	3506
1689.53	3524
1690.56	3552
1691.59	3566
1692.62	3500
1693.64	3534
1694.67	3548
1695.7	3502
1696.73	3520
1697.75	3536
1698.78	3500
1699.81	3514
1700.83	3568
1701.86	3518
1702.89	3484
1703.91	3476
1704.94	3530
1705.97	3542
1706.99	3452
1708.02	3518
1709.04	3462
1710.07	3506
1711.09	3502
1712.12	3536
1713.14	3544
1714.17	3484
1715.19	3434
1716.22	3468
1717.24	3434
1718.26	3546
1719.29	3424
1720.31	3466
1721.33	3454
1722.36	3484
1723.38	3426
1724.4	3506
1725.43	3472
1726.45	3520
1727.47	3380
1728.49	3426
1729.52	3502
1730.54	3484
1731.56	3398
1732.58	3400
1733.6	3420
1734.63	3482
1735.65	3490
1736.67	3418
1737.69	3444
1738.71	3446
1739.73	3424
1740.75	3484
1741.77	3518
1742.79	3370
1743.81	3366
1744.83	3448
1745.85	3444
1746.87	3394
1747.89	3390
1748.91	3418
1749.93	3396
1750.95	3378
1751.97	3386
1752.98	3396
1754	3448
1755.02	3458
1756.04	3360
1757.06	3476
1758.07	3450
1759.09	3476
1760.11	3422
1761.13	3472
1762.14	3432
1763.16	3374
1764.18	3472
1765.19	3460
1766.21	3440
1767.23	3368
1768.24	3432
1769.26	3426
1770.28	3390
1771.29	3422
1772.31	3410
1773.32	3422
1774.34	3374
1775.35	3386
1776.37	3390
1777.38	3410
1778.4	3394
1779.41	3382
1780.43	3352
1781.44	3426
1782.45	3354
1783.47	3396
1784.48	3408
1785.49	3432
1786.51	3374
1787.52	3356
1788.53	3438
1789.55	3386
1790.56	3354
1791.57	3386
1792.58	3434
1793.6	3446
1794.61	3468
1795.62	3400
1796.63	3394
1797.64	3384
1798.66	3382
1799.67	3386
1800.68	3386
1801.69	3418
1802.7	3418
1803.71	3400
1804.72	3406
1805.73	3436
1806.74	3378
1807.75	3460
1808.76	3382
1809.77	3368
1810.78	3388
1811.79	3358
1812.8	3378
1813.81	3418
1814.82	3346
1815.83	3336
1816.84	3360
1817.84	3304
1818.85	3410
1819.86	3368
1820.87	3322
1821.88	3332
1822.88	3362
1823.89	3360
1824.9	3358
1825.91	3320
1826.91	3272
1827.92	3356
1828.93	3308
1829.93	3276
1830.94	3244
1831.95	3364
1832.95	3280
1833.96	3324
1834.97	3342
1835.97	3364
1836.98	3292
1837.98	3344
1838.99	3294
1839.99	3308
1841	3296
1842	3324
1843.01	3326
1844.01	3248
1845.02	3256
1846.02	3318
1847.02	3292
1848.03	3304
1849.03	3322
1850.03	3220
1851.04	3304
1852.04	3268
1853.04	3206
1854.05	3250
1855.05	3268
1856.05	3234
1857.05	3286
1858.06	3224
1859.06	3248
1860.06	3232
1861.06	3282
1862.06	3204
1863.07	3292
1864.07	3256
1865.07	3252
1866.07	3308
1867.07	3228
1868.07	3250
1869.07	3280
1870.07	3228
1871.07	3202
1872.07	3218
1873.07	3192
1874.07	3202
1875.07	3224
1876.07	3164
1877.07	3210
1878.07	3256
1879.07	3280
1880.07	3166
1881.07	3208
1882.07	3228
1883.06	3276
1884.06	3194
1885.06	3194
1886.06	3240
1887.06	3224
1888.05	3202
1889.05	3202
1890.05	3288
1891.05	3244
1892.04	3150
1893.04	3240
1894.04	3256
1895.03	3218
1896.03	3300
1897.03	3282
1898.02	3246
1899.02	3256
1900.01	3242
1901.01	3170
1902	3244
1903	3224
1903.99	3280
1904.99	3242
1905.98	3250
1906.98	3218
1907.97	3176
1908.97	3212
1909.96	3284
1910.96	3224
1911.95	3232
1912.94	3222
1913.94	3246
1914.93	3246
1915.93	3224
1916.92	3240
1917.91	3198
1918.9	3190
1919.9	3162
1920.89	3246
1921.88	3170
1922.87	3200
1923.87	3260
1924.86	3200
1925.85	3172
1926.84	3274
1927.83	3228
1928.82	3188
1929.82	3256
1930.81	3190
1931.8	3176
1932.79	3264
1933.78	3266
1934.77	3248
1935.76	3286
1936.75	3164
1937.74	3196
1938.73	3258
1939.72	3174
1940.71	3218
1941.7	3162
1942.69	3164
1943.68	3190
1944.67	3290
1945.65	3180
1946.64	3198
1947.63	3180
1948.62	3142
1949.61	3222
1950.6	3240
1951.58	3152
1952.57	3154
1953.56	3292
1954.55	3184
1955.53	3212
1956.52	3194
1957.51	3084
1958.5	3178
1959.48	3156
1960.47	3142
1961.45	3218
1962.44	3180
1963.43	3204
1964.41	3132
1965.4	3160
1966.38	3172
1967.37	3134
1968.35	3224
1969.34	3170
1970.32	3208
1971.31	3208
1972.29	3184
1973.28	3214
1974.26	3174
1975.25	3168
1976.23	3192
1977.22	3162
1978.2	3104
1979.18	3152
1980.17	3102
1981.15	3060
1982.13	3154
1983.12	3130
1984.1	3154
1985.08	3160
1986.06	3152
1987.05	3176
1988.03	3168
1989.01	3130
1989.99	3152
1990.97	3136
1991.96	3174
1992.94	3196
1993.92	3098
1994.9	3152
1995.88	3124
1996.86	3100
1997.84	3200
1998.82	3094
1999.8	3126
2000.78	3116
2001.76	3104
2002.74	3176
2003.72	3130
2004.7	3098
2005.68	3092
2006.66	3118
2007.64	3124
2008.62	3022
2009.6	3094
2010.58	3156
2011.56	3090
2012.54	3098
2013.51	3056
2014.49	3080
2015.47	3130
2016.45	3120
2017.43	3046
2018.4	3094
2019.38	3150
2020.36	3100
2021.34	3160
2022.31	3130
2023.29	3088
2024.27	3134
2025.24	3150
2026.22	3126
2027.2	3054
2028.17	3060
2029.15	3066
2030.12	3104
2031.1	3122
2032.07	3088
2033.05	3066
2034.03	3182
2035	3046
2035.98	3130
2036.95	3128
2037.93	3028
2038.9	3072
2039.87	3054
2040.85	3124
2041.82	3126
2042.8	3086
2043.77	3078
2044.74	3028
2045.72	3026
2046.69	3062
2047.66	3100
2048.64	3062
2049.61	3088
2050.58	3098
2051.55	3022
2052.53	3056
2053.5	3070
2054.47	3016
2055.44	3150
2056.41	3076
2057.39	3080
2058.36	3052
2059.33	3062
2060.3	3084
2061.27	3134
2062.24	3092
2063.21	3026
2064.18	3088
2065.15	3076
2066.12	3026
2067.09	3024
2068.06	3052
2069.03	3044
2070	3110
2070.97	3012
2071.94	3074
2072.91	3068
2073.88	3104
2074.85	3080
2075.82	3100
2076.79	3120
2077.76	3022
2078.73	3008
2079.69	3004
2080.66	3010
2081.63	3074
2082.6	3064
2083.56	3044
2084.53	3026
2085.5	3098
2086.47	3078
2087.43	3046
2088.4	3034
2089.37	3038
2090.33	3054
2091.3	3058
2092.27	3082
2093.23	3028
2094.2	3026
2095.17	2938
2096.13	3022
2097.1	3026
2098.06	3020
2099.03	3060
2099.99	3012
2100.96	3000
2101.92	3078
2102.89	3038
2103.85	3022
2104.82	3036
2105.78	3040
2106.74	3044
2107.71	2962
2108.67	2950
2109.64	3050
2110.6	2998
2111.56	2988
2112.53	3008
2113.49	2938
2114.45	3030
2115.41	2988
2116.38	3060
2117.34	2962
2118.3	3010
2119.26	3022
2120.23	3008
2121.19	3004
2122.15	3002
2123.11	3040
2124.07	3022
2125.03	2978
2126	3038
2126.96	2992
2127.92	2954
2128.88	2980
2129.84	3010
2130.8	3068
2131.76	2920
2132.72	3012
2133.68	2968
2134.64	2938
2135.6	2998
2136.56	3022
2137.52	2966
2138.48	2966
2139.44	2982
2140.4	3054
2141.35	2964
2142.31	3010
2143.27	2990
2144.23	3012
2145.19	2924
2146.15	2966
2147.1	2970
2148.06	2990
2149.02	2974
2149.98	3002
2150.94	2944
2151.89	2998
2152.85	3024
2153.81	2992
2154.76	2952
2155.72	2964
2156.68	3002
2157.63	2974
2158.59	2922
2159.55	2986
2160.5	2982
2161.46	2970
2162.41	3034
2163.37	2936
2164.32	2984
2165.28	2948
2166.23	2988
2167.19	2968
2168.14	2866
2169.1	2858
2170.05	2916
2171.01	2956
2171.96	2892
2172.91	2866
2173.87	2852
2174.82	2930
2175.78	2952
2176.73	2888
2177.68	2940
2178.64	2944
2179.59	2970
2180.54	2926
2181.49	2916
2182.45	2872
2183.4	2892
2184.35	2898
2185.3	2962
2186.26	2892
2187.21	2928
2188.16	2908
2189.11	2952
2190.06	2908
2191.01	2930
2191.96	2880
2192.92	2936
2193.87	2886
2194.82	2912
2195.77	2896
2196.72	2870
2197.67	2888
2198.62	2816
2199.57	2806
2200.52	2908
2201.47	2854
2202.42	2782
2203.37	2926
2204.32	2870
2205.27	2846
2206.22	2894
2207.16	2862
2208.11	2876
2209.06	2852
2210.01	2932
2210.96	2874
2211.91	2810
2212.85	2856
2213.8	2806
2214.75	2878
2215.7	2882
2216.64	2864
2217.59	2860
2218.54	2846
2219.49	2846
2220.43	2874
2221.38	2870
2222.33	2852
2223.27	2861.42
2224.22	2882.25
2225.16	2903
2226.11	2835.55
2227.06	2869.5
2228	2880.74
2228.95	2822.2
2229.89	2874.84
2230.84	2821.96
2231.78	2810.42
2232.73	2838.91
2233.67	2820.56
2234.62	2792.26
2235.56	2849.11
2236.51	2745.16
2237.45	2839.57
2238.4	2827.73
2239.34	2827.95
2240.28	2819.64
2241.23	2840.53
2242.17	2838.57
2243.11	2778.02
2244.06	2829.22
2245	2824.07
2245.94	2800.55
2246.89	2845.9
2247.83	2871.04
2248.77	2806.84
2249.71	2785.24
2250.66	2779.12
2251.6	2806.27
2252.54	2802.21
2253.48	2823.02
2254.42	2794.06
2255.37	2773.66
2256.31	2793.74
2257.25	2791.29
2258.19	2800.76
2259.13	2787.54
2260.07	2777.75
2261.01	2768.99
2261.95	2724.08
2262.89	2760.07
2263.83	2804.05
2264.77	2759.71
2265.71	2758.85
2266.65	2786.19
2267.59	2727.91
2268.53	2794.04
2269.47	2704.49
2270.41	2752.69
2271.35	2796.9
2272.29	2764.04
2273.23	2714
2274.17	2708.85
2275.1	2736.29
2276.04	2760.57
2276.98	2725.42
2277.92	2740.25
2278.86	2699.61
2279.8	2704.48
2280.73	2696.48
2281.67	2711.69
2282.61	2714.24
2283.55	2745.97
2284.48	2709.61
2285.42	2698
2286.36	2731.96
2287.29	2707.62
2288.23	2669.48
2289.17	2633.03
2290.1	2676.26
2291.04	2698.35
2291.98	2712.84
2292.91	2708.57
2293.85	2693.55
2294.78	2679.08
2295.72	2631.13
2296.65	2646.67
2297.59	2651.98
2298.52	2678.01
2299.46	2670.57
2300.39	2659.2
2301.33	2656.27
2302.26	2660.91
2303.2	2650.66
2304.13	2662.46
2305.06	2661.63
2306	2632.29
2306.93	2639
2307.87	2666.83
2308.8	2676.7
2309.73	2625.74
2310.67	2608.54
2311.6	2632.57
2312.53	2641.45
2313.46	2626.19
2314.4	2608.22
2315.33	2569.46
2316.26	2606.18
2316.69	2660
2317.62	2570
2318.56	2584
2319.5	2514
2320.43	2622
2321.37	2546
2322.31	2536
2323.24	2596
2324.18	2618
2325.12	2584
2326.05	2538
2326.99	2582
2327.92	2594
2328.86	2618
2329.79	2592
2330.73	2564
2331.66	2560
2332.6	2556
2333.53	2556
2334.47	2500
2335.4	2546
2336.34	2648
2337.27	2596
2338.2	2556
2339.14	2580
2340.07	2566
2341.01	2536
2341.94	2540
2342.87	2578
2343.81	2560
2344.74	2520
2345.67	2538
2346.6	2508
2347.54	2554
2348.47	2538
2349.4	2530
2350.33	2552
2351.27	2546
2352.2	2522
2353.13	2556
2354.06	2518
2354.99	2520
2355.93	2524
2356.86	2502
2357.79	2542
2358.72	2512
2359.65	2562
2360.58	2492
2361.51	2528
2362.44	2500
2363.37	2510
2364.3	2530
2365.23	2508
2366.16	2470
2367.09	2464
2368.02	2474
2368.95	2504
2369.88	2512
2370.81	2488
2371.74	2510
2372.67	2470
2373.6	2492
2374.52	2470
2375.45	2470
2376.38	2512
2377.31	2412
2378.24	2520
2379.17	2432
2380.09	2388
2381.02	2454
2381.95	2464
2382.88	2452
2383.8	2408
2384.73	2442
2385.66	2458
2386.58	2432
2387.51	2440
2388.44	2490
2389.36	2380
2390.29	2438
2391.22	2438
2392.14	2408
2393.07	2396
2393.99	2416
2394.92	2364
2395.85	2440
2396.77	2410
2397.7	2408
2398.62	2360
2399.55	2416
2400.47	2412
2401.4	2436
2402.32	2382
2403.25	2446
2404.17	2416
2405.09	2396
2406.02	2370
2406.94	2366
2407.86	2366
2408.79	2354
2409.71	2402
2410.63	2380
2411.56	2368
2412.48	2328
2413.4	2330
2414.33	2358
2415.25	2378
2416.17	2322
2417.09	2338
2418.02	2356
2418.94	2310
2419.86	2368
2420.78	2318
2421.7	2322
2422.63	2236
2423.55	2298
2424.47	2262
2425.39	2346
2426.31	2308
2427.23	2276
2428.15	2320
2429.07	2318
2429.99	2308
2430.91	2310
2431.83	2338
2432.75	2250
2433.67	2268
2434.59	2284
2435.51	2236
2436.43	2338
2437.35	2284
2438.27	2300
2439.19	2236
2440.11	2214
2441.03	2264
2441.95	2244
2442.86	2312
2443.78	2208
2444.7	2236
2445.62	2222
2446.54	2230
2447.46	2228
2448.37	2270
2449.29	2254
2450.21	2234
2451.13	2250
2452.04	2162
2452.96	2238
2453.88	2204
2454.79	2184
2455.71	2206
2456.63	2228
2457.54	2210
2458.46	2158
2459.38	2172
2460.29	2210
2461.21	2172
2462.12	2200
2463.04	2108
2463.95	2148
2464.87	2146
2465.78	2146
2466.7	2088
2467.61	2202
2468.53	2186
2469.44	2108
2470.36	2162
2471.27	2146
2472.19	2174
2473.1	2086
2474.01	2118
2474.93	2150
2475.84	2156
2476.76	2148
2477.67	2108
2478.58	2098
2479.5	2128
2480.41	2114
2481.32	2100
2482.23	2102
2483.15	2138
2484.06	2050
2484.97	2120
2485.88	2080
2486.8	2122
2487.71	2068
2488.62	2112
2489.53	2058
2490.44	2052
2491.35	2070
2492.26	2074
2493.18	2076
2494.09	2032
2495	2020
2495.91	2048
2496.82	2024
2497.73	2024
2498.64	2026
2499.55	1972
2500.46	2040
2501.37	2022
2502.28	2004
2503.19	2020
2504.1	2026
2505.01	2100
2505.92	2070
2506.83	2020
2507.74	1990
2508.65	2030
2509.55	1998
2510.46	1972
2511.37	1974
2512.28	1950
2513.19	2004
2514.09	2016
2515	1952
2515.91	1980
2516.82	1924
2517.73	1958
2518.63	1944
2519.54	1990
2520.45	1976
2521.35	1966
2522.26	1970
2523.17	1946
2524.07	1962
2524.98	1972
2525.89	1906
2526.79	1906
2527.7	1936
2528.6	1956
2529.51	1966
2530.42	1938
2531.32	1878
2532.23	1894
2533.13	1922
2534.04	1894
2534.94	1892
2535.85	1918
2536.75	1870
2537.66	1898
2538.56	1890
2539.47	1858
2540.37	1856
2541.27	1888
2542.18	1898
2543.08	1876
2543.98	1886
2544.89	1846
2545.79	1834
2546.7	1866
2547.6	1836
2548.5	1800
2549.4	1876
2550.31	1848
2551.21	1832
2552.11	1802
2553.01	1862
2553.92	1846
2554.82	1816
2555.72	1812
2556.62	1820
2557.52	1824
2558.42	1768
2559.33	1794
2560.23	1788
2561.13	1800
2562.03	1778
2562.93	1800
2563.83	1772
2564.73	1786
2565.63	1756
2566.53	1810
2567.43	1786
2568.33	1784
2569.23	1784
2570.13	1774
2571.03	1804
2571.93	1780
2572.83	1766
2573.73	1760
2574.63	1756
2575.53	1750
2576.43	1754
2577.33	1754
2578.22	1744
2579.12	1744
2580.02	1744
2580.92	1764
2581.82	1782
2582.72	1680
2583.61	1754
2584.51	1768
2585.41	1738
2586.31	1710
2587.2	1756
2588.1	1722
2589	1680
2589.89	1712
2590.79	1732
2591.69	1642
2592.58	1716
2593.48	1680
2594.38	1690
2595.27	1670
2596.17	1716
2597.06	1722
2597.96	1690
2598.86	1660
2599.75	1700
2600.65	1674
2601.54	1670
2602.44	1588
2603.33	1672
2604.23	1664
2605.12	1638
2606.02	1618
2606.91	1636
2607.81	1638
2608.7	1644
2609.59	1658
2610.49	1602
2611.38	1614
2612.27	1652
2613.17	1616
2614.06	1680
2614.95	1662
2615.85	1618
2616.74	1602
2617.63	1588
2618.53	1642
2619.42	1650
2620.31	1620
2621.2	1600
2622.1	1580
2622.99	1622
2623.88	1594
2624.77	1588
2625.66	1588
2626.55	1532
2627.45	1554
2628.34	1538
2629.23	1594
2630.12	1556
2631.01	1578
2631.9	1566
2632.79	1568
2633.68	1528
2634.57	1578
2635.46	1600
2636.35	1532
2637.24	1516
2638.13	1544
2639.02	1506
2639.91	1528
2640.8	1520
2641.69	1546
2642.58	1510
2643.47	1474
2644.36	1512
2645.25	1552
2646.14	1516
2647.02	1578
2647.91	1458
2648.8	1492
2649.69	1546
2650.58	1490
2651.46	1488
2652.35	1464
2653.24	1484
2654.13	1430
2655.01	1450
2655.9	1442
2656.79	1492
2657.68	1496
2658.56	1468
2659.45	1480
2660.34	1454
2661.22	1478
2662.11	1480
2662.99	1418
2663.88	1478
2664.77	1468
2665.65	1482
2666.54	1430
2667.42	1468
2668.31	1426
2669.2	1464
2670.08	1490
2670.96	1450
2671.85	1430
2672.73	1412
2673.62	1386
2674.5	1424
2675.39	1404
2676.27	1390
2677.16	1392
2678.04	1462
2678.93	1384
2679.81	1386
2680.69	1416
2681.58	1394
2682.46	1418
2683.34	1394
2684.23	1368
2685.11	1424
2685.99	1408
2686.87	1420
2687.76	1418
2688.64	1394
2689.52	1398
2690.4	1348
2691.28	1346
2692.17	1368
2693.05	1356
2693.93	1392
2694.81	1362
2695.69	1346
2696.57	1346
2697.46	1348
2698.34	1300
2699.22	1342
2700.1	1356
2700.98	1304
2701.86	1332
2702.74	1344
2703.62	1370
2704.5	1296
2705.38	1334
2706.26	1288
2707.14	1324
2708.02	1326
2708.9	1332
2709.78	1350
2710.66	1340
2711.54	1312
2712.42	1306
2713.3	1322
2714.17	1262
2715.05	1294
2715.93	1274
2716.81	1306
2717.69	1294
2718.57	1266
2719.44	1310
2720.32	1272
2721.2	1284
2722.08	1258
2722.95	1302
2723.83	1276
2724.71	1258
2725.59	1298
2726.46	1268
2727.34	1224
2728.22	1260
2729.09	1286
2729.97	1266
2730.85	1262
2731.72	1238
2732.6	1250
2733.47	1248
2734.35	1234
2735.23	1232
2736.1	1218
2736.98	1224
2737.85	1230
2738.73	1208
2739.6	1210
2740.48	1226
2741.35	1210
2742.23	1196
2743.1	1186
2743.98	1200
2744.85	1180
2745.72	1176
2746.6	1146
2747.47	1218
2748.35	1166
2749.22	1196
2750.09	1194
2750.97	1182
2751.84	1176
2752.71	1172
2753.59	1110
2754.46	1170
2755.33	1176
2756.2	1178
2757.08	1170
2757.95	1168
2758.82	1156
2759.69	1120
2760.57	1136
2761.44	1162
2762.31	1174
2763.18	1140
2764.05	1170
2764.92	1146
2765.79	1152
2766.67	1148
2767.54	1088
2768.41	1150
2769.28	1156
2770.15	1146
2771.02	1116
2771.89	1142
2772.76	1142
2773.63	1124
2774.5	1150
2775.37	1102
2776.24	1148
2777.11	1136
2777.98	1128
2778.85	1098
2779.72	1134
2780.59	1114
2781.46	1084
2782.32	1096
2783.19	1082
2784.06	1092
2784.93	1086
2785.8	1146
2786.67	1066
2787.53	1112
2788.4	1054
2789.27	1090
2790.14	1102
2791.01	1070
2791.87	1080
2792.74	1078
2793.61	1064
2794.47	1092
2795.34	1064
2796.21	1086
2797.07	1040
2797.94	1056
2798.81	1036
2799.67	1040
2800.54	1056
2801.41	1024
2802.27	1012
2803.14	1044
2804	1054
2804.87	1054
2805.74	986
2806.6	1034
2807.47	1054
2808.33	1038
2809.2	1014
2810.06	1050
2810.93	1012
2811.79	1022
2812.65	1020
2813.52	1054
2814.38	992
2815.25	1006
2816.11	990
2816.98	1012
2817.84	1028
2818.7	1028
2819.56	1014
2820.43	994
2821.29	976
2822.16	1002
2823.02	982
2823.88	1010
2824.74	990
2825.61	942
2826.47	1014
2827.33	998
2828.19	1000
2829.05	958
2829.92	974
2830.78	958
2831.64	966
2832.5	984
2833.36	980
2834.23	966
2835.09	958
2835.95	956
2836.81	950
2837.67	968
2838.53	970
2839.39	926
2840.25	918
2841.11	954
2841.97	906
2842.83	928
2843.69	910
2844.55	944
2845.41	926
2846.27	916
2847.13	900
2847.99	904
2848.85	932
2849.71	912
2850.57	914
2851.43	932
2852.28	902
2853.14	916
2854	906
2854.86	894
2855.72	908
2856.58	884
2857.43	882
2858.29	910
2859.15	896
2860.01	902
2860.86	896
2861.72	866
2862.58	878
2863.44	888
2864.29	878
2865.15	872
2866.01	860
2866.86	868
2867.72	882
2868.58	898
2869.43	878
2870.29	830
2871.14	872
2872	864
2872.86	848
2873.71	843
2874.57	816
2875.42	852
2876.28	818
2877.13	834
2877.99	860
2878.84	828
2879.7	840
2880.55	848
2881.41	802
2882.26	834
2883.11	842
2883.97	858
2884.82	862
2885.68	806
2886.53	824
2887.39	844
2888.24	848
2889.09	828
2889.94	836
2890.8	842
2891.65	844
2892.5	830
2893.36	814
2894.21	824
2895.06	800
2895.91	818
2896.77	828
2897.62	814
2898.47	796
2899.32	848
2900.17	800
2901.03	774
2901.88	840
2902.73	794
2903.58	818
2904.43	800
2905.28	778
2906.13	810
2906.98	806
2907.84	780
2908.69	808
2909.54	810
2910.39	802
2911.24	814
2912.09	778
2912.94	794
2913.79	790
2914.64	762
2915.49	790
2916.34	770
2917.19	786
2918.03	770
2918.88	754
2919.73	762
2920.58	782
2921.43	772
2922.28	744
2923.13	778
2923.98	778
2924.82	740
2925.67	746
2926.52	766
2927.37	770
2928.22	740
2929.06	754
2929.91	696
2930.76	770
2931.61	736
2932.45	740
2933.3	766
2934.15	756
2934.99	748
2935.84	754
2936.69	752
2937.53	758
2938.38	742
2939.23	736
2940.07	752
2940.92	750
2941.76	716
2942.61	736
2943.46	764
2944.3	772
2945.15	762
2945.99	732
2946.84	716
2947.68	726
2948.53	720
2949.37	714
2950.22	724
2951.06	726
2951.9	740
2952.75	684
2953.59	744
2954.44	724
2955.28	730
2956.12	712
2956.97	734
2957.81	684
2958.65	704
2959.5	710
2960.34	724
2961.18	702
2962.03	720
2962.87	710
2963.71	694
2964.56	732
2965.4	716
2966.24	708
2967.08	704
2967.92	676
2968.77	712
2969.61	742
2970.45	692
2971.29	682
2972.13	696
2972.97	676
2973.82	686
2974.66	692
2975.5	712
2976.34	682
2977.18	672
2978.02	674
2978.86	678
2979.7	676
2980.54	652
2981.38	654
2982.22	682
2983.06	676
2983.9	666
2984.74	672
2985.58	648
2986.42	662
2987.26	670
2988.1	634
2988.94	670
2989.78	670
2990.61	666
2991.45	656
2992.29	676
2993.13	658
2993.97	652
2994.81	642
2995.64	652
2996.48	664
2997.32	650
2998.16	652
2999	672
2999.83	642
