#Acq. time (s)=	15
#Accumulations=	2
#Range (cm-¹)=	200...3000
#Windows=	3
#Autofocus=	Off
#AutoExposure=	Off
#Spike filter=	Multiple accum.
#Delay time (s)=	0
#Binning=	1
#Readout mode=	Signal
#DeNoise=	Off
#ICS correction=	Off
#Dark correction=	Off
#Inst. Process=	Off
#Instrument=	LabRAM HR Evol
#Detector=	Syncerity OE
#Objective=	x100_VIS
#Grating=	600 (500nm)
#ND Filter=	10%
#Laser=	633nm_Edge
#Hole=	49.98
#Range=	Visible
#Project=	Omar
#Sample=	03-07-23
#Site=	nop
#Title=	inside_prf
#Remark=	
#Date=	03.07.2023 14:16
#Acquired=	03.07.2023 14:16:20
201.713	2472
202.98	2510
204.247	2502
205.513	2554
206.778	2548
208.045	2556
209.311	2566
210.576	2620
211.84	2592
213.106	2614
214.371	2664
215.636	2622
216.899	2702
218.164	2646
219.428	2670
220.692	2684
221.955	2760
223.219	2692
224.482	2696
225.744	2714
227.007	2650
228.27	2744
229.531	2650
230.794	2764
232.055	2702
233.317	2804
234.579	2806
235.839	2778
237.1	2846
238.362	2810
239.621	2860
240.882	2820
242.141	2906
243.402	2934
244.661	2890
245.921	2916
247.179	2930
248.439	2914
249.698	2936
250.956	2980
252.215	2988
253.473	2972
254.731	2986
255.988	2930
257.246	3038
258.503	2910
259.761	2966
261.017	2974
262.273	3060
263.53	3026
264.786	3050
266.042	3044
267.298	3020
268.554	3002
269.809	3040
271.063	3064
272.319	3122
273.573	3050
274.828	3038
276.082	3080
277.336	3016
278.591	3088
279.844	3090
281.097	3072
282.351	3092
283.603	3162
284.855	3202
286.109	3170
287.361	3168
288.613	3252
289.866	3254
291.117	3304
292.368	3248
293.62	3232
294.871	3326
296.121	3302
297.372	3326
298.623	3318
299.873	3336
301.123	3408
302.372	3366
303.622	3392
304.872	3410
306.121	3504
307.37	3514
308.618	3428
309.866	3504
311.116	3452
312.364	3480
313.611	3460
314.859	3446
316.106	3468
317.353	3532
318.6	3502
319.848	3580
321.095	3596
322.341	3656
323.587	3602
324.833	3580
326.079	3674
327.324	3672
328.569	3654
329.814	3654
331.059	3650
332.304	3664
333.548	3648
334.792	3748
336.037	3680
337.28	3708
338.524	3808
339.767	3790
341.011	3908
342.254	3814
343.497	3866
344.739	3894
345.982	3818
347.224	3914
348.466	3886
349.708	3906
350.95	3960
352.191	3876
353.432	3936
354.673	3960
355.914	3968
357.155	3992
358.394	3928
359.634	4008
360.874	3990
362.114	3976
363.354	3960
364.593	4084
365.832	4128
367.07	4104
368.309	4212
369.548	4036
370.786	4214
372.024	4128
373.261	4126
374.499	4198
375.736	4076
376.974	4222
378.211	4156
379.447	4190
380.684	4236
381.92	4242
383.157	4192
384.392	4350
385.628	4304
386.864	4300
388.098	4294
389.333	4360
390.569	4336
391.802	4380
393.037	4372
394.272	4366
395.505	4424
396.739	4432
397.973	4472
399.206	4414
400.44	4470
401.673	4560
402.905	4486
404.138	4558
405.37	4562
406.602	4594
407.835	4616
409.066	4656
410.298	4630
411.528	4708
412.76	4678
413.99	4742
415.221	4742
416.451	4782
417.682	4684
418.911	4818
420.142	4852
421.371	4928
422.601	4924
423.83	4914
425.059	4962
426.288	4898
427.517	4892
428.745	4990
429.974	4996
431.201	4964
432.43	5044
433.657	4982
434.883	5022
436.111	5120
437.338	5116
438.565	5168
439.791	5202
441.017	5098
442.244	5230
443.469	5242
444.695	5124
445.921	5182
447.146	5260
448.37	5260
449.596	5242
450.821	5320
452.045	5254
453.27	5350
454.493	5268
455.717	5248
456.94	5392
458.165	5270
459.387	5294
460.61	5354
461.833	5374
463.056	5464
464.278	5466
465.5	5432
466.722	5422
467.945	5518
469.166	5492
470.387	5556
471.608	5432
472.829	5572
474.049	5570
475.271	5596
476.491	5600
477.711	5624
478.931	5664
480.15	5694
481.37	5704
482.589	5706
483.808	5732
485.027	5758
486.247	5834
487.465	5816
488.683	5766
489.901	5896
491.119	5828
492.337	5830
493.554	5904
494.771	5908
495.988	5976
497.205	5924
498.422	6022
499.638	6066
500.854	6010
502.07	6058
503.286	6018
504.502	6066
505.717	6100
506.933	6108
508.148	6084
509.363	6224
510.577	6182
511.792	6162
513.005	6206
514.219	6156
515.433	6268
516.647	6318
517.86	6250
519.073	6310
520.287	6328
521.5	6314
522.711	6284
523.924	6270
525.136	6368
526.348	6394
527.56	6248
528.772	6402
529.982	6316
531.194	6392
532.405	6372
533.616	6444
534.825	6420
536.036	6508
537.246	6482
538.457	6510
539.665	6502
540.875	6538
542.085	6540
543.294	6554
544.502	6538
545.712	6596
546.92	6640
548.128	6714
549.336	6678
550.545	6708
551.751	6680
552.959	6716
554.167	6792
555.373	6772
556.581	6794
557.788	6856
558.994	6788
560.2	6822
561.406	6936
562.612	6940
563.817	6932
565.023	6924
566.229	6934
567.433	6988
568.639	6950
569.843	7118
571.048	7054
572.251	7084
573.456	7204
574.659	7122
575.863	7214
577.066	7172
578.27	7180
579.472	7300
580.676	7352
581.878	7306
583.081	7338
584.283	7432
585.484	7402
586.687	7314
587.888	7428
589.09	7452
590.291	7462
591.493	7462
592.693	7584
593.893	7516
595.094	7588
596.294	7632
597.494	7626
598.694	7622
599.894	7806
601.093	7772
602.293	7780
603.491	7830
604.69	7840
605.889	7834
607.087	7878
608.285	7944
609.483	7998
610.682	8046
611.879	8112
613.076	8100
614.273	8024
615.471	8158
616.667	8170
617.864	8244
619.06	8248
620.256	8282
621.453	8364
622.648	8366
623.844	8256
625.039	8444
626.234	8524
627.429	8464
628.625	8574
629.819	8508
631.013	8578
632.208	8572
633.401	8690
634.595	8668
635.789	8732
636.982	8832
638.175	8920
639.369	8958
640.562	9054
641.755	8932
642.947	9084
644.139	9090
645.331	9134
646.523	9200
647.715	9232
648.906	9226
650.097	9248
651.288	9328
652.479	9320
653.67	9454
654.86	9402
656.051	9442
657.241	9372
658.429	9470
659.619	9624
660.808	9592
661.998	9742
663.187	9528
664.376	9688
665.565	9580
666.753	9788
667.942	9770
669.13	9718
670.317	9866
671.505	9852
672.692	9878
673.88	9844
675.067	9914
676.254	10016
677.44	10122
678.627	10042
679.813	10000
681	10106
682.184	10202
683.37	10122
684.556	10288
685.742	10174
686.926	10456
688.111	10216
689.296	10550
690.481	10390
691.664	10564
692.849	10582
694.033	10722
695.216	10756
696.4	10712
697.584	10664
698.766	10732
699.949	10832
701.133	10824
702.314	10922
703.497	11060
704.678	10970
705.861	11188
707.043	11104
708.224	11298
709.406	11374
710.586	11342
711.768	11302
712.949	11450
714.129	11500
715.31	11496
716.489	11508
717.67	11704
718.849	11722
720.029	11648
721.208	11786
722.388	11944
723.566	11920
724.746	12152
725.924	12014
727.103	12010
728.28	12090
729.458	12210
730.636	12284
731.814	12428
732.992	12338
734.168	12376
735.345	12504
736.523	12536
737.699	12640
738.876	12780
740.052	12802
741.227	12784
742.404	12828
743.579	12916
744.754	12998
745.931	13078
747.105	13112
748.28	13240
749.455	13258
750.629	13202
751.803	13222
752.977	13272
754.152	13386
755.325	13640
756.499	13540
757.672	13490
758.846	13756
760.018	13740
761.191	13892
762.363	13910
763.535	13878
764.708	14078
765.88	14116
767.052	14154
768.223	14216
769.394	14158
770.565	14496
771.737	14266
772.908	14440
774.078	14516
775.249	14544
776.419	14622
777.589	14864
778.758	14622
779.928	14744
781.097	15000
782.266	15066
783.435	15106
784.604	15110
785.773	15270
786.941	15368
788.11	15348
789.278	15508
790.446	15486
791.613	15476
792.781	15642
793.948	15700
795.115	15804
796.282	15862
797.449	16042
798.616	16084
799.782	16190
800.948	16230
802.115	16450
803.28	16472
804.446	16640
805.612	16640
806.777	16762
807.941	16936
809.106	17016
810.271	16958
811.435	17002
812.6	17220
813.764	17248
814.927	17302
816.091	17384
817.254	17478
818.418	17670
819.581	17824
820.743	17950
821.906	17954
823.069	17982
824.232	18060
825.393	18346
826.555	18302
827.717	18460
828.879	18702
830.039	18710
831.201	18938
832.362	18714
833.522	18966
834.683	19102
835.844	19200
837.003	19216
838.164	19354
839.324	19580
840.483	19774
841.643	19822
842.801	19742
843.961	19934
845.12	20132
846.278	20190
847.437	20138
848.594	20360
849.753	20452
850.91	20484
852.069	20724
853.227	20870
854.383	21046
855.541	21096
856.697	21030
857.855	21164
859.011	21354
860.168	21554
861.323	21560
862.48	21792
863.635	21922
864.79	21988
865.946	22038
867.101	22144
868.257	22216
869.411	22470
870.567	22300
871.721	22592
872.874	22746
874.029	22712
875.183	22764
876.336	22930
877.49	22998
878.643	23356
879.796	23380
880.95	23362
882.102	23404
883.254	23530
884.407	23418
885.559	23678
886.711	23864
887.862	23808
889.015	24162
890.166	24138
891.317	24322
892.467	24254
893.619	24274
894.77	24604
895.92	24662
897.07	24758
898.221	24912
899.371	25080
900.52	25214
901.669	25234
902.819	25102
903.968	25534
905.116	25550
906.266	25624
907.415	25842
908.563	26100
909.711	26130
910.859	26270
912.007	26200
913.154	26490
914.301	26504
915.449	26752
916.596	26820
917.742	26886
918.889	27144
920.036	26980
921.183	27436
922.329	27506
923.475	27484
924.621	27778
925.765	27908
926.911	27894
928.056	27834
929.201	28454
930.346	28588
931.49	28440
932.635	28696
933.779	28818
934.924	28994
936.068	29000
937.211	29332
938.355	29492
939.498	29400
940.64	29778
941.784	29798
942.926	29988
944.069	30152
945.212	30322
946.354	30552
947.495	30602
948.637	30706
949.779	31076
950.921	31114
952.062	31248
953.202	31420
954.344	31482
955.484	31644
956.625	31858
957.765	32138
958.905	32194
960.045	32214
961.184	32630
962.324	32722
963.464	32850
964.604	32900
965.742	33016
966.881	33408
968.02	33484
969.158	33594
970.296	33926
971.434	33736
972.572	33882
973.71	34108
974.847	34276
975.985	34572
977.121	34518
978.259	34696
979.396	34794
980.532	35012
981.669	35270
982.804	35446
983.941	35508
985.076	35740
986.212	35812
987.347	36088
988.483	36076
989.617	36212
990.753	36224
991.887	36684
993.022	36740
994.156	36938
995.29	36804
996.424	37466
997.558	37334
998.692	37278
999.825	37458
1000.96	38008
1002.09	37654
1003.22	38076
1004.36	38150
1005.49	38320
1006.62	38300
1007.75	38826
1008.89	38786
1010.02	39010
1011.15	39116
1012.28	39608
1013.41	39756
1014.54	39618
1015.67	40234
1016.8	40144
1017.93	40312
1019.07	40378
1020.19	40508
1021.32	40786
1022.45	41122
1023.58	41290
1024.71	41242
1025.84	41646
1026.97	41948
1028.1	41926
1029.23	42348
1030.36	42212
1031.49	42470
1032.61	43188
1033.74	42924
1034.87	43208
1036	43254
1037.12	43606
1038.25	43794
1039.38	44006
1040.5	43930
1041.63	44478
1042.76	44506
1043.88	44938
1045.01	44972
1046.14	45444
1047.26	44960
1048.39	45598
1049.51	45908
1050.64	46212
1051.76	45902
1052.89	46496
1054.01	46386
1055.14	46996
1056.26	46964
1057.38	47124
1058.51	47396
1059.63	47522
1060.75	47662
1061.88	47830
1063	47998
1064.12	48328
1065.25	48358
1066.37	48564
1067.49	48788
1068.61	48850
1069.73	49098
1070.86	49080
1071.98	49362
1073.1	49524
1074.22	49592
1075.34	49656
1076.46	49920
1077.58	49782
1078.7	50094
1079.82	50340
1080.94	50300
1082.06	50520
1083.18	51044
1084.3	50876
1085.42	50850
1086.54	51164
1087.66	50994
1088.78	51488
1089.9	51360
1091.02	51536
1092.14	51580
1093.25	51592
1094.37	51784
1095.49	52178
1096.61	52348
1097.72	52056
1098.84	52240
1099.96	52500
1101.08	52688
1102.19	52554
1103.31	52812
1104.43	53012
1105.54	52756
1106.66	53334
1107.77	53286
1108.89	53460
1110	53834
1111.12	53654
1112.23	53720
1113.35	53996
1114.46	54212
1115.58	54384
1116.69	54224
1117.81	54332
1118.92	54572
1120.03	54896
1121.15	55268
1122.26	55140
1123.37	55414
1124.49	55424
1125.6	55688
1126.71	55854
1127.83	55804
1128.94	55638
1130.05	56150
1131.16	56330
1132.27	56648
1133.39	56946
1134.5	56978
1135.61	56726
1136.72	56932
1137.83	57532
1138.94	57390
1140.05	57386
1141.16	57556
1142.27	57580
1143.38	57828
1144.49	57850
1145.6	57968
1146.71	58216
1147.82	58298
1148.93	58646
1150.04	58722
1151.15	58610
1152.26	58890
1153.36	58886
1154.47	59008
1155.58	59264
1156.69	59290
1157.8	59210
1158.9	59584
1160.01	59386
1161.12	59438
1162.22	59642
1163.33	59986
1164.44	59938
1165.54	59920
1166.65	60236
1167.76	60030
1168.86	60006
1169.97	60428
1171.07	60342
1172.18	60130
1173.28	60318
1174.39	60382
1175.49	60494
1176.6	60710
1177.7	60666
1178.81	60358
1179.91	60760
1181.02	60286
1182.12	60286
1183.22	60170
1184.33	60328
1185.43	60292
1186.53	60312
1187.63	60304
1188.74	60296
1189.84	60406
1190.94	60136
1192.04	60138
1193.15	60088
1194.25	59942
1195.35	60044
1196.45	60180
1197.55	59622
1198.65	59720
1199.75	59808
1200.85	59742
1201.95	59430
1203.05	59420
1204.16	59432
1205.25	59400
1206.35	59572
1207.45	59156
1208.55	59290
1209.65	59280
1210.75	59206
1211.85	58814
1212.95	58994
1214.05	58920
1215.15	58740
1216.24	58656
1217.34	58452
1218.44	58480
1219.54	58422
1220.64	58162
1221.73	58136
1222.83	58156
1223.93	58118
1225.02	58064
1226.12	58098
1227.22	57932
1228.31	57958
1229.41	57926
1230.5	57518
1231.6	57526
1232.7	57552
1233.79	57486
1234.89	57732
1235.98	57280
1237.08	57096
1238.17	57042
1239.26	56946
1240.36	57182
1241.45	56818
1242.55	57334
1243.64	56982
1244.73	56774
1245.83	56740
1246.92	56490
1248.01	56668
1249.11	56258
1250.2	56596
1251.29	56236
1252.38	56234
1253.48	56304
1254.57	56060
1255.66	56204
1256.75	56034
1257.84	55560
1258.93	55900
1260.03	55612
1261.12	55734
1262.21	55662
1263.3	55280
1264.39	55558
1265.48	55214
1266.57	55436
1267.66	55418
1268.75	54964
1269.84	54890
1270.93	55254
1272.02	54998
1273.11	54818
1274.19	54906
1275.28	54414
1276.37	54286
1277.46	54676
1278.55	54410
1279.64	54278
1280.72	54332
1281.81	53822
1282.9	53804
1283.98	53599.7
1285.07	53739.4
1286.16	53650.2
1287.25	53591.8
1288.33	53377.6
1289.42	53175.3
1290.5	53087.5
1291.59	53037.3
1292.68	52661.4
1293.76	52825.4
1294.85	52860.7
1295.93	52537.7
1297.02	52442.5
1298.1	52359.6
1299.19	52160.3
1300.27	51929.6
1301.36	52141.3
1302.44	51741.8
1303.53	51724
1304.61	51697.1
1305.69	51566.8
1306.78	51126.1
1307.86	51385.7
1308.94	51080.6
1310.03	50946.9
1311.11	50825.2
1312.19	50901.1
1313.27	50645.6
1314.36	50412.6
1315.44	50397.2
1316.52	50458.7
1317.6	50089
1318.68	50213.4
1319.77	49969.7
1320.85	50099
1321.93	49768.7
1323.01	49739.5
1324.09	49389
1325.17	49396.8
1326.25	49265.3
1327.33	49218
1328.41	49044.2
1329.49	48960.8
1330.57	48850.7
1331.65	48493.2
1332.73	48558.2
1333.81	48453
1334.89	48229.4
1335.97	48191.3
1337.04	48114.8
1338.12	47899.3
1339.2	47900.1
1340.28	47753.2
1341.36	47774.8
1342.44	47754.7
1343.51	47358.2
1344.59	47200.5
1345.67	47234.3
1346.75	47013.8
1347.82	47160.1
1348.9	46952.5
1349.98	46813.1
1351.05	46637.8
1352.13	46571.7
1353.2	46339
1354.28	46475.1
1355.36	46354.4
1356.43	46230.1
1357.51	46058.8
1358.58	45804.4
1359.66	45924.6
1360.73	45832.4
1361.81	45735.9
1362.88	45559.7
1363.96	45333.4
1365.03	45389.1
1366.1	45407.1
1367.18	45236.2
1368.25	45188.4
1369.33	44945.9
1370.4	45088
1371.47	44955.2
1372.54	44711.2
1373.62	44560.5
1374.69	44640.4
1375.76	44438.9
1376.83	44460.1
1377.91	44590.9
1378.98	44219.9
1380.05	44128.4
1381.12	44074.2
1382.19	44018
1383.26	43912.9
1384.34	43828.4
1385.41	43783.7
1386.48	43611.1
1387.55	43638.6
1388.62	43475.7
1389.69	43350.4
1390.76	43303.4
1391.83	43065.6
1392.9	43209
1393.02	43240
1394.1	43222
1395.17	43040
1396.25	42824
1397.32	42830
1398.4	42926
1399.47	42718
1400.55	42308
1401.62	42380
1402.69	42318
1403.77	42224
1404.84	42202
1405.91	41990
1406.99	41930
1408.06	41538
1409.13	41640
1410.2	41770
1411.27	41538
1412.35	41382
1413.42	41472
1414.49	41260
1415.56	41182
1416.63	41064
1417.7	41026
1418.78	40874
1419.85	40908
1420.92	40662
1421.99	40744
1423.06	40484
1424.13	40408
1425.2	40294
1426.27	40268
1427.34	40068
1428.41	39964
1429.48	40034
1430.55	39724
1431.61	40162
1432.68	39572
1433.75	39796
1434.82	39694
1435.89	39584
1436.96	39510
1438.02	39390
1439.09	39214
1440.16	39228
1441.23	39442
1442.3	39312
1443.36	39176
1444.43	38996
1445.5	38782
1446.56	38670
1447.63	38910
1448.7	38624
1449.76	38680
1450.83	38584
1451.89	38438
1452.96	38454
1454.02	38164
1455.09	38356
1456.15	38178
1457.22	38188
1458.28	38064
1459.35	37896
1460.41	38008
1461.48	37748
1462.54	37852
1463.61	37726
1464.67	37654
1465.73	37608
1466.8	37640
1467.86	37450
1468.92	37396
1469.98	37604
1471.05	37292
1472.11	37300
1473.17	37430
1474.24	37086
1475.3	36930
1476.36	37146
1477.42	36940
1478.48	37034
1479.54	36910
1480.6	36650
1481.67	36622
1482.73	36864
1483.79	36456
1484.85	36782
1485.91	36528
1486.97	36466
1488.03	36504
1489.09	36384
1490.15	36296
1491.21	36336
1492.27	36178
1493.33	35988
1494.38	36148
1495.44	35934
1496.5	35910
1497.56	35750
1498.62	35640
1499.68	35704
1500.74	35658
1501.79	35756
1502.85	35388
1503.91	35274
1504.97	35446
1506.02	35332
1507.08	35096
1508.14	35174
1509.2	35138
1510.25	35098
1511.31	34980
1512.36	34768
1513.42	34814
1514.48	34752
1515.53	34564
1516.59	34674
1517.64	34662
1518.7	34396
1519.75	34396
1520.81	34250
1521.86	34304
1522.92	34228
1523.97	34232
1525.02	33800
1526.08	34152
1527.13	33998
1528.19	33914
1529.24	33916
1530.29	33742
1531.35	33670
1532.4	33738
1533.45	33474
1534.51	33364
1535.56	33054
1536.61	33352
1537.66	33430
1538.72	33120
1539.77	33144
1540.82	33188
1541.87	32748
1542.92	32882
1543.97	32920
1545.02	32862
1546.08	32670
1547.13	32680
1548.18	32676
1549.23	32384
1550.28	32390
1551.33	32328
1552.38	32460
1553.43	32322
1554.48	32202
1555.53	32204
1556.57	32134
1557.62	32124
1558.67	31944
1559.72	32038
1560.77	31908
1561.82	32078
1562.87	31784
1563.92	31542
1564.96	31846
1566.01	31682
1567.06	31592
1568.11	31576
1569.15	31680
1570.2	31596
1571.25	31318
1572.29	31538
1573.34	31282
1574.39	31086
1575.43	31450
1576.48	31164
1577.53	31122
1578.57	30950
1579.62	31050
1580.66	30752
1581.71	31016
1582.75	31078
1583.8	30878
1584.84	31002
1585.89	30974
1586.93	30984
1587.98	30862
1589.02	30890
1590.06	30634
1591.11	30694
1592.15	30678
1593.2	30608
1594.24	30592
1595.28	30622
1596.33	30540
1597.37	30490
1598.41	30584
1599.45	30440
1600.5	30496
1601.54	30476
1602.58	30444
1603.62	30354
1604.66	30338
1605.7	30396
1606.75	30230
1607.79	30292
1608.83	30412
1609.87	30204
1610.91	30136
1611.95	30132
1612.99	30114
1614.03	30188
1615.07	30118
1616.11	30120
1617.15	29968
1618.19	30170
1619.23	29830
1620.27	29790
1621.31	29870
1622.35	29960
1623.39	30026
1624.43	29958
1625.46	29918
1626.5	29834
1627.54	29614
1628.58	29526
1629.62	29888
1630.65	29604
1631.69	29594
1632.73	29662
1633.77	29482
1634.8	29700
1635.84	29426
1636.88	29478
1637.91	29362
1638.95	29438
1639.99	29486
1641.02	29236
1642.06	29200
1643.09	29122
1644.13	29164
1645.16	29066
1646.2	29072
1647.23	28854
1648.27	29136
1649.3	29048
1650.34	29068
1651.37	28866
1652.41	29078
1653.44	28640
1654.47	28934
1655.51	28816
1656.54	28696
1657.57	28792
1658.61	28982
1659.64	28776
1660.67	28710
1661.71	28578
1662.74	28520
1663.77	28428
1664.81	28540
1665.84	28508
1666.87	28400
1667.9	28370
1668.93	28232
1669.96	28212
1671	28244
1672.03	27994
1673.06	28236
1674.09	28106
1675.12	28114
1676.15	28036
1677.18	27984
1678.21	27646
1679.24	28020
1680.27	27954
1681.3	27978
1682.33	27792
1683.36	27660
1684.39	27660
1685.42	27870
1686.45	27510
1687.47	27598
1688.5	27520
1689.53	27542
1690.56	27594
1691.59	27434
1692.62	27384
1693.64	27174
1694.67	27268
1695.7	27136
1696.73	27214
1697.75	27324
1698.78	27230
1699.81	27230
1700.83	27280
1701.86	27074
1702.89	26958
1703.91	27034
1704.94	27104
1705.97	26968
1706.99	26996
1708.02	27002
1709.04	26834
1710.07	26764
1711.09	26966
1712.12	26988
1713.14	26698
1714.17	26980
1715.19	26768
1716.22	26782
1717.24	26738
1718.26	26586
1719.29	26728
1720.31	26614
1721.33	26644
1722.36	26564
1723.38	26688
1724.4	26504
1725.43	26628
1726.45	26520
1727.47	26408
1728.49	26278
1729.52	26452
1730.54	26318
1731.56	26520
1732.58	26290
1733.6	26360
1734.63	26258
1735.65	26390
1736.67	26328
1737.69	26232
1738.71	26216
1739.73	26156
1740.75	26296
1741.77	26152
1742.79	26184
1743.81	25926
1744.83	26334
1745.85	26256
1746.87	26174
1747.89	26038
1748.91	25916
1749.93	26138
1750.95	25982
1751.97	25940
1752.98	26012
1754	25866
1755.02	25992
1756.04	25990
1757.06	26122
1758.07	26040
1759.09	26048
1760.11	26120
1761.13	25906
1762.14	25928
1763.16	25864
1764.18	25834
1765.19	25906
1766.21	25872
1767.23	26034
1768.24	25788
1769.26	25906
1770.28	25758
1771.29	26002
1772.31	25976
1773.32	25930
1774.34	25942
1775.35	25758
1776.37	25758
1777.38	25790
1778.4	25686
1779.41	25846
1780.43	25666
1781.44	25786
1782.45	25960
1783.47	25748
1784.48	25624
1785.49	25600
1786.51	25550
1787.52	25788
1788.53	25748
1789.55	25488
1790.56	25698
1791.57	25832
1792.58	25558
1793.6	25422
1794.61	25566
1795.62	25406
1796.63	25628
1797.64	25472
1798.66	25554
1799.67	25636
1800.68	25548
1801.69	25602
1802.7	25576
1803.71	25446
1804.72	25352
1805.73	25438
1806.74	25482
1807.75	25272
1808.76	25250
1809.77	25380
1810.78	25344
1811.79	25262
1812.8	25280
1813.81	25190
1814.82	25118
1815.83	25178
1816.84	25226
1817.84	25260
1818.85	25128
1819.86	25132
1820.87	25148
1821.88	25364
1822.88	25078
1823.89	24928
1824.9	24926
1825.91	25210
1826.91	25118
1827.92	25042
1828.93	25110
1829.93	25012
1830.94	24876
1831.95	24746
1832.95	24766
1833.96	24876
1834.97	24722
1835.97	24772
1836.98	24712
1837.98	24722
1838.99	24484
1839.99	24682
1841	24622
1842	24690
1843.01	24446
1844.01	24578
1845.02	24492
1846.02	24632
1847.02	24468
1848.03	24410
1849.03	24598
1850.03	24358
1851.04	24414
1852.04	24322
1853.04	24492
1854.05	24504
1855.05	24362
1856.05	24290
1857.05	24296
1858.06	24286
1859.06	24340
1860.06	24452
1861.06	24316
1862.06	24250
1863.07	24394
1864.07	24410
1865.07	24270
1866.07	24482
1867.07	24280
1868.07	24266
1869.07	24206
1870.07	24216
1871.07	24214
1872.07	24186
1873.07	24190
1874.07	24220
1875.07	24132
1876.07	24046
1877.07	24196
1878.07	24258
1879.07	24256
1880.07	24188
1881.07	24130
1882.07	23968
1883.06	24032
1884.06	24130
1885.06	24114
1886.06	23974
1887.06	24064
1888.05	23998
1889.05	24078
1890.05	23934
1891.05	23958
1892.04	24082
1893.04	24078
1894.04	23890
1895.03	23900
1896.03	24116
1897.03	24070
1898.02	23932
1899.02	23880
1900.01	23964
1901.01	23994
1902	23912
1903	23782
1903.99	23990
1904.99	24070
1905.98	24000
1906.98	23982
1907.97	23846
1908.97	23782
1909.96	23780
1910.96	23642
1911.95	24026
1912.94	23880
1913.94	23844
1914.93	23852
1915.93	23976
1916.92	23982
1917.91	23764
1918.9	23826
1919.9	24050
1920.89	23854
1921.88	23632
1922.87	23706
1923.87	23808
1924.86	23640
1925.85	23524
1926.84	23852
1927.83	23836
1928.82	23692
1929.82	23836
1930.81	23814
1931.8	23824
1932.79	23802
1933.78	23724
1934.77	23590
1935.76	23790
1936.75	23718
1937.74	23782
1938.73	23744
1939.72	23650
1940.71	23578
1941.7	23458
1942.69	23606
1943.68	23692
1944.67	23612
1945.65	23434
1946.64	23484
1947.63	23520
1948.62	23494
1949.61	23462
1950.6	23412
1951.58	23488
1952.57	23520
1953.56	23484
1954.55	23414
1955.53	23404
1956.52	23450
1957.51	23270
1958.5	23396
1959.48	23414
1960.47	23290
1961.45	23406
1962.44	23256
1963.43	23268
1964.41	23354
1965.4	23166
1966.38	23322
1967.37	23222
1968.35	23250
1969.34	23232
1970.32	23214
1971.31	23222
1972.29	23116
1973.28	23216
1974.26	23024
1975.25	22984
1976.23	23020
1977.22	22982
1978.2	22906
1979.18	23018
1980.17	23006
1981.15	23140
1982.13	23058
1983.12	22814
1984.1	22932
1985.08	22836
1986.06	22942
1987.05	23000
1988.03	23040
1989.01	23176
1989.99	23084
1990.97	22862
1991.96	22824
1992.94	22778
1993.92	22932
1994.9	22906
1995.88	22870
1996.86	22848
1997.84	22746
1998.82	22912
1999.8	22932
2000.78	22602
2001.76	22810
2002.74	22904
2003.72	22786
2004.7	22782
2005.68	22792
2006.66	22494
2007.64	22828
2008.62	22836
2009.6	22720
2010.58	22822
2011.56	22614
2012.54	22952
2013.51	22690
2014.49	22700
2015.47	22814
2016.45	22654
2017.43	22612
2018.4	22752
2019.38	22644
2020.36	22608
2021.34	22686
2022.31	22754
2023.29	22738
2024.27	22656
2025.24	22658
2026.22	22692
2027.2	22772
2028.17	22682
2029.15	22582
2030.12	22762
2031.1	22700
2032.07	22592
2033.05	22584
2034.03	22608
2035	22510
2035.98	22510
2036.95	22492
2037.93	22556
2038.9	22424
2039.87	22626
2040.85	22340
2041.82	22460
2042.8	22550
2043.77	22402
2044.74	22528
2045.72	22432
2046.69	22504
2047.66	22422
2048.64	22478
2049.61	22400
2050.58	22378
2051.55	22594
2052.53	22502
2053.5	22542
2054.47	22370
2055.44	22328
2056.41	22436
2057.39	22406
2058.36	22306
2059.33	22476
2060.3	22364
2061.27	22270
2062.24	22288
2063.21	22444
2064.18	22454
2065.15	22234
2066.12	22438
2067.09	22366
2068.06	22240
2069.03	22244
2070	22312
2070.97	22220
2071.94	22358
2072.91	22194
2073.88	22218
2074.85	22234
2075.82	22288
2076.79	22252
2077.76	22214
2078.73	22132
2079.69	22212
2080.66	22132
2081.63	22052
2082.6	22010
2083.56	22138
2084.53	22064
2085.5	22014
2086.47	22158
2087.43	22178
2088.4	21966
2089.37	22146
2090.33	22150
2091.3	22110
2092.27	22162
2093.23	22126
2094.2	22190
2095.17	22134
2096.13	21870
2097.1	22020
2098.06	22072
2099.03	22040
2099.99	22012
2100.96	21956
2101.92	21958
2102.89	22070
2103.85	21954
2104.82	22084
2105.78	21890
2106.74	21980
2107.71	22062
2108.67	22100
2109.64	21898
2110.6	21944
2111.56	21822
2112.53	21982
2113.49	21842
2114.45	21970
2115.41	22086
2116.38	21986
2117.34	22076
2118.3	21848
2119.26	21918
2120.23	21866
2121.19	21914
2122.15	21830
2123.11	21842
2124.07	21830
2125.03	21948
2126	21828
2126.96	21854
2127.92	21852
2128.88	21948
2129.84	21936
2130.8	21760
2131.76	21762
2132.72	21718
2133.68	21614
2134.64	21784
2135.6	21722
2136.56	21644
2137.52	21752
2138.48	21782
2139.44	21822
2140.4	21694
2141.35	21690
2142.31	21566
2143.27	21596
2144.23	21684
2145.19	21592
2146.15	21532
2147.1	21588
2148.06	21640
2149.02	21482
2149.98	21610
2150.94	21630
2151.89	21448
2152.85	21484
2153.81	21498
2154.76	21512
2155.72	21454
2156.68	21520
2157.63	21338
2158.59	21430
2159.55	21450
2160.5	21346
2161.46	21352
2162.41	21430
2163.37	21436
2164.32	21434
2165.28	21416
2166.23	21316
2167.19	21202
2168.14	21334
2169.1	21300
2170.05	21062
2171.01	21188
2171.96	21202
2172.91	21130
2173.87	21274
2174.82	21160
2175.78	21268
2176.73	21106
2177.68	21066
2178.64	21048
2179.59	21246
2180.54	21070
2181.49	20950
2182.45	21040
2183.4	20930
2184.35	20968
2185.3	21194
2186.26	20938
2187.21	21030
2188.16	20980
2189.11	20994
2190.06	20890
2191.01	20866
2191.96	20878
2192.92	20792
2193.87	20854
2194.82	20900
2195.77	20528
2196.72	20786
2197.67	20754
2198.62	20712
2199.57	20592
2200.52	20778
2201.47	20574
2202.42	20658
2203.37	20748
2204.32	20508
2205.27	20666
2206.22	20642
2207.16	20572
2208.11	20560
2209.06	20648
2210.01	20714
2210.96	20556
2211.91	20598
2212.85	20682
2213.8	20686
2214.75	20628
2215.7	20640
2216.64	20600
2217.59	20558
2218.54	20694
2219.49	20582
2220.43	20690
2221.38	20520
2222.33	20480
2223.27	20526.1
2224.22	20527.9
2225.16	20511.6
2226.11	20516.4
2227.06	20448.6
2228	20509.4
2228.95	20634.8
2229.89	20626.4
2230.84	20649.6
2231.78	20577.1
2232.73	20628
2233.67	20677
2234.62	20584.6
2235.56	20588.4
2236.51	20599
2237.45	20588.1
2238.4	20693.1
2239.34	20709.6
2240.28	20576.8
2241.23	20639.5
2242.17	20623.9
2243.11	20666
2244.06	20657.5
2245	20613.1
2245.94	20603.6
2246.89	20564.4
2247.83	20606.4
2248.77	20605.4
2249.71	20574.8
2250.66	20624.4
2251.6	20516.6
2252.54	20604.3
2253.48	20669.8
2254.42	20596.4
2255.37	20551.8
2256.31	20577.2
2257.25	20591.8
2258.19	20552
2259.13	20559.5
2260.07	20491
2261.01	20640.2
2261.95	20680.5
2262.89	20671
2263.83	20632.3
2264.77	20646.7
2265.71	20551
2266.65	20579.3
2267.59	20664.9
2268.53	20475.2
2269.47	20562.5
2270.41	20475.5
2271.35	20565.7
2272.29	20592.3
2273.23	20628.6
2274.17	20537.7
2275.1	20460.4
2276.04	20475.5
2276.98	20431.8
2277.92	20585.7
2278.86	20554.8
2279.8	20519.5
2280.73	20480
2281.67	20522.1
2282.61	20432.2
2283.55	20567
2284.48	20368.9
2285.42	20431.7
2286.36	20460.5
2287.29	20402.4
2288.23	20441.2
2289.17	20555.1
2290.1	20426.6
2291.04	20446.7
2291.98	20519.3
2292.91	20418.4
2293.85	20457.3
2294.78	20375.7
2295.72	20290
2296.65	20354
2297.59	20365.5
2298.52	20381.4
2299.46	20444.5
2300.39	20416.9
2301.33	20379.8
2302.26	20343
2303.2	20341.2
2304.13	20297.7
2305.06	20273.4
2306	20219.1
2306.93	20232.9
2307.87	20219.7
2308.8	20220
2309.73	20209.3
2310.67	20192.4
2311.6	20229.2
2312.53	20263.3
2313.46	20263.3
2314.4	20133.8
2315.33	20120
2316.26	20192.3
2316.69	20200
2317.62	20072
2318.56	20188
2319.5	20150
2320.43	20118
2321.37	20186
2322.31	20070
2323.24	20102
2324.18	20050
2325.12	19934
2326.05	20002
2326.99	19898
2327.92	19742
2328.86	20112
2329.79	19960
2330.73	19974
2331.66	20062
2332.6	19946
2333.53	19958
2334.47	19726
2335.4	19876
2336.34	19868
2337.27	19946
2338.2	19786
2339.14	19768
2340.07	19956
2341.01	19702
2341.94	19856
2342.87	19900
2343.81	19892
2344.74	19932
2345.67	19676
2346.6	19640
2347.54	19818
2348.47	19888
2349.4	19730
2350.33	19520
2351.27	19780
2352.2	19706
2353.13	19662
2354.06	19568
2354.99	19524
2355.93	19668
2356.86	19640
2357.79	19516
2358.72	19544
2359.65	19502
2360.58	19576
2361.51	19732
2362.44	19570
2363.37	19460
2364.3	19390
2365.23	19356
2366.16	19346
2367.09	19456
2368.02	19340
2368.95	19350
2369.88	19310
2370.81	19214
2371.74	19198
2372.67	19350
2373.6	19248
2374.52	19078
2375.45	19092
2376.38	18942
2377.31	19222
2378.24	19016
2379.17	19232
2380.09	19180
2381.02	19136
2381.95	19136
2382.88	19044
2383.8	19060
2384.73	19088
2385.66	19010
2386.58	18928
2387.51	18940
2388.44	18932
2389.36	18954
2390.29	18992
2391.22	18894
2392.14	18834
2393.07	18686
2393.99	18848
2394.92	18734
2395.85	18872
2396.77	18686
2397.7	18664
2398.62	18624
2399.55	18652
2400.47	18558
2401.4	18722
2402.32	18696
2403.25	18544
2404.17	18582
2405.09	18546
2406.02	18520
2406.94	18428
2407.86	18268
2408.79	18472
2409.71	18372
2410.63	18308
2411.56	18322
2412.48	18362
2413.4	18160
2414.33	18304
2415.25	18272
2416.17	18168
2417.09	18200
2418.02	18072
2418.94	18266
2419.86	18256
2420.78	18122
2421.7	17920
2422.63	18090
2423.55	18020
2424.47	17976
2425.39	18014
2426.31	17896
2427.23	17848
2428.15	18004
2429.07	17912
2429.99	17888
2430.91	17848
2431.83	17762
2432.75	17796
2433.67	17756
2434.59	17756
2435.51	17730
2436.43	17766
2437.35	17754
2438.27	17676
2439.19	17652
2440.11	17666
2441.03	17586
2441.95	17524
2442.86	17510
2443.78	17634
2444.7	17474
2445.62	17488
2446.54	17374
2447.46	17476
2448.37	17448
2449.29	17354
2450.21	17382
2451.13	17294
2452.04	17238
2452.96	17352
2453.88	17338
2454.79	17220
2455.71	17242
2456.63	17148
2457.54	17110
2458.46	17144
2459.38	17114
2460.29	17040
2461.21	16962
2462.12	17114
2463.04	17000
2463.95	16970
2464.87	16936
2465.78	16932
2466.7	17138
2467.61	16890
2468.53	16816
2469.44	16882
2470.36	16738
2471.27	16922
2472.19	16828
2473.1	16834
2474.01	16732
2474.93	16764
2475.84	16674
2476.76	16684
2477.67	16660
2478.58	16642
2479.5	16596
2480.41	16480
2481.32	16454
2482.23	16416
2483.15	16558
2484.06	16496
2484.97	16464
2485.88	16546
2486.8	16224
2487.71	16374
2488.62	16328
2489.53	16318
2490.44	16260
2491.35	16214
2492.26	16170
2493.18	16216
2494.09	16238
2495	16106
2495.91	16032
2496.82	16166
2497.73	16138
2498.64	16066
2499.55	15926
2500.46	16080
2501.37	15948
2502.28	15996
2503.19	15920
2504.1	15872
2505.01	15878
2505.92	15748
2506.83	15848
2507.74	15820
2508.65	15908
2509.55	15742
2510.46	15648
2511.37	15632
2512.28	15702
2513.19	15628
2514.09	15614
2515	15648
2515.91	15642
2516.82	15594
2517.73	15486
2518.63	15552
2519.54	15318
2520.45	15452
2521.35	15416
2522.26	15330
2523.17	15398
2524.07	15382
2524.98	15416
2525.89	15284
2526.79	15284
2527.7	15252
2528.6	15056
2529.51	15142
2530.42	15132
2531.32	15198
2532.23	15174
2533.13	15106
2534.04	15076
2534.94	15000
2535.85	14990
2536.75	14890
2537.66	14824
2538.56	14978
2539.47	14896
2540.37	14798
2541.27	14982
2542.18	14860
2543.08	14990
2543.98	14868
2544.89	14938
2545.79	14700
2546.7	14708
2547.6	14738
2548.5	14688
2549.4	14776
2550.31	14670
2551.21	14630
2552.11	14504
2553.01	14650
2553.92	14558
2554.82	14472
2555.72	14454
2556.62	14510
2557.52	14496
2558.42	14418
2559.33	14400
2560.23	14416
2561.13	14432
2562.03	14332
2562.93	14312
2563.83	14320
2564.73	14196
2565.63	14194
2566.53	14274
2567.43	14270
2568.33	14210
2569.23	14118
2570.13	14126
2571.03	14202
2571.93	14106
2572.83	14080
2573.73	14030
2574.63	14028
2575.53	13968
2576.43	13956
2577.33	13946
2578.22	13922
2579.12	13840
2580.02	13804
2580.92	13810
2581.82	13774
2582.72	13750
2583.61	13750
2584.51	13790
2585.41	13800
2586.31	13874
2587.2	13700
2588.1	13720
2589	13608
2589.89	13544
2590.79	13552
2591.69	13424
2592.58	13654
2593.48	13540
2594.38	13498
2595.27	13530
2596.17	13376
2597.06	13400
2597.96	13430
2598.86	13416
2599.75	13400
2600.65	13290
2601.54	13220
2602.44	13316
2603.33	13318
2604.23	13162
2605.12	13246
2606.02	13310
2606.91	13096
2607.81	13094
2608.7	13066
2609.59	12992
2610.49	13024
2611.38	12972
2612.27	13060
2613.17	12978
2614.06	12916
2614.95	12920
2615.85	12954
2616.74	12974
2617.63	12894
2618.53	12874
2619.42	12860
2620.31	12848
2621.2	12794
2622.1	12902
2622.99	12752
2623.88	12712
2624.77	12756
2625.66	12722
2626.55	12688
2627.45	12708
2628.34	12562
2629.23	12566
2630.12	12446
2631.01	12470
2631.9	12614
2632.79	12468
2633.68	12348
2634.57	12498
2635.46	12380
2636.35	12326
2637.24	12498
2638.13	12466
2639.02	12284
2639.91	12260
2640.8	12308
2641.69	12272
2642.58	12156
2643.47	12186
2644.36	12248
2645.25	12124
2646.14	12162
2647.02	12110
2647.91	12072
2648.8	12128
2649.69	12118
2650.58	12020
2651.46	11982
2652.35	11940
2653.24	12008
2654.13	11978
2655.01	11942
2655.9	11868
2656.79	11910
2657.68	11974
2658.56	11724
2659.45	11848
2660.34	11762
2661.22	11924
2662.11	11696
2662.99	11794
2663.88	11884
2664.77	11694
2665.65	11790
2666.54	11720
2667.42	11634
2668.31	11752
2669.2	11584
2670.08	11650
2670.96	11474
2671.85	11642
2672.73	11614
2673.62	11554
2674.5	11612
2675.39	11624
2676.27	11492
2677.16	11506
2678.04	11518
2678.93	11396
2679.81	11418
2680.69	11454
2681.58	11476
2682.46	11386
2683.34	11222
2684.23	11314
2685.11	11172
2685.99	11232
2686.87	11244
2687.76	11292
2688.64	11234
2689.52	11260
2690.4	11232
2691.28	11156
2692.17	11254
2693.05	11066
2693.93	11136
2694.81	11088
2695.69	11050
2696.57	11104
2697.46	10936
2698.34	10916
2699.22	10904
2700.1	10940
2700.98	10852
2701.86	10984
2702.74	10850
2703.62	10892
2704.5	10784
2705.38	10746
2706.26	10774
2707.14	10546
2708.02	10770
2708.9	10778
2709.78	10692
2710.66	10668
2711.54	10658
2712.42	10658
2713.3	10624
2714.17	10596
2715.05	10426
2715.93	10532
2716.81	10556
2717.69	10426
2718.57	10574
2719.44	10372
2720.32	10380
2721.2	10440
2722.08	10392
2722.95	10450
2723.83	10374
2724.71	10264
2725.59	10400
2726.46	10352
2727.34	10170
2728.22	10316
2729.09	10082
2729.97	10174
2730.85	10230
2731.72	10174
2732.6	10124
2733.47	10090
2734.35	10082
2735.23	10062
2736.1	10156
2736.98	9990
2737.85	9978
2738.73	10006
2739.6	9928
2740.48	9850
2741.35	9888
2742.23	9918
2743.1	9866
2743.98	9816
2744.85	9856
2745.72	9740
2746.6	9870
2747.47	9644
2748.35	9748
2749.22	9762
2750.09	9686
2750.97	9780
2751.84	9674
2752.71	9762
2753.59	9712
2754.46	9670
2755.33	9570
2756.2	9672
2757.08	9544
2757.95	9532
2758.82	9550
2759.69	9592
2760.57	9594
2761.44	9338
2762.31	9416
2763.18	9502
2764.05	9500
2764.92	9450
2765.79	9424
2766.67	9382
2767.54	9348
2768.41	9298
2769.28	9260
2770.15	9232
2771.02	9260
2771.89	9254
2772.76	9172
2773.63	9266
2774.5	9194
2775.37	9182
2776.24	9150
2777.11	9046
2777.98	9144
2778.85	9052
2779.72	8982
2780.59	9082
2781.46	8990
2782.32	9064
2783.19	8992
2784.06	9014
2784.93	8954
2785.8	9092
2786.67	9034
2787.53	9030
2788.4	8954
2789.27	8928
2790.14	8864
2791.01	8922
2791.87	8864
2792.74	8864
2793.61	8776
2794.47	8844
2795.34	8722
2796.21	8810
2797.07	8626
2797.94	8708
2798.81	8638
2799.67	8746
2800.54	8632
2801.41	8572
2802.27	8698
2803.14	8546
2804	8660
2804.87	8624
2805.74	8636
2806.6	8580
2807.47	8518
2808.33	8432
2809.2	8504
2810.06	8470
2810.93	8368
2811.79	8496
2812.65	8378
2813.52	8440
2814.38	8370
2815.25	8382
2816.11	8420
2816.98	8264
2817.84	8244
2818.7	8310
2819.56	8286
2820.43	8320
2821.29	8304
2822.16	8168
2823.02	8182
2823.88	8204
2824.74	8190
2825.61	8174
2826.47	8172
2827.33	8152
2828.19	8114
2829.05	8062
2829.92	8142
2830.78	8134
2831.64	7928
2832.5	8066
2833.36	7998
2834.23	7996
2835.09	7946
2835.95	7872
2836.81	8000
2837.67	7830
2838.53	7962
2839.39	7822
2840.25	7808
2841.11	7838
2841.97	7816
2842.83	7836
2843.69	7774
2844.55	7728
2845.41	7696
2846.27	7682
2847.13	7682
2847.99	7706
2848.85	7642
2849.71	7696
2850.57	7638
2851.43	7576
2852.28	7624
2853.14	7520
2854	7632
2854.86	7630
2855.72	7604
2856.58	7512
2857.43	7386
2858.29	7560
2859.15	7344
2860.01	7440
2860.86	7460
2861.72	7478
2862.58	7428
2863.44	7432
2864.29	7368
2865.15	7414
2866.01	7282
2866.86	7384
2867.72	7288
2868.58	7280
2869.43	7260
2870.29	7284
2871.14	7262
2872	7290
2872.86	7218
2873.71	7169
2874.57	7120
2875.42	7242
2876.28	7108
2877.13	7176
2877.99	7188
2878.84	7016
2879.7	7078
2880.55	7052
2881.41	7152
2882.26	7024
2883.11	7034
2883.97	7052
2884.82	7030
2885.68	6966
2886.53	6970
2887.39	6972
2888.24	6954
2889.09	7008
2889.94	6978
2890.8	6908
2891.65	6854
2892.5	6944
2893.36	6922
2894.21	6922
2895.06	6870
2895.91	6898
2896.77	6904
2897.62	6822
2898.47	6804
2899.32	6884
2900.17	6792
2901.03	6822
2901.88	6756
2902.73	6830
2903.58	6850
2904.43	6758
2905.28	6758
2906.13	6772
2906.98	6738
2907.84	6698
2908.69	6662
2909.54	6734
2910.39	6596
2911.24	6592
2912.09	6706
2912.94	6630
2913.79	6578
2914.64	6602
2915.49	6668
2916.34	6570
2917.19	6540
2918.03	6628
2918.88	6590
2919.73	6512
2920.58	6426
2921.43	6468
2922.28	6556
2923.13	6464
2923.98	6502
2924.82	6468
2925.67	6516
2926.52	6468
2927.37	6536
2928.22	6470
2929.06	6542
2929.91	6442
2930.76	6372
2931.61	6452
2932.45	6334
2933.3	6410
2934.15	6388
2934.99	6416
2935.84	6436
2936.69	6344
2937.53	6334
2938.38	6326
2939.23	6294
2940.07	6306
2940.92	6258
2941.76	6262
2942.61	6252
2943.46	6358
2944.3	6198
2945.15	6272
2945.99	6220
2946.84	6318
2947.68	6256
2948.53	6242
2949.37	6210
2950.22	6180
2951.06	6242
2951.9	6156
2952.75	6132
2953.59	6078
2954.44	6110
2955.28	6132
2956.12	6146
2956.97	6120
2957.81	6082
2958.65	6080
2959.5	6078
2960.34	6072
2961.18	5960
2962.03	6036
2962.87	6018
2963.71	6052
2964.56	5966
2965.4	5862
2966.24	5880
2967.08	5892
2967.92	5994
2968.77	5882
2969.61	5828
2970.45	5928
2971.29	5922
2972.13	5838
2972.97	5884
2973.82	5882
2974.66	5890
2975.5	5872
2976.34	5854
2977.18	5836
2978.02	5744
2978.86	5852
2979.7	5826
2980.54	5892
2981.38	5786
2982.22	5736
2983.06	5710
2983.9	5632
2984.74	5632
2985.58	5670
2986.42	5674
2987.26	5730
2988.1	5638
2988.94	5634
2989.78	5656
2990.61	5592
2991.45	5664
2992.29	5556
2993.13	5614
2993.97	5576
2994.81	5554
2995.64	5576
2996.48	5624
2997.32	5538
2998.16	5580
2999	5512
2999.83	5522
