#Acq. time (s)=	20
#Accumulations=	1
#Range (cm-¹)=	200...3000
#Windows=	3
#Autofocus=	Off
#AutoExposure=	Off
#Spike filter=	Off
#Delay time (s)=	0
#Binning=	1
#Readout mode=	Signal
#DeNoise=	Off
#ICS correction=	Off
#Dark correction=	Off
#Inst. Process=	Off
#Instrument=	LabRAM HR Evol
#Detector=	Syncerity OE
#Objective=	x100_VIS
#Grating=	600 (500nm)
#ND Filter=	0.01%
#Laser=	633nm_Edge
#Hole=	49.98
#Range=	Visible
#Project=	Omar
#Sample=	03-07-23
#Site=	nop
#Title=	inside_prf
#Remark=	
#Date=	03.07.2023 14:35
#Acquired=	03.07.2023 14:35:02
201.713	62
202.98	70
204.247	56
205.513	70
206.778	64
208.045	58
209.311	60
210.576	70
211.84	58
213.106	74
214.371	66
215.636	62
216.899	70
218.164	58
219.428	70
220.692	78
221.955	72
223.219	58
224.482	70
225.744	68
227.007	72
228.27	76
229.531	68
230.794	76
232.055	66
233.317	64
234.579	76
235.839	70
237.1	92
238.362	64
239.621	80
240.882	80
242.141	78
243.402	70
244.661	70
245.921	76
247.179	74
248.439	76
249.698	64
250.956	68
252.215	86
253.473	76
254.731	82
255.988	76
257.246	62
258.503	80
259.761	70
261.017	76
262.273	72
263.53	74
264.786	74
266.042	90
267.298	82
268.554	66
269.809	82
271.063	76
272.319	80
273.573	76
274.828	86
276.082	82
277.336	84
278.591	80
279.844	78
281.097	70
282.351	80
283.603	74
284.855	84
286.109	80
287.361	76
288.613	80
289.866	78
291.117	84
292.368	82
293.62	88
294.871	90
296.121	88
297.372	86
298.623	84
299.873	84
301.123	80
302.372	92
303.622	86
304.872	94
306.121	86
307.37	88
308.618	94
309.866	84
311.116	98
312.364	88
313.611	92
314.859	100
316.106	90
317.353	90
318.6	84
319.848	90
321.095	92
322.341	96
323.587	96
324.833	106
326.079	92
327.324	92
328.569	96
329.814	110
331.059	96
332.304	98
333.548	104
334.792	92
336.037	92
337.28	98
338.524	98
339.767	106
341.011	84
342.254	100
343.497	102
344.739	102
345.982	118
347.224	106
348.466	110
349.708	106
350.95	112
352.191	98
353.432	108
354.673	92
355.914	98
357.155	114
358.394	108
359.634	110
360.874	112
362.114	124
363.354	112
364.593	108
365.832	112
367.07	104
368.309	112
369.548	114
370.786	108
372.024	108
373.261	102
374.499	114
375.736	108
376.974	102
378.211	110
379.447	106
380.684	118
381.92	120
383.157	120
384.392	122
385.628	106
386.864	128
388.098	108
389.333	136
390.569	116
391.802	110
393.037	116
394.272	128
395.505	110
396.739	110
397.973	122
399.206	116
400.44	130
401.673	132
402.905	122
404.138	120
405.37	140
406.602	112
407.835	126
409.066	136
410.298	132
411.528	144
412.76	142
413.99	140
415.221	138
416.451	140
417.682	118
418.911	132
420.142	130
421.371	132
422.601	128
423.83	134
425.059	138
426.288	150
427.517	146
428.745	142
429.974	140
431.201	132
432.43	146
433.657	134
434.883	160
436.111	152
437.338	148
438.565	128
439.791	138
441.017	132
442.244	138
443.469	148
444.695	138
445.921	154
447.146	146
448.37	158
449.596	146
450.821	150
452.045	148
453.27	138
454.493	146
455.717	154
456.94	146
458.165	146
459.387	154
460.61	162
461.833	140
463.056	156
464.278	160
465.5	174
466.722	160
467.945	154
469.166	158
470.387	166
471.608	160
472.829	158
474.049	166
475.271	160
476.491	158
477.711	162
478.931	158
480.15	170
481.37	164
482.589	188
483.808	170
485.027	174
486.247	170
487.465	184
488.683	184
489.901	180
491.119	184
492.337	178
493.554	172
494.771	178
495.988	192
497.205	192
498.422	190
499.638	186
500.854	178
502.07	188
503.286	186
504.502	166
505.717	186
506.933	184
508.148	186
509.363	182
510.577	184
511.792	200
513.005	184
514.219	190
515.433	200
516.647	192
517.86	208
519.073	190
520.287	196
521.5	208
522.711	194
523.924	196
525.136	210
526.348	192
527.56	214
528.772	184
529.982	204
531.194	206
532.405	190
533.616	182
534.825	200
536.036	186
537.246	206
538.457	198
539.665	212
540.875	200
542.085	212
543.294	208
544.502	226
545.712	222
546.92	200
548.128	208
549.336	200
550.545	212
551.751	216
552.959	216
554.167	228
555.373	214
556.581	226
557.788	226
558.994	216
560.2	216
561.406	234
562.612	214
563.817	234
565.023	232
566.229	230
567.433	240
568.639	222
569.843	218
571.048	226
572.251	230
573.456	244
574.659	240
575.863	238
577.066	238
578.27	230
579.472	250
580.676	244
581.878	228
583.081	242
584.283	250
585.484	246
586.687	252
587.888	242
589.09	258
590.291	248
591.493	244
592.693	276
593.893	262
595.094	266
596.294	262
597.494	242
598.694	250
599.894	282
601.093	250
602.293	248
603.491	272
604.69	272
605.889	270
607.087	272
608.285	274
609.483	276
610.682	284
611.879	270
613.076	276
614.273	272
615.471	276
616.667	268
617.864	302
619.06	278
620.256	266
621.453	288
622.648	290
623.844	294
625.039	316
626.234	290
627.429	316
628.625	308
629.819	300
631.013	324
632.208	296
633.401	312
634.595	306
635.789	322
636.982	290
638.175	316
639.369	354
640.562	318
641.755	328
642.947	330
644.139	332
645.331	328
646.523	318
647.715	346
648.906	326
650.097	340
651.288	338
652.479	342
653.67	340
654.86	354
656.051	366
657.241	354
658.429	348
659.619	362
660.808	352
661.998	350
663.187	376
664.376	366
665.565	358
666.753	332
667.942	378
669.13	356
670.317	366
671.505	356
672.692	374
673.88	376
675.067	360
676.254	350
677.44	388
678.627	384
679.813	376
681	402
682.184	380
683.37	380
684.556	384
685.742	410
686.926	404
688.111	396
689.296	408
690.481	406
691.664	396
692.849	430
694.033	416
695.216	406
696.4	424
697.584	424
698.766	392
699.949	428
701.133	426
702.314	412
703.497	440
704.678	434
705.861	440
707.043	462
708.224	448
709.406	462
710.586	446
711.768	454
712.949	454
714.129	452
715.31	466
716.489	500
717.67	486
718.849	464
720.029	466
721.208	444
722.388	490
723.566	464
724.746	524
725.924	484
727.103	512
728.28	512
729.458	510
730.636	504
731.814	484
732.992	504
734.168	500
735.345	530
736.523	528
737.699	518
738.876	514
740.052	524
741.227	554
742.404	556
743.579	554
744.754	522
745.931	546
747.105	522
748.28	566
749.455	576
750.629	540
751.803	556
752.977	546
754.152	552
755.325	580
756.499	580
757.672	586
758.846	586
760.018	588
761.191	580
762.363	598
763.535	604
764.708	596
765.88	616
767.052	628
768.223	626
769.394	638
770.565	648
771.737	614
772.908	634
774.078	658
775.249	622
776.419	630
777.589	650
778.758	664
779.928	666
781.097	644
782.266	638
783.435	680
784.604	674
785.773	704
786.941	676
788.11	684
789.278	714
790.446	664
791.613	696
792.781	734
793.948	704
795.115	768
796.282	748
797.449	690
798.616	730
799.782	724
800.948	696
802.115	730
803.28	750
804.446	768
805.612	750
806.777	780
807.941	792
809.106	818
810.271	756
811.435	780
812.6	814
813.764	792
814.927	804
816.091	816
817.254	806
818.418	824
819.581	836
820.743	872
821.906	874
823.069	850
824.232	816
825.393	880
826.555	890
827.717	874
828.879	870
830.039	902
831.201	882
832.362	904
833.522	916
834.683	912
835.844	856
837.003	892
838.164	950
839.324	932
840.483	936
841.643	934
842.801	970
843.961	954
845.12	978
846.278	968
847.437	982
848.594	986
849.753	958
850.91	1032
852.069	1018
853.227	992
854.383	1038
855.541	1016
856.697	1052
857.855	1058
859.011	1066
860.168	1042
861.323	1052
862.48	1056
863.635	1050
864.79	1044
865.946	1064
867.101	1090
868.257	1088
869.411	1092
870.567	1068
871.721	1130
872.874	1120
874.029	1114
875.183	1142
876.336	1112
877.49	1144
878.643	1170
879.796	1204
880.95	1136
882.102	1150
883.254	1118
884.407	1176
885.559	1154
886.711	1168
887.862	1206
889.015	1206
890.166	1220
891.317	1204
892.467	1222
893.619	1208
894.77	1210
895.92	1246
897.07	1248
898.221	1270
899.371	1268
900.52	1278
901.669	1296
902.819	1284
903.968	1260
905.116	1324
906.266	1292
907.415	1318
908.563	1342
909.711	1330
910.859	1328
912.007	1336
913.154	1324
914.301	1344
915.449	1374
916.596	1366
917.742	1366
918.889	1358
920.036	1384
921.183	1430
922.329	1426
923.475	1364
924.621	1398
925.765	1438
926.911	1442
928.056	1436
929.201	1476
930.346	1502
931.49	1504
932.635	1498
933.779	1512
934.924	1482
936.068	1484
937.211	1586
938.355	1560
939.498	1534
940.64	1554
941.784	1580
942.926	1540
944.069	1568
945.212	1574
946.354	1594
947.495	1614
948.637	1642
949.779	1636
950.921	1666
952.062	1664
953.202	1660
954.344	1656
955.484	1696
956.625	1694
957.765	1700
958.905	1682
960.045	1722
961.184	1682
962.324	1720
963.464	1750
964.604	1788
965.742	1780
966.881	1822
968.02	1788
969.158	1836
970.296	1816
971.434	1856
972.572	1822
973.71	1854
974.847	1848
975.985	1826
977.121	1878
978.259	1892
979.396	1882
980.532	1924
981.669	1892
982.804	1896
983.941	1944
985.076	1942
986.212	1954
987.347	1934
988.483	1944
989.617	2042
990.753	1984
991.887	1988
993.022	2052
994.156	2036
995.29	2070
996.424	2086
997.558	2060
998.692	2066
999.825	2062
1000.96	2060
1002.09	2124
1003.22	2096
1004.36	2096
1005.49	2132
1006.62	2216
1007.75	2152
1008.89	2170
1010.02	2166
1011.15	2192
1012.28	2248
1013.41	2194
1014.54	2240
1015.67	2198
1016.8	2204
1017.93	2294
1019.07	2292
1020.19	2304
1021.32	2338
1022.45	2342
1023.58	2304
1024.71	2336
1025.84	2342
1026.97	2356
1028.1	2380
1029.23	2380
1030.36	2372
1031.49	2386
1032.61	2432
1033.74	2476
1034.87	2522
1036	2494
1037.12	2514
1038.25	2516
1039.38	2528
1040.5	2490
1041.63	2550
1042.76	2620
1043.88	2630
1045.01	2576
1046.14	2638
1047.26	2572
1048.39	2606
1049.51	2656
1050.64	2682
1051.76	2654
1052.89	2654
1054.01	2752
1055.14	2696
1056.26	2650
1057.38	2760
1058.51	2710
1059.63	2816
1060.75	2754
1061.88	2791
1063	2828
1064.12	2810
1065.25	2914
1066.37	2812
1067.49	2862
1068.61	2862
1069.73	2900
1070.86	2862
1071.98	2888
1073.1	2924
1074.22	3002
1075.34	2908
1076.46	2998
1077.58	2946
1078.7	2968
1079.82	2992
1080.94	3036
1082.06	2970
1083.18	2960
1084.3	3020
1085.42	2960
1086.54	3042
1087.66	3052
1088.78	3014
1089.9	3006
1091.02	3048
1092.14	3060
1093.25	3074
1094.37	3072
1095.49	3044
1096.61	3098
1097.72	3148
1098.84	3188
1099.96	3164
1101.08	3116
1102.19	3158
1103.31	3184
1104.43	3198
1105.54	3180
1106.66	3174
1107.77	3218
1108.89	3186
1110	3216
1111.12	3192
1112.23	3202
1113.35	3308
1114.46	3264
1115.58	3192
1116.69	3326
1117.81	3314
1118.92	3334
1120.03	3312
1121.15	3356
1122.26	3364
1123.37	3306
1124.49	3400
1125.6	3276
1126.71	3382
1127.83	3330
1128.94	3316
1130.05	3320
1131.16	3358
1132.27	3412
1133.39	3358
1134.5	3376
1135.61	3424
1136.72	3498
1137.83	3452
1138.94	3430
1140.05	3484
1141.16	3452
1142.27	3496
1143.38	3568
1144.49	3504
1145.6	3536
1146.71	3548
1147.82	3476
1148.93	3572
1150.04	3508
1151.15	3544
1152.26	3512
1153.36	3582
1154.47	3598
1155.58	3620
1156.69	3530
1157.8	3548
1158.9	3588
1160.01	3552
1161.12	3566
1162.22	3622
1163.33	3598
1164.44	3634
1165.54	3634
1166.65	3516
1167.76	3646
1168.86	3722
1169.97	3642
1171.07	3536
1172.18	3646
1173.28	3658
1174.39	3584
1175.49	3572
1176.6	3654
1177.7	3604
1178.81	3600
1179.91	3680
1181.02	3602
1182.12	3566
1183.22	3604
1184.33	3574
1185.43	3570
1186.53	3478
1187.63	3538
1188.74	3546
1189.84	3610
1190.94	3570
1192.04	3528
1193.15	3622
1194.25	3502
1195.35	3482
1196.45	3532
1197.55	3544
1198.65	3512
1199.75	3616
1200.85	3470
1201.95	3526
1203.05	3558
1204.16	3474
1205.25	3460
1206.35	3442
1207.45	3434
1208.55	3404
1209.65	3420
1210.75	3450
1211.85	3438
1212.95	3412
1214.05	3438
1215.15	3440
1216.24	3346
1217.34	3360
1218.44	3340
1219.54	3388
1220.64	3370
1221.73	3344
1222.83	3368
1223.93	3326
1225.02	3352
1226.12	3338
1227.22	3346
1228.31	3280
1229.41	3344
1230.5	3322
1231.6	3254
1232.7	3328
1233.79	3236
1234.89	3264
1235.98	3322
1237.08	3242
1238.17	3278
1239.26	3158
1240.36	3164
1241.45	3224
1242.55	3156
1243.64	3180
1244.73	3190
1245.83	3134
1246.92	3144
1248.01	3128
1249.11	3124
1250.2	3152
1251.29	3104
1252.38	3140
1253.48	3128
1254.57	3042
1255.66	3112
1256.75	3056
1257.84	3082
1258.93	3066
1260.03	2988
1261.12	3056
1262.21	3134
1263.3	3004
1264.39	3034
1265.48	3026
1266.57	2992
1267.66	2994
1268.75	2954
1269.84	2942
1270.93	2988
1272.02	2960
1273.11	2870
1274.19	2936
1275.28	2956
1276.37	2916
1277.46	2840
1278.55	2900
1279.64	2826
1280.72	2802
1281.81	2780
1282.9	2794
1283.98	2771.48
1285.07	2815.28
1286.16	2833.62
1287.25	2829.32
1288.33	2748.86
1289.42	2812.21
1290.5	2800.84
1291.59	2775.1
1292.68	2823.46
1293.76	2738.95
1294.85	2727.78
1295.93	2795.74
1297.02	2746.04
1298.1	2764.33
1299.19	2728.19
1300.27	2721.15
1301.36	2772.82
1302.44	2675.91
1303.53	2698.52
1304.61	2730.31
1305.69	2682.63
1306.78	2657.76
1307.86	2750.99
1308.94	2673.19
1310.03	2658.2
1311.11	2638.18
1312.19	2655.3
1313.27	2616.68
1314.36	2636.36
1315.44	2643.99
1316.52	2628.67
1317.6	2598.59
1318.68	2622.64
1319.77	2611.18
1320.85	2590.26
1321.93	2638.97
1323.01	2596.09
1324.09	2573.69
1325.17	2601.7
1326.25	2609.04
1327.33	2579.77
1328.41	2535.62
1329.49	2539.27
1330.57	2517.44
1331.65	2540.4
1332.73	2512.81
1333.81	2504.78
1334.89	2496.74
1335.97	2490.23
1337.04	2494.95
1338.12	2468.46
1339.2	2453.67
1340.28	2487.86
1341.36	2489.87
1342.44	2466.13
1343.51	2440.28
1344.59	2441.31
1345.67	2442.63
1346.75	2434.71
1347.82	2385.15
1348.9	2389.75
1349.98	2344.96
1351.05	2401.02
1352.13	2371.44
1353.2	2398.35
1354.28	2409.35
1355.36	2360.73
1356.43	2326.59
1357.51	2362.04
1358.58	2363.69
1359.66	2356.81
1360.73	2386.15
1361.81	2369.95
1362.88	2365.84
1363.96	2315.29
1365.03	2342.27
1366.1	2368.99
1367.18	2299.93
1368.25	2299.84
1369.33	2312.25
1370.4	2346.99
1371.47	2311.86
1372.54	2300.34
1373.62	2284.83
1374.69	2313.24
1375.76	2293.3
1376.83	2283.93
1377.91	2272.53
1378.98	2248.27
1380.05	2268.63
1381.12	2251.36
1382.19	2233.76
1383.26	2275.37
1384.34	2240.4
1385.41	2205.8
1386.48	2208.65
1387.55	2193.17
1388.62	2224.89
1389.69	2173.85
1390.76	2270.2
1391.83	2230.7
1392.9	2155.93
1393.02	2148
1394.1	2226
1395.17	2110
1396.25	2146
1397.32	2188
1398.4	2174
1399.47	2062
1400.55	2124
1401.62	2116
1402.69	2110
1403.77	2104
1404.84	2050
1405.91	2028
1406.99	2098
1408.06	2026
1409.13	2090
1410.2	2040
1411.27	2030
1412.35	2050
1413.42	2038
1414.49	2012
1415.56	2050
1416.63	2022
1417.7	2034
1418.78	1952
1419.85	1992
1420.92	1926
1421.99	1948
1423.06	1896
1424.13	1916
1425.2	1926
1426.27	1964
1427.34	1890
1428.41	1896
1429.48	1896
1430.55	1892
1431.61	1850
1432.68	1918
1433.75	1910
1434.82	1894
1435.89	1876
1436.96	1822
1438.02	1878
1439.09	1832
1440.16	1894
1441.23	1828
1442.3	1848
1443.36	1860
1444.43	1860
1445.5	1794
1446.56	1796
1447.63	1800
1448.7	1852
1449.76	1796
1450.83	1756
1451.89	1788
1452.96	1782
1454.02	1754
1455.09	1778
1456.15	1750
1457.22	1734
1458.28	1754
1459.35	1750
1460.41	1756
1461.48	1820
1462.54	1684
1463.61	1732
1464.67	1712
1465.73	1760
1466.8	1704
1467.86	1682
1468.92	1726
1469.98	1698
1471.05	1700
1472.11	1706
1473.17	1670
1474.24	1678
1475.3	1692
1476.36	1656
1477.42	1672
1478.48	1650
1479.54	1646
1480.6	1582
1481.67	1672
1482.73	1614
1483.79	1604
1484.85	1644
1485.91	1626
1486.97	1606
1488.03	1650
1489.09	1602
1490.15	1574
1491.21	1620
1492.27	1594
1493.33	1588
1494.38	1614
1495.44	1572
1496.5	1602
1497.56	1594
1498.62	1606
1499.68	1580
1500.74	1552
1501.79	1532
1502.85	1556
1503.91	1574
1504.97	1544
1506.02	1602
1507.08	1504
1508.14	1482
1509.2	1552
1510.25	1544
1511.31	1548
1512.36	1510
1513.42	1520
1514.48	1512
1515.53	1526
1516.59	1520
1517.64	1492
1518.7	1454
1519.75	1502
1520.81	1478
1521.86	1478
1522.92	1484
1523.97	1506
1525.02	1476
1526.08	1462
1527.13	1430
1528.19	1480
1529.24	1410
1530.29	1480
1531.35	1422
1532.4	1426
1533.45	1426
1534.51	1466
1535.56	1446
1536.61	1424
1537.66	1408
1538.72	1352
1539.77	1416
1540.82	1412
1541.87	1428
1542.92	1376
1543.97	1378
1545.02	1384
1546.08	1418
1547.13	1366
1548.18	1404
1549.23	1388
1550.28	1328
1551.33	1368
1552.38	1390
1553.43	1386
1554.48	1338
1555.53	1336
1556.57	1332
1557.62	1370
1558.67	1304
1559.72	1346
1560.77	1324
1561.82	1334
1562.87	1310
1563.92	1318
1564.96	1320
1566.01	1304
1567.06	1352
1568.11	1300
1569.15	1306
1570.2	1318
1571.25	1284
1572.29	1326
1573.34	1306
1574.39	1274
1575.43	1290
1576.48	1304
1577.53	1308
1578.57	1292
1579.62	1282
1580.66	1286
1581.71	1300
1582.75	1290
1583.8	1348
1584.84	1260
1585.89	1256
1586.93	1208
1587.98	1252
1589.02	1288
1590.06	1286
1591.11	1276
1592.15	1276
1593.2	1260
1594.24	1250
1595.28	1260
1596.33	1234
1597.37	1270
1598.41	1228
1599.45	1230
1600.5	1246
1601.54	1238
1602.58	1248
1603.62	1240
1604.66	1268
1605.7	1236
1606.75	1240
1607.79	1274
1608.83	1210
1609.87	1240
1610.91	1252
1611.95	1162
1612.99	1194
1614.03	1226
1615.07	1192
1616.11	1224
1617.15	1214
1618.19	1238
1619.23	1230
1620.27	1208
1621.31	1212
1622.35	1174
1623.39	1224
1624.43	1204
1625.46	1168
1626.5	1194
1627.54	1184
1628.58	1276
1629.62	1194
1630.65	1198
1631.69	1224
1632.73	1200
1633.77	1176
1634.8	1206
1635.84	1186
1636.88	1194
1637.91	1170
1638.95	1210
1639.99	1132
1641.02	1180
1642.06	1206
1643.09	1136
1644.13	1176
1645.16	1182
1646.2	1110
1647.23	1182
1648.27	1206
1649.3	1214
1650.34	1140
1651.37	1170
1652.41	1178
1653.44	1194
1654.47	1102
1655.51	1136
1656.54	1174
1657.57	1182
1658.61	1140
1659.64	1176
1660.67	1182
1661.71	1166
1662.74	1136
1663.77	1108
1664.81	1124
1665.84	1166
1666.87	1118
1667.9	1134
1668.93	1134
1669.96	1154
1671	1128
1672.03	1128
1673.06	1130
1674.09	1130
1675.12	1152
1676.15	1158
1677.18	1148
1678.21	1090
1679.24	1134
1680.27	1124
1681.3	1080
1682.33	1102
1683.36	1142
1684.39	1122
1685.42	1106
1686.45	1110
1687.47	1118
1688.5	1076
1689.53	1052
1690.56	1096
1691.59	1092
1692.62	1084
1693.64	1072
1694.67	1098
1695.7	1070
1696.73	1132
1697.75	1094
1698.78	1064
1699.81	1108
1700.83	1084
1701.86	1080
1702.89	1122
1703.91	1042
1704.94	1078
1705.97	1074
1706.99	1076
1708.02	1072
1709.04	1046
1710.07	1086
1711.09	1054
1712.12	1068
1713.14	1042
1714.17	1056
1715.19	1072
1716.22	1022
1717.24	1028
1718.26	1042
1719.29	1064
1720.31	1062
1721.33	1098
1722.36	1054
1723.38	1046
1724.4	1040
1725.43	1042
1726.45	1074
1727.47	1050
1728.49	1092
1729.52	1072
1730.54	1066
1731.56	1022
1732.58	1056
1733.6	1034
1734.63	1050
1735.65	1050
1736.67	1048
1737.69	1062
1738.71	1038
1739.73	1062
1740.75	1032
1741.77	1060
1742.79	1058
1743.81	1038
1744.83	1056
1745.85	1040
1746.87	1016
1747.89	1040
1748.91	1032
1749.93	1012
1750.95	1036
1751.97	1016
1752.98	1020
1754	1052
1755.02	1042
1756.04	1032
1757.06	1022
1758.07	1018
1759.09	1036
1760.11	1052
1761.13	1020
1762.14	1058
1763.16	990
1764.18	1048
1765.19	1032
1766.21	1040
1767.23	1052
1768.24	1026
1769.26	1002
1770.28	1044
1771.29	1006
1772.31	1054
1773.32	1020
1774.34	1062
1775.35	1058
1776.37	1030
1777.38	1006
1778.4	1014
1779.41	1054
1780.43	1026
1781.44	1006
1782.45	1014
1783.47	1034
1784.48	1014
1785.49	1004
1786.51	1010
1787.52	1020
1788.53	1054
1789.55	1032
1790.56	988
1791.57	996
1792.58	996
1793.6	1016
1794.61	1002
1795.62	998
1796.63	1050
1797.64	1024
1798.66	990
1799.67	1016
1800.68	1072
1801.69	1000
1802.7	1050
1803.71	986
1804.72	974
1805.73	1000
1806.74	1008
1807.75	1002
1808.76	972
1809.77	1036
1810.78	1014
1811.79	990
1812.8	986
1813.81	966
1814.82	1000
1815.83	996
1816.84	1014
1817.84	1004
1818.85	1020
1819.86	976
1820.87	1010
1821.88	980
1822.88	1012
1823.89	980
1824.9	982
1825.91	998
1826.91	968
1827.92	968
1828.93	984
1829.93	992
1830.94	980
1831.95	978
1832.95	982
1833.96	990
1834.97	964
1835.97	1002
1836.98	940
1837.98	968
1838.99	984
1839.99	1002
1841	984
1842	956
1843.01	986
1844.01	976
1845.02	982
1846.02	952
1847.02	990
1848.03	990
1849.03	972
1850.03	974
1851.04	930
1852.04	972
1853.04	942
1854.05	946
1855.05	1002
1856.05	940
1857.05	976
1858.06	972
1859.06	994
1860.06	960
1861.06	960
1862.06	946
1863.07	1008
1864.07	922
1865.07	966
1866.07	954
1867.07	986
1868.07	966
1869.07	960
1870.07	970
1871.07	972
1872.07	926
1873.07	936
1874.07	948
1875.07	942
1876.07	996
1877.07	946
1878.07	958
1879.07	968
1880.07	964
1881.07	950
1882.07	964
1883.06	984
1884.06	932
1885.06	930
1886.06	908
1887.06	948
1888.05	966
1889.05	936
1890.05	934
1891.05	940
1892.04	982
1893.04	968
1894.04	934
1895.03	974
1896.03	946
1897.03	970
1898.02	940
1899.02	954
1900.01	948
1901.01	990
1902	958
1903	956
1903.99	978
1904.99	938
1905.98	994
1906.98	952
1907.97	938
1908.97	950
1909.96	948
1910.96	920
1911.95	942
1912.94	942
1913.94	944
1914.93	1016
1915.93	946
1916.92	956
1917.91	938
1918.9	924
1919.9	954
1920.89	954
1921.88	914
1922.87	928
1923.87	928
1924.86	978
1925.85	938
1926.84	910
1927.83	950
1928.82	974
1929.82	982
1930.81	938
1931.8	908
1932.79	964
1933.78	918
1934.77	940
1935.76	940
1936.75	946
1937.74	962
1938.73	972
1939.72	932
1940.71	936
1941.7	968
1942.69	930
1943.68	934
1944.67	926
1945.65	914
1946.64	940
1947.63	972
1948.62	908
1949.61	948
1950.6	938
1951.58	962
1952.57	898
1953.56	944
1954.55	936
1955.53	966
1956.52	952
1957.51	922
1958.5	938
1959.48	888
1960.47	936
1961.45	926
1962.44	904
1963.43	904
1964.41	942
1965.4	934
1966.38	904
1967.37	956
1968.35	894
1969.34	926
1970.32	934
1971.31	922
1972.29	938
1973.28	906
1974.26	974
1975.25	934
1976.23	920
1977.22	930
1978.2	896
1979.18	886
1980.17	906
1981.15	914
1982.13	950
1983.12	912
1984.1	900
1985.08	940
1986.06	938
1987.05	916
1988.03	916
1989.01	918
1989.99	904
1990.97	938
1991.96	916
1992.94	852
1993.92	874
1994.9	928
1995.88	950
1996.86	916
1997.84	950
1998.82	924
1999.8	914
2000.78	906
2001.76	884
2002.74	890
2003.72	914
2004.7	892
2005.68	904
2006.66	900
2007.64	926
2008.62	920
2009.6	918
2010.58	918
2011.56	904
2012.54	912
2013.51	882
2014.49	914
2015.47	880
2016.45	938
2017.43	896
2018.4	892
2019.38	922
2020.36	900
2021.34	892
2022.31	872
2023.29	860
2024.27	880
2025.24	918
2026.22	884
2027.2	896
2028.17	876
2029.15	856
2030.12	892
2031.1	882
2032.07	870
2033.05	882
2034.03	882
2035	892
2035.98	940
2036.95	886
2037.93	890
2038.9	870
2039.87	884
2040.85	898
2041.82	876
2042.8	900
2043.77	864
2044.74	866
2045.72	878
2046.69	886
2047.66	936
2048.64	848
2049.61	892
2050.58	902
2051.55	892
2052.53	900
2053.5	932
2054.47	862
2055.44	882
2056.41	870
2057.39	880
2058.36	896
2059.33	882
2060.3	902
2061.27	882
2062.24	916
2063.21	916
2064.18	882
2065.15	906
2066.12	862
2067.09	894
2068.06	920
2069.03	870
2070	862
2070.97	870
2071.94	838
2072.91	890
2073.88	878
2074.85	886
2075.82	880
2076.79	852
2077.76	882
2078.73	888
2079.69	902
2080.66	846
2081.63	878
2082.6	874
2083.56	858
2084.53	868
2085.5	870
2086.47	878
2087.43	882
2088.4	852
2089.37	882
2090.33	848
2091.3	878
2092.27	876
2093.23	896
2094.2	840
2095.17	870
2096.13	862
2097.1	872
2098.06	910
2099.03	852
2099.99	872
2100.96	836
2101.92	844
2102.89	862
2103.85	836
2104.82	864
2105.78	896
2106.74	874
2107.71	878
2108.67	880
2109.64	852
2110.6	888
2111.56	860
2112.53	846
2113.49	852
2114.45	866
2115.41	884
2116.38	884
2117.34	862
2118.3	870
2119.26	846
2120.23	872
2121.19	876
2122.15	838
2123.11	858
2124.07	856
2125.03	854
2126	894
2126.96	824
2127.92	882
2128.88	830
2129.84	860
2130.8	870
2131.76	860
2132.72	858
2133.68	838
2134.64	852
2135.6	832
2136.56	828
2137.52	846
2138.48	848
2139.44	862
2140.4	856
2141.35	822
2142.31	856
2143.27	858
2144.23	836
2145.19	838
2146.15	862
2147.1	822
2148.06	844
2149.02	818
2149.98	870
2150.94	846
2151.89	828
2152.85	858
2153.81	828
2154.76	824
2155.72	800
2156.68	848
2157.63	842
2158.59	832
2159.55	840
2160.5	870
2161.46	826
2162.41	808
2163.37	832
2164.32	840
2165.28	864
2166.23	844
2167.19	844
2168.14	822
2169.1	826
2170.05	832
2171.01	860
2171.96	868
2172.91	818
2173.87	824
2174.82	862
2175.78	846
2176.73	818
2177.68	832
2178.64	836
2179.59	790
2180.54	832
2181.49	828
2182.45	816
2183.4	854
2184.35	810
2185.3	848
2186.26	836
2187.21	850
2188.16	820
2189.11	806
2190.06	818
2191.01	818
2191.96	802
2192.92	804
2193.87	798
2194.82	828
2195.77	824
2196.72	850
2197.67	806
2198.62	786
2199.57	798
2200.52	824
2201.47	828
2202.42	822
2203.37	792
2204.32	800
2205.27	776
2206.22	814
2207.16	810
2208.11	828
2209.06	792
2210.01	802
2210.96	810
2211.91	808
2212.85	786
2213.8	810
2214.75	796
2215.7	812
2216.64	796
2217.59	776
2218.54	826
2219.49	828
2220.43	804
2221.38	794
2222.33	812
2223.27	820.129
2224.22	809.006
2225.16	787.85
2226.11	797.731
2227.06	806.996
2228	810.477
2228.95	832.575
2229.89	774.657
2230.84	794.831
2231.78	847.802
2232.73	805.434
2233.67	809.134
2234.62	815.245
2235.56	811.068
2236.51	793.058
2237.45	838.098
2238.4	818.205
2239.34	809.679
2240.28	810.328
2241.23	808.825
2242.17	810.573
2243.11	831.924
2244.06	814.528
2245	803.026
2245.94	813.471
2246.89	820.975
2247.83	812.886
2248.77	805.191
2249.71	821.674
2250.66	836.602
2251.6	825.815
2252.54	796.921
2253.48	811.133
2254.42	842.598
2255.37	825.525
2256.31	813.328
2257.25	819.788
2258.19	814.637
2259.13	840.15
2260.07	818.206
2261.01	828.236
2261.95	824.92
2262.89	831.757
2263.83	821.51
2264.77	823.318
2265.71	827.867
2266.65	830.363
2267.59	821.694
2268.53	840.309
2269.47	819.411
2270.41	813.194
2271.35	837.084
2272.29	818.927
2273.23	821.753
2274.17	817.681
2275.1	822.487
2276.04	820.167
2276.98	844.234
2277.92	853.519
2278.86	822.062
2279.8	849.145
2280.73	830.799
2281.67	845.197
2282.61	818.766
2283.55	833.363
2284.48	828.901
2285.42	829.651
2286.36	810.6
2287.29	835.519
2288.23	830.209
2289.17	822.939
2290.1	828.554
2291.04	835.501
2291.98	828.51
2292.91	831.703
2293.85	835.031
2294.78	839.275
2295.72	821.06
2296.65	822.091
2297.59	841.736
2298.52	839.36
2299.46	834.75
2300.39	827.548
2301.33	835.942
2302.26	830.796
2303.2	816.043
2304.13	831.711
2305.06	821.926
2306	826.885
2306.93	840.76
2307.87	828.236
2308.8	815.268
2309.73	836.028
2310.67	850.007
2311.6	852.878
2312.53	839.505
2313.46	821.169
2314.4	817.288
2315.33	817.1
2316.26	823.353
2316.69	830
2317.62	814
2318.56	824
2319.5	810
2320.43	818
2321.37	826
2322.31	820
2323.24	828
2324.18	836
2325.12	836
2326.05	770
2326.99	830
2327.92	816
2328.86	800
2329.79	834
2330.73	786
2331.66	836
2332.6	826
2333.53	780
2334.47	814
2335.4	810
2336.34	836
2337.27	770
2338.2	802
2339.14	802
2340.07	806
2341.01	834
2341.94	816
2342.87	818
2343.81	832
2344.74	806
2345.67	792
2346.6	840
2347.54	824
2348.47	812
2349.4	788
2350.33	802
2351.27	780
2352.2	790
2353.13	810
2354.06	792
2354.99	786
2355.93	806
2356.86	774
2357.79	810
2358.72	808
2359.65	812
2360.58	780
2361.51	782
2362.44	796
2363.37	824
2364.3	794
2365.23	778
2366.16	786
2367.09	778
2368.02	772
2368.95	778
2369.88	764
2370.81	782
2371.74	784
2372.67	788
2373.6	774
2374.52	764
2375.45	768
2376.38	766
2377.31	784
2378.24	794
2379.17	792
2380.09	802
2381.02	762
2381.95	776
2382.88	796
2383.8	772
2384.73	794
2385.66	766
2386.58	804
2387.51	800
2388.44	770
2389.36	774
2390.29	726
2391.22	734
2392.14	756
2393.07	772
2393.99	792
2394.92	782
2395.85	756
2396.77	714
2397.7	734
2398.62	752
2399.55	754
2400.47	744
2401.4	718
2402.32	772
2403.25	740
2404.17	726
2405.09	754
2406.02	740
2406.94	742
2407.86	738
2408.79	722
2409.71	730
2410.63	738
2411.56	762
2412.48	784
2413.4	726
2414.33	734
2415.25	750
2416.17	722
2417.09	736
2418.02	710
2418.94	748
2419.86	726
2420.78	710
2421.7	688
2422.63	710
2423.55	726
2424.47	710
2425.39	720
2426.31	728
2427.23	724
2428.15	740
2429.07	696
2429.99	720
2430.91	716
2431.83	716
2432.75	682
2433.67	732
2434.59	712
2435.51	706
2436.43	688
2437.35	728
2438.27	696
2439.19	722
2440.11	684
2441.03	706
2441.95	682
2442.86	696
2443.78	738
2444.7	724
2445.62	670
2446.54	696
2447.46	672
2448.37	694
2449.29	706
2450.21	708
2451.13	664
2452.04	682
2452.96	682
2453.88	672
2454.79	678
2455.71	662
2456.63	728
2457.54	688
2458.46	692
2459.38	686
2460.29	660
2461.21	672
2462.12	680
2463.04	630
2463.95	692
2464.87	670
2465.78	692
2466.7	662
2467.61	684
2468.53	624
2469.44	630
2470.36	658
2471.27	658
2472.19	660
2473.1	638
2474.01	672
2474.93	662
2475.84	602
2476.76	644
2477.67	652
2478.58	642
2479.5	658
2480.41	654
2481.32	668
2482.23	670
2483.15	638
2484.06	622
2484.97	640
2485.88	676
2486.8	638
2487.71	622
2488.62	640
2489.53	622
2490.44	640
2491.35	638
2492.26	652
2493.18	634
2494.09	604
2495	644
2495.91	614
2496.82	628
2497.73	624
2498.64	600
2499.55	604
2500.46	632
2501.37	628
2502.28	614
2503.19	610
2504.1	622
2505.01	598
2505.92	588
2506.83	608
2507.74	596
2508.65	602
2509.55	600
2510.46	630
2511.37	596
2512.28	624
2513.19	620
2514.09	604
2515	600
2515.91	606
2516.82	580
2517.73	576
2518.63	602
2519.54	598
2520.45	580
2521.35	582
2522.26	592
2523.17	608
2524.07	600
2524.98	570
2525.89	562
2526.79	576
2527.7	592
2528.6	594
2529.51	572
2530.42	576
2531.32	578
2532.23	582
2533.13	570
2534.04	552
2534.94	592
2535.85	558
2536.75	572
2537.66	590
2538.56	578
2539.47	568
2540.37	592
2541.27	578
2542.18	560
2543.08	566
2543.98	576
2544.89	574
2545.79	550
2546.7	562
2547.6	556
2548.5	560
2549.4	544
2550.31	554
2551.21	562
2552.11	558
2553.01	548
2553.92	554
2554.82	548
2555.72	568
2556.62	566
2557.52	554
2558.42	552
2559.33	560
2560.23	536
2561.13	516
2562.03	540
2562.93	550
2563.83	522
2564.73	546
2565.63	534
2566.53	546
2567.43	526
2568.33	534
2569.23	540
2570.13	490
2571.03	524
2571.93	542
2572.83	516
2573.73	534
2574.63	518
2575.53	522
2576.43	512
2577.33	514
2578.22	518
2579.12	502
2580.02	514
2580.92	506
2581.82	542
2582.72	526
2583.61	516
2584.51	540
2585.41	524
2586.31	550
2587.2	536
2588.1	514
2589	522
2589.89	502
2590.79	518
2591.69	502
2592.58	482
2593.48	518
2594.38	490
2595.27	536
2596.17	500
2597.06	498
2597.96	488
2598.86	498
2599.75	500
2600.65	492
2601.54	524
2602.44	492
2603.33	494
2604.23	454
2605.12	510
2606.02	506
2606.91	498
2607.81	480
2608.7	512
2609.59	488
2610.49	472
2611.38	480
2612.27	488
2613.17	464
2614.06	486
2614.95	470
2615.85	492
2616.74	476
2617.63	490
2618.53	490
2619.42	486
2620.31	466
2621.2	478
2622.1	474
2622.99	452
2623.88	466
2624.77	478
2625.66	452
2626.55	458
2627.45	442
2628.34	446
2629.23	434
2630.12	462
2631.01	492
2631.9	462
2632.79	454
2633.68	446
2634.57	448
2635.46	442
2636.35	448
2637.24	448
2638.13	464
2639.02	458
2639.91	418
2640.8	456
2641.69	448
2642.58	438
2643.47	450
2644.36	448
2645.25	418
2646.14	446
2647.02	440
2647.91	422
2648.8	448
2649.69	426
2650.58	420
2651.46	438
2652.35	438
2653.24	452
2654.13	612
2655.01	1894
2655.9	722
2656.79	424
2657.68	402
2658.56	438
2659.45	428
2660.34	430
2661.22	410
2662.11	446
2662.99	414
2663.88	418
2664.77	426
2665.65	426
2666.54	396
2667.42	426
2668.31	428
2669.2	440
2670.08	404
2670.96	428
2671.85	426
2672.73	392
2673.62	420
2674.5	418
2675.39	400
2676.27	398
2677.16	410
2678.04	404
2678.93	412
2679.81	392
2680.69	402
2681.58	410
2682.46	400
2683.34	402
2684.23	384
2685.11	390
2685.99	392
2686.87	412
2687.76	412
2688.64	406
2689.52	396
2690.4	408
2691.28	400
2692.17	398
2693.05	386
2693.93	382
2694.81	404
2695.69	376
2696.57	394
2697.46	380
2698.34	394
2699.22	394
2700.1	360
2700.98	376
2701.86	380
2702.74	382
2703.62	376
2704.5	390
2705.38	378
2706.26	370
2707.14	392
2708.02	362
2708.9	378
2709.78	384
2710.66	370
2711.54	392
2712.42	370
2713.3	378
2714.17	362
2715.05	378
2715.93	370
2716.81	370
2717.69	344
2718.57	372
2719.44	370
2720.32	358
2721.2	372
2722.08	342
2722.95	382
2723.83	366
2724.71	358
2725.59	336
2726.46	352
2727.34	364
2728.22	348
2729.09	376
2729.97	338
2730.85	366
2731.72	324
2732.6	370
2733.47	352
2734.35	368
2735.23	356
2736.1	364
2736.98	360
2737.85	320
2738.73	360
2739.6	342
2740.48	368
2741.35	350
2742.23	352
2743.1	308
2743.98	344
2744.85	346
2745.72	334
2746.6	330
2747.47	340
2748.35	340
2749.22	334
2750.09	334
2750.97	328
2751.84	336
2752.71	332
2753.59	336
2754.46	310
2755.33	326
2756.2	328
2757.08	336
2757.95	318
2758.82	334
2759.69	322
2760.57	328
2761.44	324
2762.31	322
2763.18	316
2764.05	326
2764.92	312
2765.79	318
2766.67	324
2767.54	314
2768.41	286
2769.28	320
2770.15	328
2771.02	292
2771.89	310
2772.76	306
2773.63	304
2774.5	306
2775.37	286
2776.24	320
2777.11	296
2777.98	304
2778.85	294
2779.72	298
2780.59	310
2781.46	304
2782.32	306
2783.19	294
2784.06	294
2784.93	284
2785.8	296
2786.67	302
2787.53	288
2788.4	308
2789.27	278
2790.14	300
2791.01	298
2791.87	298
2792.74	280
2793.61	288
2794.47	278
2795.34	284
2796.21	296
2797.07	308
2797.94	302
2798.81	294
2799.67	276
2800.54	296
2801.41	290
2802.27	272
2803.14	288
2804	288
2804.87	286
2805.74	266
2806.6	272
2807.47	282
2808.33	266
2809.2	288
2810.06	266
2810.93	268
2811.79	276
2812.65	282
2813.52	268
2814.38	274
2815.25	264
2816.11	260
2816.98	272
2817.84	274
2818.7	262
2819.56	262
2820.43	252
2821.29	250
2822.16	278
2823.02	288
2823.88	284
2824.74	272
2825.61	250
2826.47	252
2827.33	274
2828.19	244
2829.05	266
2829.92	264
2830.78	268
2831.64	248
2832.5	256
2833.36	254
2834.23	274
2835.09	258
2835.95	254
2836.81	248
2837.67	264
2838.53	258
2839.39	256
2840.25	232
2841.11	256
2841.97	232
2842.83	238
2843.69	248
2844.55	254
2845.41	254
2846.27	254
2847.13	252
2847.99	238
2848.85	250
2849.71	240
2850.57	232
2851.43	258
2852.28	238
2853.14	250
2854	240
2854.86	248
2855.72	240
2856.58	244
2857.43	248
2858.29	228
2859.15	230
2860.01	252
2860.86	240
2861.72	238
2862.58	234
2863.44	242
2864.29	240
2865.15	226
2866.01	244
2866.86	228
2867.72	244
2868.58	236
2869.43	240
2870.29	224
2871.14	220
2872	220
2872.86	226
2873.71	229
2874.57	232
2875.42	208
2876.28	230
2877.13	224
2877.99	220
2878.84	228
2879.7	210
2880.55	238
2881.41	226
2882.26	224
2883.11	222
2883.97	214
2884.82	222
2885.68	214
2886.53	206
2887.39	202
2888.24	202
2889.09	216
2889.94	214
2890.8	202
2891.65	218
2892.5	214
2893.36	216
2894.21	214
2895.06	212
2895.91	212
2896.77	216
2897.62	216
2898.47	218
2899.32	208
2900.17	220
2901.03	206
2901.88	198
2902.73	212
2903.58	218
2904.43	194
2905.28	200
2906.13	216
2906.98	204
2907.84	194
2908.69	210
2909.54	202
2910.39	214
2911.24	206
2912.09	194
2912.94	218
2913.79	196
2914.64	218
2915.49	214
2916.34	202
2917.19	210
2918.03	196
2918.88	188
2919.73	204
2920.58	188
2921.43	196
2922.28	216
2923.13	212
2923.98	204
2924.82	200
2925.67	202
2926.52	184
2927.37	212
2928.22	188
2929.06	208
2929.91	204
2930.76	198
2931.61	178
2932.45	212
2933.3	212
2934.15	194
2934.99	192
2935.84	194
2936.69	196
2937.53	188
2938.38	188
2939.23	202
2940.07	180
2940.92	184
2941.76	198
2942.61	200
2943.46	190
2944.3	170
2945.15	200
2945.99	176
2946.84	190
2947.68	182
2948.53	168
2949.37	174
2950.22	192
2951.06	184
2951.9	178
2952.75	186
2953.59	202
2954.44	180
2955.28	180
2956.12	182
2956.97	168
2957.81	178
2958.65	180
2959.5	176
2960.34	188
2961.18	176
2962.03	196
2962.87	174
2963.71	178
2964.56	184
2965.4	182
2966.24	166
2967.08	162
2967.92	186
2968.77	170
2969.61	184
2970.45	176
2971.29	186
2972.13	184
2972.97	166
2973.82	174
2974.66	158
2975.5	180
2976.34	174
2977.18	176
2978.02	180
2978.86	172
2979.7	162
2980.54	156
2981.38	166
2982.22	178
2983.06	180
2983.9	170
2984.74	170
2985.58	172
2986.42	162
2987.26	172
2988.1	154
2988.94	166
2989.78	184
2990.61	162
2991.45	180
2992.29	170
2993.13	172
2993.97	164
2994.81	164
2995.64	170
2996.48	150
2997.32	164
2998.16	166
2999	158
2999.83	166
