#Acq. time (s)=	10
#Accumulations=	1
#Range (cm-¹)=	200...3000
#Windows=	3
#Autofocus=	Off
#AutoExposure=	Off
#Spike filter=	Off
#Delay time (s)=	0
#Binning=	1
#Readout mode=	Signal
#DeNoise=	Off
#ICS correction=	Off
#Dark correction=	Off
#Inst. Process=	Off
#Instrument=	LabRAM HR Evol
#Detector=	Syncerity OE
#Objective=	x100_VIS
#Grating=	600 (500nm)
#ND Filter=	0.01%
#Laser=	633nm_Edge
#Hole=	30.0125
#Range=	Visible
#Project=	Omar
#Sample=	03-07-23
#Site=	nop
#Title=	inside_prf
#Remark=	
#Date=	03.07.2023 14:44
#Acquired=	03.07.2023 14:44:14
201.713	28
202.98	26
204.247	36
205.513	36
206.778	30
208.045	30
209.311	32
210.576	30
211.84	36
213.106	34
214.371	32
215.636	42
216.899	30
218.164	28
219.428	32
220.692	38
221.955	30
223.219	28
224.482	26
225.744	36
227.007	30
228.27	36
229.531	32
230.794	30
232.055	30
233.317	30
234.579	32
235.839	34
237.1	36
238.362	32
239.621	32
240.882	28
242.141	34
243.402	30
244.661	32
245.921	32
247.179	22
248.439	30
249.698	34
250.956	38
252.215	38
253.473	36
254.731	32
255.988	30
257.246	36
258.503	26
259.761	44
261.017	22
262.273	34
263.53	26
264.786	36
266.042	30
267.298	28
268.554	32
269.809	38
271.063	38
272.319	36
273.573	34
274.828	32
276.082	26
277.336	34
278.591	30
279.844	38
281.097	38
282.351	38
283.603	36
284.855	30
286.109	34
287.361	32
288.613	34
289.866	32
291.117	36
292.368	32
293.62	32
294.871	30
296.121	34
297.372	32
298.623	34
299.873	32
301.123	32
302.372	32
303.622	36
304.872	28
306.121	38
307.37	36
308.618	30
309.866	34
311.116	32
312.364	34
313.611	36
314.859	30
316.106	32
317.353	40
318.6	36
319.848	34
321.095	30
322.341	36
323.587	38
324.833	42
326.079	34
327.324	30
328.569	38
329.814	32
331.059	42
332.304	38
333.548	30
334.792	40
336.037	24
337.28	38
338.524	40
339.767	32
341.011	36
342.254	36
343.497	32
344.739	30
345.982	36
347.224	36
348.466	30
349.708	40
350.95	38
352.191	36
353.432	48
354.673	46
355.914	38
357.155	28
358.394	36
359.634	38
360.874	38
362.114	44
363.354	28
364.593	42
365.832	38
367.07	42
368.309	30
369.548	36
370.786	36
372.024	32
373.261	30
374.499	40
375.736	44
376.974	36
378.211	38
379.447	36
380.684	32
381.92	38
383.157	48
384.392	44
385.628	34
386.864	34
388.098	34
389.333	44
390.569	34
391.802	34
393.037	36
394.272	38
395.505	32
396.739	44
397.973	38
399.206	36
400.44	28
401.673	40
402.905	32
404.138	40
405.37	40
406.602	36
407.835	44
409.066	38
410.298	34
411.528	42
412.76	42
413.99	40
415.221	38
416.451	46
417.682	48
418.911	50
420.142	36
421.371	36
422.601	46
423.83	38
425.059	40
426.288	40
427.517	44
428.745	38
429.974	32
431.201	40
432.43	34
433.657	38
434.883	40
436.111	40
437.338	52
438.565	44
439.791	50
441.017	44
442.244	34
443.469	50
444.695	38
445.921	44
447.146	42
448.37	42
449.596	50
450.821	44
452.045	36
453.27	54
454.493	44
455.717	48
456.94	46
458.165	50
459.387	50
460.61	44
461.833	48
463.056	40
464.278	48
465.5	52
466.722	50
467.945	38
469.166	40
470.387	54
471.608	40
472.829	48
474.049	46
475.271	40
476.491	48
477.711	46
478.931	42
480.15	42
481.37	44
482.589	40
483.808	40
485.027	42
486.247	46
487.465	48
488.683	50
489.901	44
491.119	40
492.337	44
493.554	48
494.771	38
495.988	46
497.205	52
498.422	48
499.638	48
500.854	56
502.07	48
503.286	46
504.502	46
505.717	50
506.933	56
508.148	48
509.363	52
510.577	42
511.792	44
513.005	50
514.219	48
515.433	40
516.647	36
517.86	50
519.073	46
520.287	46
521.5	56
522.711	46
523.924	46
525.136	48
526.348	50
527.56	46
528.772	52
529.982	50
531.194	54
532.405	50
533.616	44
534.825	44
536.036	46
537.246	52
538.457	52
539.665	44
540.875	52
542.085	62
543.294	56
544.502	50
545.712	54
546.92	60
548.128	54
549.336	52
550.545	54
551.751	50
552.959	48
554.167	54
555.373	62
556.581	52
557.788	54
558.994	56
560.2	56
561.406	52
562.612	70
563.817	48
565.023	48
566.229	58
567.433	56
568.639	56
569.843	50
571.048	52
572.251	56
573.456	54
574.659	50
575.863	52
577.066	50
578.27	58
579.472	66
580.676	54
581.878	64
583.081	52
584.283	64
585.484	60
586.687	58
587.888	54
589.09	50
590.291	62
591.493	54
592.693	60
593.893	52
595.094	58
596.294	62
597.494	56
598.694	64
599.894	54
601.093	66
602.293	56
603.491	54
604.69	52
605.889	56
607.087	62
608.285	58
609.483	52
610.682	52
611.879	56
613.076	62
614.273	74
615.471	54
616.667	58
617.864	56
619.06	56
620.256	62
621.453	62
622.648	66
623.844	60
625.039	64
626.234	68
627.429	74
628.625	60
629.819	62
631.013	68
632.208	58
633.401	62
634.595	66
635.789	78
636.982	66
638.175	66
639.369	60
640.562	62
641.755	66
642.947	62
644.139	64
645.331	70
646.523	60
647.715	64
648.906	72
650.097	74
651.288	62
652.479	66
653.67	72
654.86	74
656.051	70
657.241	62
658.429	66
659.619	72
660.808	62
661.998	70
663.187	74
664.376	70
665.565	66
666.753	72
667.942	68
669.13	70
670.317	74
671.505	68
672.692	66
673.88	74
675.067	76
676.254	84
677.44	74
678.627	74
679.813	72
681	82
682.184	78
683.37	80
684.556	72
685.742	78
686.926	78
688.111	80
689.296	80
690.481	78
691.664	84
692.849	76
694.033	78
695.216	90
696.4	74
697.584	80
698.766	74
699.949	78
701.133	72
702.314	74
703.497	88
704.678	92
705.861	86
707.043	72
708.224	82
709.406	92
710.586	78
711.768	82
712.949	86
714.129	84
715.31	90
716.489	90
717.67	86
718.849	88
720.029	84
721.208	84
722.388	88
723.566	88
724.746	86
725.924	92
727.103	92
728.28	84
729.458	96
730.636	92
731.814	94
732.992	98
734.168	104
735.345	92
736.523	86
737.699	84
738.876	92
740.052	90
741.227	98
742.404	102
743.579	96
744.754	106
745.931	92
747.105	108
748.28	92
749.455	90
750.629	100
751.803	104
752.977	114
754.152	120
755.325	102
756.499	108
757.672	100
758.846	96
760.018	112
761.191	104
762.363	114
763.535	104
764.708	108
765.88	106
767.052	106
768.223	112
769.394	110
770.565	114
771.737	126
772.908	110
774.078	116
775.249	110
776.419	100
777.589	112
778.758	100
779.928	110
781.097	126
782.266	110
783.435	120
784.604	114
785.773	120
786.941	110
788.11	128
789.278	116
790.446	118
791.613	112
792.781	122
793.948	120
795.115	134
796.282	126
797.449	126
798.616	124
799.782	116
800.948	120
802.115	132
803.28	126
804.446	120
805.612	134
806.777	134
807.941	122
809.106	122
810.271	136
811.435	146
812.6	130
813.764	130
814.927	126
816.091	136
817.254	130
818.418	140
819.581	144
820.743	126
821.906	118
823.069	142
824.232	138
825.393	140
826.555	144
827.717	128
828.879	138
830.039	148
831.201	136
832.362	158
833.522	142
834.683	144
835.844	142
837.003	158
838.164	156
839.324	160
840.483	148
841.643	162
842.801	154
843.961	144
845.12	156
846.278	152
847.437	150
848.594	174
849.753	166
850.91	146
852.069	154
853.227	156
854.383	158
855.541	156
856.697	158
857.855	166
859.011	180
860.168	176
861.323	154
862.48	158
863.635	184
864.79	178
865.946	178
867.101	176
868.257	168
869.411	184
870.567	194
871.721	184
872.874	174
874.029	166
875.183	176
876.336	182
877.49	184
878.643	164
879.796	174
880.95	190
882.102	202
883.254	174
884.407	190
885.559	176
886.711	196
887.862	194
889.015	186
890.166	196
891.317	184
892.467	222
893.619	208
894.77	204
895.92	190
897.07	194
898.221	188
899.371	194
900.52	212
901.669	214
902.819	194
903.968	212
905.116	204
906.266	200
907.415	228
908.563	218
909.711	208
910.859	236
912.007	206
913.154	202
914.301	220
915.449	208
916.596	222
917.742	210
918.889	212
920.036	234
921.183	212
922.329	194
923.475	232
924.621	224
925.765	218
926.911	226
928.056	222
929.201	228
930.346	238
931.49	248
932.635	228
933.779	220
934.924	236
936.068	240
937.211	256
938.355	244
939.498	238
940.64	232
941.784	238
942.926	238
944.069	252
945.212	264
946.354	268
947.495	230
948.637	262
949.779	260
950.921	264
952.062	264
953.202	252
954.344	264
955.484	256
956.625	254
957.765	260
958.905	258
960.045	262
961.184	262
962.324	266
963.464	276
964.604	286
965.742	290
966.881	298
968.02	276
969.158	270
970.296	296
971.434	282
972.572	294
973.71	288
974.847	292
975.985	296
977.121	300
978.259	298
979.396	274
980.532	282
981.669	302
982.804	304
983.941	302
985.076	302
986.212	308
987.347	290
988.483	304
989.617	290
990.753	294
991.887	314
993.022	318
994.156	298
995.29	328
996.424	308
997.558	320
998.692	322
999.825	338
1000.96	312
1002.09	308
1003.22	334
1004.36	336
1005.49	326
1006.62	322
1007.75	356
1008.89	356
1010.02	328
1011.15	366
1012.28	340
1013.41	326
1014.54	348
1015.67	368
1016.8	350
1017.93	356
1019.07	336
1020.19	338
1021.32	358
1022.45	350
1023.58	340
1024.71	368
1025.84	360
1026.97	362
1028.1	374
1029.23	368
1030.36	370
1031.49	336
1032.61	348
1033.74	378
1034.87	366
1036	412
1037.12	380
1038.25	390
1039.38	392
1040.5	382
1041.63	406
1042.76	368
1043.88	386
1045.01	392
1046.14	382
1047.26	400
1048.39	408
1049.51	408
1050.64	396
1051.76	404
1052.89	424
1054.01	410
1055.14	402
1056.26	410
1057.38	428
1058.51	402
1059.63	420
1060.75	414
1061.88	416
1063	418
1064.12	428
1065.25	444
1066.37	440
1067.49	444
1068.61	438
1069.73	420
1070.86	412
1071.98	460
1073.1	472
1074.22	408
1075.34	466
1076.46	458
1077.58	452
1078.7	466
1079.82	444
1080.94	444
1082.06	470
1083.18	466
1084.3	458
1085.42	458
1086.54	468
1087.66	454
1088.78	464
1089.9	488
1091.02	460
1092.14	464
1093.25	498
1094.37	484
1095.49	494
1096.61	496
1097.72	486
1098.84	482
1099.96	470
1101.08	472
1102.19	476
1103.31	508
1104.43	458
1105.54	484
1106.66	492
1107.77	510
1108.89	500
1110	506
1111.12	482
1112.23	518
1113.35	496
1114.46	520
1115.58	492
1116.69	522
1117.81	490
1118.92	492
1120.03	526
1121.15	520
1122.26	506
1123.37	506
1124.49	528
1125.6	492
1126.71	504
1127.83	512
1128.94	526
1130.05	530
1131.16	544
1132.27	520
1133.39	536
1134.5	524
1135.61	520
1136.72	524
1137.83	524
1138.94	496
1140.05	518
1141.16	502
1142.27	546
1143.38	508
1144.49	538
1145.6	546
1146.71	510
1147.82	528
1148.93	556
1150.04	546
1151.15	576
1152.26	522
1153.36	536
1154.47	564
1155.58	554
1156.69	550
1157.8	566
1158.9	554
1160.01	548
1161.12	552
1162.22	570
1163.33	560
1164.44	548
1165.54	546
1166.65	574
1167.76	550
1168.86	554
1169.97	574
1171.07	542
1172.18	554
1173.28	544
1174.39	564
1175.49	564
1176.6	554
1177.7	536
1178.81	574
1179.91	572
1181.02	562
1182.12	554
1183.22	528
1184.33	568
1185.43	572
1186.53	552
1187.63	546
1188.74	564
1189.84	544
1190.94	538
1192.04	560
1193.15	542
1194.25	564
1195.35	540
1196.45	544
1197.55	532
1198.65	528
1199.75	562
1200.85	564
1201.95	572
1203.05	540
1204.16	542
1205.25	534
1206.35	548
1207.45	536
1208.55	548
1209.65	528
1210.75	544
1211.85	564
1212.95	532
1214.05	564
1215.15	540
1216.24	558
1217.34	540
1218.44	534
1219.54	552
1220.64	536
1221.73	524
1222.83	502
1223.93	522
1225.02	552
1226.12	526
1227.22	506
1228.31	500
1229.41	536
1230.5	534
1231.6	504
1232.7	506
1233.79	514
1234.89	502
1235.98	508
1237.08	506
1238.17	526
1239.26	502
1240.36	502
1241.45	500
1242.55	530
1243.64	504
1244.73	498
1245.83	514
1246.92	500
1248.01	490
1249.11	470
1250.2	462
1251.29	508
1252.38	502
1253.48	476
1254.57	486
1255.66	500
1256.75	478
1257.84	476
1258.93	490
1260.03	496
1261.12	486
1262.21	474
1263.3	484
1264.39	484
1265.48	460
1266.57	468
1267.66	452
1268.75	476
1269.84	486
1270.93	456
1272.02	456
1273.11	486
1274.19	452
1275.28	444
1276.37	460
1277.46	472
1278.55	460
1279.64	450
1280.72	450
1281.81	432
1282.9	442
1283.98	460.146
1285.07	450.513
1286.16	454.223
1287.25	451.86
1288.33	421.32
1289.42	464.543
1290.5	440.544
1291.59	441.699
1292.68	441.786
1293.76	447.118
1294.85	417.005
1295.93	438.36
1297.02	429.069
1298.1	407.148
1299.19	451.253
1300.27	441.08
1301.36	422.484
1302.44	412.077
1303.53	405.014
1304.61	436.755
1305.69	429.103
1306.78	410.951
1307.86	422.963
1308.94	407.07
1310.03	420.988
1311.11	415.5
1312.19	408.366
1313.27	384.974
1314.36	408.412
1315.44	396.292
1316.52	399.607
1317.6	394.246
1318.68	384.222
1319.77	404.747
1320.85	392.175
1321.93	388.966
1323.01	380.872
1324.09	376.248
1325.17	394.374
1326.25	386.654
1327.33	362.254
1328.41	384.325
1329.49	388.821
1330.57	358.055
1331.65	374.552
1332.73	367.727
1333.81	355.335
1334.89	373.414
1335.97	355.327
1337.04	395.249
1338.12	372.168
1339.2	379.02
1340.28	364.234
1341.36	366.182
1342.44	349.371
1343.51	356.539
1344.59	360.415
1345.67	359.916
1346.75	352.369
1347.82	338.865
1348.9	330.337
1349.98	339.21
1351.05	343.619
1352.13	335.205
1353.2	347.456
1354.28	342.539
1355.36	343.75
1356.43	337.01
1357.51	319.635
1358.58	344.733
1359.66	335.151
1360.73	331.724
1361.81	324.866
1362.88	326.868
1363.96	348.491
1365.03	332.049
1366.1	338.394
1367.18	321.134
1368.25	337.343
1369.33	327.649
1370.4	319.532
1371.47	320.43
1372.54	336.993
1373.62	333.88
1374.69	319.177
1375.76	325.991
1376.83	316.608
1377.91	316.863
1378.98	308.57
1380.05	307.226
1381.12	293.129
1382.19	321.506
1383.26	304.099
1384.34	307.381
1385.41	306.153
1386.48	305.363
1387.55	299.881
1388.62	295.003
1389.69	291.924
1390.76	284.797
1391.83	299.463
1392.9	314.21
1393.02	316
1394.1	272
1395.17	288
1396.25	288
1397.32	308
1398.4	312
1399.47	290
1400.55	288
1401.62	290
1402.69	302
1403.77	276
1404.84	300
1405.91	276
1406.99	284
1408.06	278
1409.13	278
1410.2	284
1411.27	262
1412.35	292
1413.42	298
1414.49	294
1415.56	266
1416.63	268
1417.7	276
1418.78	260
1419.85	278
1420.92	286
1421.99	258
1423.06	252
1424.13	282
1425.2	266
1426.27	264
1427.34	278
1428.41	248
1429.48	268
1430.55	266
1431.61	256
1432.68	242
1433.75	254
1434.82	260
1435.89	278
1436.96	256
1438.02	256
1439.09	254
1440.16	252
1441.23	266
1442.3	252
1443.36	244
1444.43	252
1445.5	238
1446.56	266
1447.63	244
1448.7	252
1449.76	234
1450.83	232
1451.89	226
1452.96	230
1454.02	246
1455.09	242
1456.15	256
1457.22	250
1458.28	222
1459.35	212
1460.41	238
1461.48	234
1462.54	242
1463.61	226
1464.67	240
1465.73	240
1466.8	252
1467.86	236
1468.92	246
1469.98	238
1471.05	234
1472.11	226
1473.17	242
1474.24	236
1475.3	232
1476.36	230
1477.42	236
1478.48	228
1479.54	226
1480.6	226
1481.67	226
1482.73	218
1483.79	224
1484.85	238
1485.91	240
1486.97	220
1488.03	220
1489.09	220
1490.15	230
1491.21	232
1492.27	216
1493.33	248
1494.38	218
1495.44	216
1496.5	216
1497.56	214
1498.62	228
1499.68	224
1500.74	222
1501.79	212
1502.85	216
1503.91	204
1504.97	216
1506.02	208
1507.08	204
1508.14	198
1509.2	202
1510.25	208
1511.31	208
1512.36	206
1513.42	220
1514.48	218
1515.53	198
1516.59	216
1517.64	220
1518.7	214
1519.75	192
1520.81	196
1521.86	210
1522.92	198
1523.97	196
1525.02	192
1526.08	184
1527.13	210
1528.19	204
1529.24	196
1530.29	198
1531.35	202
1532.4	192
1533.45	188
1534.51	186
1535.56	190
1536.61	194
1537.66	194
1538.72	196
1539.77	186
1540.82	218
1541.87	192
1542.92	190
1543.97	180
1545.02	190
1546.08	212
1547.13	200
1548.18	194
1549.23	188
1550.28	176
1551.33	190
1552.38	184
1553.43	192
1554.48	184
1555.53	206
1556.57	194
1557.62	188
1558.67	194
1559.72	202
1560.77	190
1561.82	202
1562.87	188
1563.92	190
1564.96	180
1566.01	176
1567.06	176
1568.11	180
1569.15	182
1570.2	178
1571.25	186
1572.29	168
1573.34	188
1574.39	172
1575.43	184
1576.48	184
1577.53	172
1578.57	170
1579.62	164
1580.66	186
1581.71	170
1582.75	176
1583.8	184
1584.84	172
1585.89	172
1586.93	180
1587.98	188
1589.02	184
1590.06	178
1591.11	178
1592.15	180
1593.2	190
1594.24	186
1595.28	196
1596.33	166
1597.37	168
1598.41	168
1599.45	172
1600.5	174
1601.54	176
1602.58	172
1603.62	172
1604.66	190
1605.7	188
1606.75	160
1607.79	184
1608.83	178
1609.87	174
1610.91	182
1611.95	162
1612.99	172
1614.03	172
1615.07	174
1616.11	196
1617.15	168
1618.19	198
1619.23	178
1620.27	170
1621.31	174
1622.35	178
1623.39	174
1624.43	168
1625.46	174
1626.5	180
1627.54	172
1628.58	164
1629.62	180
1630.65	146
1631.69	160
1632.73	168
1633.77	182
1634.8	166
1635.84	164
1636.88	164
1637.91	154
1638.95	164
1639.99	172
1641.02	164
1642.06	182
1643.09	158
1644.13	164
1645.16	158
1646.2	168
1647.23	166
1648.27	154
1649.3	178
1650.34	152
1651.37	166
1652.41	166
1653.44	170
1654.47	146
1655.51	172
1656.54	160
1657.57	158
1658.61	162
1659.64	148
1660.67	162
1661.71	162
1662.74	162
1663.77	164
1664.81	158
1665.84	156
1666.87	164
1667.9	188
1668.93	158
1669.96	164
1671	170
1672.03	154
1673.06	166
1674.09	158
1675.12	158
1676.15	146
1677.18	160
1678.21	150
1679.24	164
1680.27	156
1681.3	148
1682.33	160
1683.36	162
1684.39	162
1685.42	162
1686.45	166
1687.47	156
1688.5	148
1689.53	146
1690.56	162
1691.59	148
1692.62	150
1693.64	154
1694.67	164
1695.7	148
1696.73	146
1697.75	164
1698.78	162
1699.81	142
1700.83	164
1701.86	156
1702.89	148
1703.91	154
1704.94	160
1705.97	158
1706.99	144
1708.02	162
1709.04	158
1710.07	160
1711.09	156
1712.12	160
1713.14	156
1714.17	156
1715.19	162
1716.22	146
1717.24	156
1718.26	140
1719.29	158
1720.31	136
1721.33	138
1722.36	158
1723.38	146
1724.4	152
1725.43	162
1726.45	164
1727.47	138
1728.49	152
1729.52	156
1730.54	166
1731.56	144
1732.58	152
1733.6	152
1734.63	150
1735.65	142
1736.67	150
1737.69	152
1738.71	158
1739.73	150
1740.75	156
1741.77	142
1742.79	148
1743.81	144
1744.83	154
1745.85	152
1746.87	154
1747.89	152
1748.91	148
1749.93	156
1750.95	144
1751.97	150
1752.98	152
1754	154
1755.02	150
1756.04	162
1757.06	148
1758.07	162
1759.09	150
1760.11	146
1761.13	152
1762.14	152
1763.16	154
1764.18	150
1765.19	156
1766.21	150
1767.23	154
1768.24	160
1769.26	148
1770.28	148
1771.29	138
1772.31	152
1773.32	158
1774.34	142
1775.35	138
1776.37	150
1777.38	150
1778.4	142
1779.41	132
1780.43	140
1781.44	152
1782.45	146
1783.47	154
1784.48	150
1785.49	160
1786.51	148
1787.52	144
1788.53	142
1789.55	156
1790.56	140
1791.57	132
1792.58	166
1793.6	154
1794.61	158
1795.62	144
1796.63	146
1797.64	142
1798.66	152
1799.67	150
1800.68	158
1801.69	142
1802.7	144
1803.71	146
1804.72	154
1805.73	148
1806.74	148
1807.75	150
1808.76	144
1809.77	150
1810.78	154
1811.79	150
1812.8	150
1813.81	146
1814.82	158
1815.83	150
1816.84	152
1817.84	150
1818.85	144
1819.86	148
1820.87	150
1821.88	140
1822.88	158
1823.89	134
1824.9	150
1825.91	132
1826.91	144
1827.92	142
1828.93	156
1829.93	140
1830.94	144
1831.95	144
1832.95	156
1833.96	144
1834.97	150
1835.97	138
1836.98	158
1837.98	162
1838.99	144
1839.99	130
1841	148
1842	156
1843.01	160
1844.01	160
1845.02	136
1846.02	150
1847.02	152
1848.03	148
1849.03	140
1850.03	150
1851.04	148
1852.04	148
1853.04	152
1854.05	166
1855.05	152
1856.05	148
1857.05	152
1858.06	138
1859.06	150
1860.06	132
1861.06	144
1862.06	154
1863.07	128
1864.07	138
1865.07	158
1866.07	144
1867.07	144
1868.07	146
1869.07	140
1870.07	144
1871.07	142
1872.07	136
1873.07	144
1874.07	140
1875.07	148
1876.07	140
1877.07	142
1878.07	138
1879.07	144
1880.07	142
1881.07	150
1882.07	144
1883.06	152
1884.06	148
1885.06	140
1886.06	144
1887.06	142
1888.05	150
1889.05	136
1890.05	130
1891.05	138
1892.04	136
1893.04	160
1894.04	136
1895.03	148
1896.03	160
1897.03	142
1898.02	152
1899.02	148
1900.01	132
1901.01	148
1902	130
1903	144
1903.99	128
1904.99	146
1905.98	152
1906.98	146
1907.97	146
1908.97	146
1909.96	150
1910.96	132
1911.95	142
1912.94	142
1913.94	154
1914.93	132
1915.93	148
1916.92	144
1917.91	154
1918.9	142
1919.9	164
1920.89	138
1921.88	140
1922.87	148
1923.87	142
1924.86	142
1925.85	148
1926.84	154
1927.83	144
1928.82	152
1929.82	144
1930.81	146
1931.8	142
1932.79	156
1933.78	138
1934.77	144
1935.76	150
1936.75	148
1937.74	152
1938.73	148
1939.72	146
1940.71	134
1941.7	134
1942.69	142
1943.68	148
1944.67	142
1945.65	154
1946.64	138
1947.63	150
1948.62	142
1949.61	146
1950.6	140
1951.58	132
1952.57	138
1953.56	130
1954.55	154
1955.53	132
1956.52	144
1957.51	132
1958.5	132
1959.48	128
1960.47	140
1961.45	138
1962.44	148
1963.43	150
1964.41	150
1965.4	140
1966.38	146
1967.37	136
1968.35	134
1969.34	140
1970.32	138
1971.31	148
1972.29	140
1973.28	142
1974.26	144
1975.25	126
1976.23	140
1977.22	136
1978.2	138
1979.18	138
1980.17	132
1981.15	144
1982.13	128
1983.12	146
1984.1	148
1985.08	138
1986.06	144
1987.05	140
1988.03	142
1989.01	132
1989.99	146
1990.97	138
1991.96	144
1992.94	146
1993.92	130
1994.9	146
1995.88	144
1996.86	132
1997.84	142
1998.82	138
1999.8	150
2000.78	152
2001.76	142
2002.74	152
2003.72	152
2004.7	136
2005.68	156
2006.66	138
2007.64	150
2008.62	140
2009.6	142
2010.58	142
2011.56	150
2012.54	144
2013.51	138
2014.49	132
2015.47	142
2016.45	136
2017.43	138
2018.4	138
2019.38	130
2020.36	146
2021.34	134
2022.31	154
2023.29	136
2024.27	146
2025.24	122
2026.22	138
2027.2	132
2028.17	137
2029.15	142
2030.12	148
2031.1	138
2032.07	136
2033.05	138
2034.03	138
2035	122
2035.98	130
2036.95	136
2037.93	138
2038.9	134
2039.87	140
2040.85	150
2041.82	146
2042.8	138
2043.77	138
2044.74	142
2045.72	144
2046.69	128
2047.66	146
2048.64	158
2049.61	138
2050.58	154
2051.55	118
2052.53	146
2053.5	138
2054.47	134
2055.44	134
2056.41	154
2057.39	148
2058.36	150
2059.33	136
2060.3	134
2061.27	136
2062.24	138
2063.21	146
2064.18	138
2065.15	128
2066.12	150
2067.09	128
2068.06	136
2069.03	132
2070	146
2070.97	142
2071.94	136
2072.91	152
2073.88	152
2074.85	156
2075.82	146
2076.79	136
2077.76	154
2078.73	148
2079.69	140
2080.66	126
2081.63	136
2082.6	144
2083.56	130
2084.53	128
2085.5	148
2086.47	136
2087.43	144
2088.4	120
2089.37	140
2090.33	152
2091.3	152
2092.27	126
2093.23	148
2094.2	134
2095.17	150
2096.13	130
2097.1	138
2098.06	138
2099.03	146
2099.99	134
2100.96	136
2101.92	138
2102.89	126
2103.85	138
2104.82	130
2105.78	146
2106.74	134
2107.71	128
2108.67	148
2109.64	142
2110.6	136
2111.56	140
2112.53	130
2113.49	132
2114.45	124
2115.41	146
2116.38	114
2117.34	132
2118.3	140
2119.26	132
2120.23	142
2121.19	144
2122.15	144
2123.11	130
2124.07	132
2125.03	138
2126	142
2126.96	130
2127.92	120
2128.88	140
2129.84	136
2130.8	134
2131.76	138
2132.72	144
2133.68	128
2134.64	126
2135.6	136
2136.56	142
2137.52	132
2138.48	136
2139.44	148
2140.4	130
2141.35	146
2142.31	146
2143.27	144
2144.23	126
2145.19	138
2146.15	140
2147.1	130
2148.06	142
2149.02	124
2149.98	132
2150.94	142
2151.89	130
2152.85	136
2153.81	128
2154.76	132
2155.72	132
2156.68	126
2157.63	144
2158.59	134
2159.55	134
2160.5	134
2161.46	126
2162.41	132
2163.37	124
2164.32	130
2165.28	142
2166.23	138
2167.19	140
2168.14	132
2169.1	152
2170.05	126
2171.01	132
2171.96	142
2172.91	136
2173.87	126
2174.82	136
2175.78	138
2176.73	130
2177.68	114
2178.64	134
2179.59	140
2180.54	134
2181.49	158
2182.45	128
2183.4	132
2184.35	130
2185.3	130
2186.26	126
2187.21	138
2188.16	130
2189.11	126
2190.06	136
2191.01	136
2191.96	132
2192.92	134
2193.87	138
2194.82	132
2195.77	136
2196.72	130
2197.67	134
2198.62	134
2199.57	130
2200.52	136
2201.47	132
2202.42	124
2203.37	112
2204.32	122
2205.27	134
2206.22	144
2207.16	124
2208.11	130
2209.06	120
2210.01	110
2210.96	114
2211.91	126
2212.85	122
2213.8	132
2214.75	132
2215.7	118
2216.64	144
2217.59	134
2218.54	134
2219.49	136
2220.43	128
2221.38	124
2222.33	128
2223.27	141.921
2224.22	126.062
2225.16	133.976
2226.11	138.515
2227.06	133.574
2228	126.656
2228.95	136.018
2229.89	142.276
2230.84	124.668
2231.78	129.432
2232.73	127.803
2233.67	115.675
2234.62	127.755
2235.56	121.346
2236.51	135.13
2237.45	119.388
2238.4	110.635
2239.34	129.34
2240.28	121.984
2241.23	141.235
2242.17	133.666
2243.11	138.539
2244.06	127.55
2245	127.327
2245.94	126.878
2246.89	131.055
2247.83	133.024
2248.77	134.681
2249.71	130.802
2250.66	129.408
2251.6	126.064
2252.54	121.103
2253.48	130.464
2254.42	135.078
2255.37	129.497
2256.31	123.98
2257.25	130.977
2258.19	139.435
2259.13	126.264
2260.07	126.32
2261.01	131.24
2261.95	125.936
2262.89	128.39
2263.83	122.27
2264.77	126.965
2265.71	132.262
2266.65	127.891
2267.59	128.606
2268.53	126.186
2269.47	131.926
2270.41	123.391
2271.35	132.304
2272.29	145.465
2273.23	135.977
2274.17	134.918
2275.1	128.895
2276.04	130.983
2276.98	126.068
2277.92	130.067
2278.86	130.29
2279.8	126.479
2280.73	125.809
2281.67	132.75
2282.61	126.874
2283.55	138.519
2284.48	129.224
2285.42	130.557
2286.36	130.18
2287.29	130.605
2288.23	137.404
2289.17	123.379
2290.1	122.954
2291.04	138.199
2291.98	129.131
2292.91	120.894
2293.85	135.142
2294.78	137.725
2295.72	125.101
2296.65	123.505
2297.59	122
2298.52	126.169
2299.46	140.161
2300.39	135.745
2301.33	127.36
2302.26	126.516
2303.2	134.523
2304.13	133.335
2305.06	124.544
2306	126.668
2306.93	124.95
2307.87	133.462
2308.8	136.671
2309.73	130.168
2310.67	130.737
2311.6	136.928
2312.53	132.59
2313.46	123.935
2314.4	134.297
2315.33	133.62
2316.26	132.753
2316.69	140
2317.62	132
2318.56	128
2319.5	138
2320.43	120
2321.37	134
2322.31	134
2323.24	118
2324.18	128
2325.12	116
2326.05	144
2326.99	130
2327.92	118
2328.86	136
2329.79	124
2330.73	120
2331.66	130
2332.6	132
2333.53	134
2334.47	128
2335.4	136
2336.34	120
2337.27	124
2338.2	138
2339.14	126
2340.07	136
2341.01	140
2341.94	122
2342.87	134
2343.81	112
2344.74	128
2345.67	120
2346.6	128
2347.54	122
2348.47	130
2349.4	122
2350.33	126
2351.27	130
2352.2	122
2353.13	130
2354.06	130
2354.99	136
2355.93	128
2356.86	134
2357.79	118
2358.72	130
2359.65	120
2360.58	120
2361.51	122
2362.44	140
2363.37	138
2364.3	116
2365.23	130
2366.16	128
2367.09	120
2368.02	148
2368.95	116
2369.88	132
2370.81	126
2371.74	138
2372.67	132
2373.6	126
2374.52	126
2375.45	136
2376.38	116
2377.31	136
2378.24	122
2379.17	118
2380.09	130
2381.02	120
2381.95	126
2382.88	120
2383.8	126
2384.73	122
2385.66	132
2386.58	120
2387.51	108
2388.44	112
2389.36	132
2390.29	128
2391.22	122
2392.14	112
2393.07	126
2393.99	118
2394.92	128
2395.85	104
2396.77	114
2397.7	106
2398.62	122
2399.55	108
2400.47	112
2401.4	118
2402.32	102
2403.25	116
2404.17	122
2405.09	122
2406.02	120
2406.94	122
2407.86	120
2408.79	110
2409.71	130
2410.63	120
2411.56	106
2412.48	112
2413.4	100
2414.33	118
2415.25	120
2416.17	110
2417.09	118
2418.02	112
2418.94	120
2419.86	124
2420.78	112
2421.7	124
2422.63	118
2423.55	118
2424.47	138
2425.39	114
2426.31	120
2427.23	120
2428.15	126
2429.07	112
2429.99	132
2430.91	114
2431.83	114
2432.75	98
2433.67	120
2434.59	100
2435.51	124
2436.43	114
2437.35	114
2438.27	130
2439.19	114
2440.11	112
2441.03	120
2441.95	124
2442.86	122
2443.78	110
2444.7	112
2445.62	102
2446.54	104
2447.46	124
2448.37	108
2449.29	110
2450.21	110
2451.13	98
2452.04	106
2452.96	112
2453.88	102
2454.79	112
2455.71	102
2456.63	118
2457.54	118
2458.46	114
2459.38	104
2460.29	106
2461.21	110
2462.12	130
2463.04	130
2463.95	106
2464.87	108
2465.78	108
2466.7	108
2467.61	112
2468.53	98
2469.44	106
2470.36	86
2471.27	102
2472.19	120
2473.1	112
2474.01	114
2474.93	102
2475.84	102
2476.76	108
2477.67	108
2478.58	96
2479.5	92
2480.41	102
2481.32	102
2482.23	108
2483.15	114
2484.06	98
2484.97	106
2485.88	114
2486.8	110
2487.71	126
2488.62	110
2489.53	98
2490.44	104
2491.35	100
2492.26	102
2493.18	108
2494.09	96
2495	102
2495.91	104
2496.82	106
2497.73	104
2498.64	108
2499.55	102
2500.46	112
2501.37	112
2502.28	116
2503.19	102
2504.1	106
2505.01	104
2505.92	102
2506.83	100
2507.74	104
2508.65	114
2509.55	100
2510.46	88
2511.37	100
2512.28	114
2513.19	98
2514.09	92
2515	102
2515.91	102
2516.82	98
2517.73	106
2518.63	98
2519.54	96
2520.45	100
2521.35	102
2522.26	100
2523.17	100
2524.07	92
2524.98	100
2525.89	92
2526.79	114
2527.7	90
2528.6	94
2529.51	88
2530.42	106
2531.32	104
2532.23	98
2533.13	96
2534.04	94
2534.94	80
2535.85	88
2536.75	100
2537.66	106
2538.56	80
2539.47	106
2540.37	108
2541.27	90
2542.18	90
2543.08	92
2543.98	108
2544.89	104
2545.79	110
2546.7	114
2547.6	96
2548.5	94
2549.4	94
2550.31	102
2551.21	98
2552.11	98
2553.01	106
2553.92	100
2554.82	94
2555.72	96
2556.62	100
2557.52	90
2558.42	102
2559.33	88
2560.23	92
2561.13	96
2562.03	90
2562.93	90
2563.83	86
2564.73	80
2565.63	98
2566.53	92
2567.43	102
2568.33	90
2569.23	106
2570.13	80
2571.03	82
2571.93	94
2572.83	98
2573.73	88
2574.63	84
2575.53	90
2576.43	110
2577.33	88
2578.22	90
2579.12	80
2580.02	96
2580.92	74
2581.82	90
2582.72	84
2583.61	86
2584.51	92
2585.41	86
2586.31	94
2587.2	90
2588.1	96
2589	82
2589.89	90
2590.79	82
2591.69	86
2592.58	82
2593.48	88
2594.38	90
2595.27	94
2596.17	88
2597.06	88
2597.96	74
2598.86	88
2599.75	90
2600.65	90
2601.54	90
2602.44	98
2603.33	84
2604.23	90
2605.12	96
2606.02	104
2606.91	90
2607.81	86
2608.7	78
2609.59	90
2610.49	84
2611.38	84
2612.27	80
2613.17	82
2614.06	84
2614.95	96
2615.85	84
2616.74	88
2617.63	104
2618.53	72
2619.42	82
2620.31	80
2621.2	80
2622.1	88
2622.99	102
2623.88	90
2624.77	72
2625.66	74
2626.55	82
2627.45	88
2628.34	84
2629.23	82
2630.12	90
2631.01	88
2631.9	80
2632.79	88
2633.68	76
2634.57	92
2635.46	72
2636.35	82
2637.24	86
2638.13	86
2639.02	88
2639.91	94
2640.8	82
2641.69	76
2642.58	80
2643.47	78
2644.36	82
2645.25	82
2646.14	84
2647.02	80
2647.91	74
2648.8	86
2649.69	74
2650.58	76
2651.46	82
2652.35	82
2653.24	86
2654.13	82
2655.01	88
2655.9	72
2656.79	78
2657.68	86
2658.56	76
2659.45	86
2660.34	88
2661.22	94
2662.11	88
2662.99	78
2663.88	88
2664.77	82
2665.65	82
2666.54	82
2667.42	70
2668.31	74
2669.2	78
2670.08	88
2670.96	82
2671.85	68
2672.73	68
2673.62	90
2674.5	74
2675.39	72
2676.27	74
2677.16	68
2678.04	82
2678.93	76
2679.81	68
2680.69	70
2681.58	72
2682.46	82
2683.34	74
2684.23	74
2685.11	80
2685.99	76
2686.87	82
2687.76	70
2688.64	80
2689.52	62
2690.4	66
2691.28	66
2692.17	60
2693.05	70
2693.93	78
2694.81	74
2695.69	58
2696.57	82
2697.46	74
2698.34	78
2699.22	80
2700.1	76
2700.98	70
2701.86	68
2702.74	64
2703.62	76
2704.5	74
2705.38	74
2706.26	68
2707.14	66
2708.02	76
2708.9	68
2709.78	74
2710.66	76
2711.54	74
2712.42	66
2713.3	76
2714.17	82
2715.05	66
2715.93	70
2716.81	74
2717.69	76
2718.57	64
2719.44	62
2720.32	66
2721.2	72
2722.08	74
2722.95	84
2723.83	68
2724.71	72
2725.59	70
2726.46	72
2727.34	70
2728.22	66
2729.09	70
2729.97	62
2730.85	66
2731.72	68
2732.6	72
2733.47	60
2734.35	76
2735.23	70
2736.1	74
2736.98	68
2737.85	66
2738.73	58
2739.6	66
2740.48	72
2741.35	62
2742.23	78
2743.1	70
2743.98	72
2744.85	64
2745.72	68
2746.6	70
2747.47	64
2748.35	62
2749.22	62
2750.09	68
2750.97	64
2751.84	70
2752.71	64
2753.59	60
2754.46	76
2755.33	72
2756.2	80
2757.08	64
2757.95	66
2758.82	76
2759.69	64
2760.57	64
2761.44	58
2762.31	58
2763.18	66
2764.05	64
2764.92	68
2765.79	68
2766.67	70
2767.54	62
2768.41	62
2769.28	72
2770.15	58
2771.02	60
2771.89	70
2772.76	64
2773.63	62
2774.5	64
2775.37	60
2776.24	60
2777.11	76
2777.98	58
2778.85	62
2779.72	72
2780.59	58
2781.46	64
2782.32	64
2783.19	70
2784.06	56
2784.93	60
2785.8	74
2786.67	56
2787.53	62
2788.4	68
2789.27	64
2790.14	62
2791.01	52
2791.87	68
2792.74	74
2793.61	46
2794.47	60
2795.34	62
2796.21	66
2797.07	60
2797.94	56
2798.81	58
2799.67	72
2800.54	60
2801.41	64
2802.27	58
2803.14	68
2804	52
2804.87	64
2805.74	64
2806.6	60
2807.47	60
2808.33	54
2809.2	64
2810.06	56
2810.93	56
2811.79	56
2812.65	74
2813.52	56
2814.38	60
2815.25	58
2816.11	58
2816.98	54
2817.84	56
2818.7	56
2819.56	70
2820.43	58
2821.29	74
2822.16	64
2823.02	60
2823.88	64
2824.74	64
2825.61	50
2826.47	54
2827.33	60
2828.19	62
2829.05	66
2829.92	56
2830.78	56
2831.64	60
2832.5	58
2833.36	60
2834.23	72
2835.09	60
2835.95	60
2836.81	52
2837.67	48
2838.53	52
2839.39	50
2840.25	60
2841.11	46
2841.97	60
2842.83	42
2843.69	62
2844.55	56
2845.41	56
2846.27	56
2847.13	60
2847.99	48
2848.85	56
2849.71	46
2850.57	52
2851.43	56
2852.28	48
2853.14	60
2854	54
2854.86	58
2855.72	56
2856.58	58
2857.43	46
2858.29	52
2859.15	52
2860.01	56
2860.86	60
2861.72	48
2862.58	50
2863.44	44
2864.29	48
2865.15	58
2866.01	56
2866.86	54
2867.72	60
2868.58	60
2869.43	60
2870.29	48
2871.14	58
2872	50
2872.86	50
2873.71	51
2874.57	52
2875.42	38
2876.28	58
2877.13	56
2877.99	56
2878.84	56
2879.7	52
2880.55	54
2881.41	60
2882.26	52
2883.11	48
2883.97	52
2884.82	56
2885.68	48
2886.53	56
2887.39	50
2888.24	50
2889.09	50
2889.94	50
2890.8	54
2891.65	60
2892.5	46
2893.36	56
2894.21	50
2895.06	46
2895.91	54
2896.77	54
2897.62	46
2898.47	54
2899.32	46
2900.17	56
2901.03	48
2901.88	50
2902.73	56
2903.58	46
2904.43	46
2905.28	58
2906.13	56
2906.98	56
2907.84	56
2908.69	52
2909.54	54
2910.39	50
2911.24	46
2912.09	52
2912.94	50
2913.79	52
2914.64	54
2915.49	60
2916.34	38
2917.19	54
2918.03	54
2918.88	52
2919.73	46
2920.58	50
2921.43	54
2922.28	40
2923.13	44
2923.98	40
2924.82	42
2925.67	56
2926.52	56
2927.37	48
2928.22	50
2929.06	46
2929.91	58
2930.76	52
2931.61	62
2932.45	44
2933.3	42
2934.15	44
2934.99	48
2935.84	46
2936.69	54
2937.53	48
2938.38	54
2939.23	50
2940.07	54
2940.92	52
2941.76	50
2942.61	52
2943.46	48
2944.3	46
2945.15	46
2945.99	48
2946.84	58
2947.68	46
2948.53	50
2949.37	40
2950.22	50
2951.06	44
2951.9	42
2952.75	38
2953.59	52
2954.44	44
2955.28	52
2956.12	54
2956.97	44
2957.81	48
2958.65	44
2959.5	58
2960.34	50
2961.18	44
2962.03	40
2962.87	48
2963.71	50
2964.56	50
2965.4	38
2966.24	44
2967.08	50
2967.92	44
2968.77	48
2969.61	44
2970.45	44
2971.29	50
2972.13	48
2972.97	46
2973.82	46
2974.66	52
2975.5	46
2976.34	42
2977.18	48
2978.02	40
2978.86	42
2979.7	50
2980.54	42
2981.38	42
2982.22	46
2983.06	50
2983.9	42
2984.74	42
2985.58	52
2986.42	52
2987.26	50
2988.1	38
2988.94	46
2989.78	46
2990.61	44
2991.45	42
2992.29	38
2993.13	46
2993.97	32
2994.81	44
2995.64	44
2996.48	48
2997.32	46
2998.16	40
2999	48
2999.83	34
