#Acq. time (s)=	15
#Accumulations=	1
#Range (cm-¹)=	200...3000
#Windows=	3
#Autofocus=	Off
#AutoExposure=	Off
#Spike filter=	Off
#Delay time (s)=	0
#Binning=	1
#Readout mode=	Signal
#DeNoise=	Off
#ICS correction=	Off
#Dark correction=	Off
#Inst. Process=	Off
#Instrument=	LabRAM HR Evol
#Detector=	Syncerity OE
#Objective=	x100_VIS
#Grating=	600 (500nm)
#ND Filter=	0.1%
#Laser=	633nm_Edge
#Hole=	100.021
#Range=	Visible
#Project=	Omar
#Sample=	03-07-23
#Site=	nop
#Title=	inside_prf
#Remark=	
#Date=	03.07.2023 14:27
#Acquired=	03.07.2023 14:27:17
201.713	456
202.98	426
204.247	450
205.513	442
206.778	474
208.045	446
209.311	454
210.576	452
211.84	472
213.106	446
214.371	490
215.636	518
216.899	480
218.164	476
219.428	474
220.692	492
221.955	498
223.219	492
224.482	502
225.744	504
227.007	508
228.27	500
229.531	540
230.794	564
232.055	506
233.317	536
234.579	522
235.839	562
237.1	512
238.362	548
239.621	580
240.882	556
242.141	572
243.402	562
244.661	570
245.921	576
247.179	560
248.439	562
249.698	616
250.956	588
252.215	568
253.473	584
254.731	578
255.988	636
257.246	580
258.503	640
259.761	648
261.017	624
262.273	582
263.53	632
264.786	668
266.042	622
267.298	604
268.554	636
269.809	654
271.063	648
272.319	668
273.573	690
274.828	682
276.082	668
277.336	666
278.591	672
279.844	674
281.097	638
282.351	692
283.603	628
284.855	730
286.109	682
287.361	720
288.613	716
289.866	712
291.117	738
292.368	716
293.62	746
294.871	780
296.121	742
297.372	776
298.623	772
299.873	834
301.123	778
302.372	800
303.622	780
304.872	806
306.121	824
307.37	802
308.618	822
309.866	820
311.116	828
312.364	838
313.611	844
314.859	862
316.106	826
317.353	878
318.6	880
319.848	850
321.095	862
322.341	864
323.587	874
324.833	882
326.079	918
327.324	904
328.569	898
329.814	882
331.059	892
332.304	946
333.548	914
334.792	940
336.037	942
337.28	968
338.524	974
339.767	956
341.011	936
342.254	1012
343.497	1006
344.739	1016
345.982	986
347.224	978
348.466	1038
349.708	1018
350.95	1024
352.191	1062
353.432	1056
354.673	1056
355.914	1054
357.155	1042
358.394	1066
359.634	1070
360.874	1040
362.114	1120
363.354	1098
364.593	1068
365.832	1120
367.07	1108
368.309	1146
369.548	1128
370.786	1140
372.024	1146
373.261	1162
374.499	1178
375.736	1234
376.974	1154
378.211	1204
379.447	1192
380.684	1214
381.92	1200
383.157	1176
384.392	1212
385.628	1184
386.864	1224
388.098	1200
389.333	1224
390.569	1258
391.802	1370
393.037	1270
394.272	1250
395.505	1294
396.739	1302
397.973	1338
399.206	1306
400.44	1288
401.673	1374
402.905	1330
404.138	1324
405.37	1392
406.602	1352
407.835	1402
409.066	1402
410.298	1380
411.528	1472
412.76	1394
413.99	1430
415.221	1410
416.451	1504
417.682	1534
418.911	1444
420.142	1522
421.371	1508
422.601	1502
423.83	1564
425.059	1516
426.288	1558
427.517	1578
428.745	1550
429.974	1554
431.201	1584
432.43	1614
433.657	1636
434.883	1572
436.111	1646
437.338	1594
438.565	1662
439.791	1674
441.017	1688
442.244	1642
443.469	1690
444.695	1702
445.921	1746
447.146	1704
448.37	1698
449.596	1726
450.821	1744
452.045	1740
453.27	1734
454.493	1788
455.717	1760
456.94	1828
458.165	1814
459.387	1802
460.61	1804
461.833	1818
463.056	1848
464.278	1888
465.5	1846
466.722	1848
467.945	1840
469.166	1870
470.387	1836
471.608	1864
472.829	1930
474.049	1950
475.271	1890
476.491	1950
477.711	1908
478.931	1980
480.15	1970
481.37	1950
482.589	2006
483.808	2016
485.027	2052
486.247	2022
487.465	2084
488.683	1990
489.901	2028
491.119	2060
492.337	2106
493.554	2098
494.771	2128
495.988	2128
497.205	2154
498.422	2260
499.638	2116
500.854	2158
502.07	2202
503.286	2192
504.502	2192
505.717	2200
506.933	2256
508.148	2258
509.363	2260
510.577	2250
511.792	2248
513.005	2288
514.219	2320
515.433	2286
516.647	2362
517.86	2388
519.073	2348
520.287	2360
521.5	2386
522.711	2410
523.924	2410
525.136	2450
526.348	2450
527.56	2466
528.772	2434
529.982	2458
531.194	2498
532.405	2446
533.616	2492
534.825	2496
536.036	2484
537.246	2514
538.457	2560
539.665	2520
540.875	2564
542.085	2590
543.294	2554
544.502	2614
545.712	2636
546.92	2646
548.128	2620
549.336	2652
550.545	2678
551.751	2648
552.959	2676
554.167	2684
555.373	2704
556.581	2748
557.788	2746
558.994	2742
560.2	2844
561.406	2868
562.612	2778
563.817	2810
565.023	2826
566.229	2864
567.433	2936
568.639	2916
569.843	2938
571.048	2968
572.251	3022
573.456	2982
574.659	3036
575.863	2996
577.066	3072
578.27	3040
579.472	3038
580.676	3038
581.878	3026
583.081	3062
584.283	3076
585.484	3154
586.687	3218
587.888	3202
589.09	3192
590.291	3236
591.493	3212
592.693	3282
593.893	3264
595.094	3298
596.294	3338
597.494	3310
598.694	3396
599.894	3452
601.093	3464
602.293	3474
603.491	3470
604.69	3522
605.889	3502
607.087	3538
608.285	3566
609.483	3632
610.682	3630
611.879	3678
613.076	3640
614.273	3656
615.471	3728
616.667	3758
617.864	3702
619.06	3718
620.256	3742
621.453	3850
622.648	3866
623.844	3896
625.039	3894
626.234	3956
627.429	3964
628.625	3996
629.819	4046
631.013	4018
632.208	4026
633.401	4138
634.595	4158
635.789	4172
636.982	4174
638.175	4194
639.369	4204
640.562	4268
641.755	4274
642.947	4358
644.139	4348
645.331	4328
646.523	4424
647.715	4450
648.906	4470
650.097	4470
651.288	4584
652.479	4556
653.67	4592
654.86	4638
656.051	4688
657.241	4646
658.429	4684
659.619	4682
660.808	4790
661.998	4874
663.187	4796
664.376	4806
665.565	4840
666.753	4968
667.942	4948
669.13	4944
670.317	4994
671.505	4970
672.692	5026
673.88	5142
675.067	5070
676.254	5046
677.44	5194
678.627	5266
679.813	5126
681	5242
682.184	5296
683.37	5298
684.556	5342
685.742	5426
686.926	5400
688.111	5430
689.296	5398
690.481	5484
691.664	5496
692.849	5562
694.033	5594
695.216	5676
696.4	5632
697.584	5704
698.766	5784
699.949	5780
701.133	5892
702.314	5872
703.497	5866
704.678	5870
705.861	5998
707.043	6004
708.224	6070
709.406	6114
710.586	6176
711.768	6214
712.949	6256
714.129	6268
715.31	6290
716.489	6388
717.67	6496
718.849	6504
720.029	6570
721.208	6656
722.388	6628
723.566	6640
724.746	6712
725.924	6754
727.103	6798
728.28	6770
729.458	6868
730.636	6988
731.814	6938
732.992	7052
734.168	7040
735.345	7092
736.523	7190
737.699	7190
738.876	7322
740.052	7362
741.227	7270
742.404	7450
743.579	7578
744.754	7390
745.931	7564
747.105	7668
748.28	7666
749.455	7658
750.629	7750
751.803	7814
752.977	7856
754.152	7874
755.325	8024
756.499	7806
757.672	7978
758.846	8126
760.018	8198
761.191	8258
762.363	8138
763.535	8286
764.708	8330
765.88	8390
767.052	8522
768.223	8622
769.394	8532
770.565	8610
771.737	8600
772.908	8676
774.078	8740
775.249	8836
776.419	8886
777.589	8938
778.758	8996
779.928	9116
781.097	9092
782.266	9074
783.435	9192
784.604	9226
785.773	9208
786.941	9438
788.11	9394
789.278	9538
790.446	9596
791.613	9638
792.781	9790
793.948	9790
795.115	9806
796.282	10032
797.449	10008
798.616	9988
799.782	10102
800.948	10010
802.115	10354
803.28	10390
804.446	10410
805.612	10478
806.777	10628
807.941	10622
809.106	10728
810.271	10816
811.435	10832
812.6	10930
813.764	10964
814.927	11036
816.091	11096
817.254	11262
818.418	11190
819.581	11380
820.743	11374
821.906	11514
823.069	11604
824.232	11842
825.393	11738
826.555	11832
827.717	11918
828.879	12062
830.039	12076
831.201	12362
832.362	12250
833.522	12456
834.683	12382
835.844	12520
837.003	12698
838.164	12674
839.324	12894
840.483	12846
841.643	12992
842.801	13038
843.961	13168
845.12	13186
846.278	13242
847.437	13416
848.594	13454
849.753	13720
850.91	13648
852.069	13822
853.227	13792
854.383	13830
855.541	13966
856.697	14180
857.855	14212
859.011	14342
860.168	14218
861.323	14486
862.48	14586
863.635	14582
864.79	14610
865.946	14804
867.101	14852
868.257	15078
869.411	15026
870.567	15076
871.721	15246
872.874	15354
874.029	15370
875.183	15392
876.336	15592
877.49	15820
878.643	15718
879.796	15914
880.95	15922
882.102	16048
883.254	16036
884.407	16076
885.559	16218
886.711	16480
887.862	16446
889.015	16608
890.166	16748
891.317	16656
892.467	16722
893.619	16970
894.77	16930
895.92	16912
897.07	17022
898.221	17340
899.371	17408
900.52	17616
901.669	17716
902.819	17454
903.968	17914
905.116	17888
906.266	17924
907.415	17972
908.563	18150
909.711	18180
910.859	18282
912.007	18414
913.154	18512
914.301	18590
915.449	18636
916.596	18788
917.742	18990
918.889	19144
920.036	19148
921.183	19240
922.329	19296
923.475	19640
924.621	19550
925.765	19628
926.911	19798
928.056	19962
929.201	20016
930.346	20260
931.49	20342
932.635	20368
933.779	20510
934.924	20586
936.068	20772
937.211	20878
938.355	20944
939.498	21096
940.64	21400
941.784	21180
942.926	21430
944.069	21568
945.212	21742
946.354	21924
947.495	22400
948.637	22302
949.779	22284
950.921	22474
952.062	22630
953.202	22854
954.344	22890
955.484	23044
956.625	23072
957.765	23258
958.905	23426
960.045	23580
961.184	23568
962.324	23876
963.464	24316
964.604	24240
965.742	24150
966.881	24466
968.02	24460
969.158	24654
970.296	24956
971.434	25082
972.572	25162
973.71	25164
974.847	25262
975.985	25332
977.121	25692
978.259	25642
979.396	26060
980.532	25750
981.669	25914
982.804	26252
983.941	26370
985.076	26628
986.212	26650
987.347	26736
988.483	26982
989.617	27040
990.753	27286
991.887	27366
993.022	27594
994.156	27690
995.29	27812
996.424	28042
997.558	27970
998.692	28374
999.825	28350
1000.96	28422
1002.09	28892
1003.22	28850
1004.36	28798
1005.49	29192
1006.62	29390
1007.75	29440
1008.89	29502
1010.02	29832
1011.15	29918
1012.28	30018
1013.41	30130
1014.54	30308
1015.67	30428
1016.8	30798
1017.93	30882
1019.07	31040
1020.19	31360
1021.32	31314
1022.45	31342
1023.58	31560
1024.71	31924
1025.84	32012
1026.97	32194
1028.1	32330
1029.23	32540
1030.36	33016
1031.49	33124
1032.61	33044
1033.74	33414
1034.87	33764
1036	33696
1037.12	33898
1038.25	34194
1039.38	34128
1040.5	34750
1041.63	34450
1042.76	34940
1043.88	35292
1045.01	35242
1046.14	35452
1047.26	35526
1048.39	35638
1049.51	36106
1050.64	36246
1051.76	36294
1052.89	36356
1054.01	36924
1055.14	36942
1056.26	37346
1057.38	37436
1058.51	37590
1059.63	37860
1060.75	37836
1061.88	37983
1063	38130
1064.12	38486
1065.25	38756
1066.37	38688
1067.49	39252
1068.61	39024
1069.73	39168
1070.86	39428
1071.98	39770
1073.1	39536
1074.22	39902
1075.34	39938
1076.46	40344
1077.58	40360
1078.7	40226
1079.82	40340
1080.94	40858
1082.06	40870
1083.18	41148
1084.3	41138
1085.42	41568
1086.54	41370
1087.66	41378
1088.78	41748
1089.9	41812
1091.02	42014
1092.14	42162
1093.25	41972
1094.37	42340
1095.49	42566
1096.61	42604
1097.72	42754
1098.84	43136
1099.96	43274
1101.08	43174
1102.19	43356
1103.31	43628
1104.43	43790
1105.54	44070
1106.66	44058
1107.77	44394
1108.89	44326
1110	44674
1111.12	44542
1112.23	44700
1113.35	44966
1114.46	45164
1115.58	45168
1116.69	45512
1117.81	45346
1118.92	45606
1120.03	45896
1121.15	46092
1122.26	46042
1123.37	46276
1124.49	46506
1125.6	46646
1126.71	46838
1127.83	46924
1128.94	47074
1130.05	47436
1131.16	47184
1132.27	47536
1133.39	48012
1134.5	48024
1135.61	48220
1136.72	48394
1137.83	48360
1138.94	48494
1140.05	48930
1141.16	48746
1142.27	48984
1143.38	49224
1144.49	49580
1145.6	49536
1146.71	49902
1147.82	49468
1148.93	49888
1150.04	50132
1151.15	50416
1152.26	50598
1153.36	50608
1154.47	50532
1155.58	50680
1156.69	51248
1157.8	50926
1158.9	51004
1160.01	51192
1161.12	51236
1162.22	51690
1163.33	51580
1164.44	52068
1165.54	51482
1166.65	52006
1167.76	51812
1168.86	51960
1169.97	51978
1171.07	52114
1172.18	52230
1173.28	52228
1174.39	51954
1175.49	52308
1176.6	52386
1177.7	52548
1178.81	52404
1179.91	52572
1181.02	52602
1182.12	52536
1183.22	52188
1184.33	52482
1185.43	52574
1186.53	52938
1187.63	52706
1188.74	52234
1189.84	52484
1190.94	52390
1192.04	52506
1193.15	52392
1194.25	52356
1195.35	52464
1196.45	52542
1197.55	52498
1198.65	52424
1199.75	52196
1200.85	52330
1201.95	52196
1203.05	51934
1204.16	52058
1205.25	52210
1206.35	51950
1207.45	52132
1208.55	51628
1209.65	52092
1210.75	51662
1211.85	51946
1212.95	51684
1214.05	51628
1215.15	51694
1216.24	51376
1217.34	51490
1218.44	51392
1219.54	51490
1220.64	51080
1221.73	51154
1222.83	51240
1223.93	50578
1225.02	50734
1226.12	50678
1227.22	50842
1228.31	50800
1229.41	50752
1230.5	50670
1231.6	50370
1232.7	50454
1233.79	50164
1234.89	50154
1235.98	50190
1237.08	49930
1238.17	50086
1239.26	49808
1240.36	49536
1241.45	49586
1242.55	49658
1243.64	49468
1244.73	49704
1245.83	49486
1246.92	49210
1248.01	49222
1249.11	48784
1250.2	48756
1251.29	48744
1252.38	48462
1253.48	48858
1254.57	48606
1255.66	50488
1256.75	49210
1257.84	49922
1258.93	50770
1260.03	48336
1261.12	47926
1262.21	47778
1263.3	47574
1264.39	47426
1265.48	47462
1266.57	47124
1267.66	47402
1268.75	46986
1269.84	47056
1270.93	47082
1272.02	46866
1273.11	46560
1274.19	46450
1275.28	46452
1276.37	46152
1277.46	46010
1278.55	45756
1279.64	45562
1280.72	45486
1281.81	45668
1282.9	45302
1283.98	45133.8
1285.07	44717.5
1286.16	45039.7
1287.25	44429.1
1288.33	44161.6
1289.42	43855.6
1290.5	43775.7
1291.59	43449.9
1292.68	42976
1293.76	42804.1
1294.85	42586.8
1295.93	42388.3
1297.02	42308.2
1298.1	41861.1
1299.19	41494.5
1300.27	41486.4
1301.36	41180.2
1302.44	40824.6
1303.53	40665.2
1304.61	40378.7
1305.69	40150.4
1306.78	39812.1
1307.86	39477.4
1308.94	39234
1310.03	38915.1
1311.11	38827.3
1312.19	38476.6
1313.27	38225.7
1314.36	38114.8
1315.44	37730.7
1316.52	37502.2
1317.6	37347
1318.68	37008.2
1319.77	36711.8
1320.85	36738.3
1321.93	36257.7
1323.01	36122.8
1324.09	35981.4
1325.17	35657.2
1326.25	35363
1327.33	35223.4
1328.41	34888.8
1329.49	34634.2
1330.57	34622.3
1331.65	34193.2
1332.73	33924.5
1333.81	33724.9
1334.89	33575.1
1335.97	33391
1337.04	33049.6
1338.12	32705.4
1339.2	32559
1340.28	32420.3
1341.36	32308
1342.44	31928.5
1343.51	31784.7
1344.59	31506.5
1345.67	31353.4
1346.75	31232.1
1347.82	30991
1348.9	30707
1349.98	30471.8
1351.05	30345.5
1352.13	30011.5
1353.2	29991.2
1354.28	29665.5
1355.36	29356.8
1356.43	29271.2
1357.51	29144.6
1358.58	28914.1
1359.66	28716.5
1360.73	28472
1361.81	28247
1362.88	28118
1363.96	27901.3
1365.03	27705.3
1366.1	27567.7
1367.18	27304.3
1368.25	27262
1369.33	26964.1
1370.4	26994.8
1371.47	26709.5
1372.54	26668.9
1373.62	26251
1374.69	26061.2
1375.76	25758.3
1376.83	25744
1377.91	25610.3
1378.98	25629
1380.05	25406.5
1381.12	25015.3
1382.19	24961
1383.26	24710.4
1384.34	24508
1385.41	24551.2
1386.48	24324.3
1387.55	24201.6
1388.62	23981.4
1389.69	23838.4
1390.76	23532.1
1391.83	23452.7
1392.9	23271.4
1393.02	23224
1394.1	23284
1395.17	23052
1396.25	22786
1397.32	22924
1398.4	22976
1399.47	22830
1400.55	22702
1401.62	22416
1402.69	22356
1403.77	22242
1404.84	22092
1405.91	22204
1406.99	22080
1408.06	22006
1409.13	21846
1410.2	21862
1411.27	21686
1412.35	21696
1413.42	21678
1414.49	21440
1415.56	21354
1416.63	21380
1417.7	21286
1418.78	21170
1419.85	21132
1420.92	20812
1421.99	20996
1423.06	20890
1424.13	20886
1425.2	20876
1426.27	20668
1427.34	20484
1428.41	20446
1429.48	20264
1430.55	20268
1431.61	20384
1432.68	20138
1433.75	20064
1434.82	20040
1435.89	20006
1436.96	19992
1438.02	19828
1439.09	19712
1440.16	19802
1441.23	19572
1442.3	19686
1443.36	19598
1444.43	19358
1445.5	19558
1446.56	19400
1447.63	19214
1448.7	19092
1449.76	19470
1450.83	19106
1451.89	19154
1452.96	19056
1454.02	18656
1455.09	18960
1456.15	18784
1457.22	18764
1458.28	18674
1459.35	18582
1460.41	18520
1461.48	18398
1462.54	18606
1463.61	18418
1464.67	18314
1465.73	18406
1466.8	18210
1467.86	18194
1468.92	18296
1469.98	18086
1471.05	18114
1472.11	18068
1473.17	17896
1474.24	17960
1475.3	17996
1476.36	17808
1477.42	17762
1478.48	17708
1479.54	17692
1480.6	17560
1481.67	17576
1482.73	17536
1483.79	17472
1484.85	17344
1485.91	17342
1486.97	17232
1488.03	17264
1489.09	17416
1490.15	17226
1491.21	17032
1492.27	17036
1493.33	17016
1494.38	16742
1495.44	16908
1496.5	16902
1497.56	16808
1498.62	16672
1499.68	16722
1500.74	16806
1501.79	16652
1502.85	16566
1503.91	16462
1504.97	16376
1506.02	16452
1507.08	16300
1508.14	16214
1509.2	16064
1510.25	16236
1511.31	16068
1512.36	16206
1513.42	16132
1514.48	15856
1515.53	16048
1516.59	15752
1517.64	16030
1518.7	15886
1519.75	15816
1520.81	15640
1521.86	15738
1522.92	15718
1523.97	15684
1525.02	15536
1526.08	15426
1527.13	15302
1528.19	15516
1529.24	15324
1530.29	15220
1531.35	15352
1532.4	15230
1533.45	15120
1534.51	15044
1535.56	15082
1536.61	14926
1537.66	15030
1538.72	14900
1539.77	14930
1540.82	14822
1541.87	14886
1542.92	14868
1543.97	14702
1545.02	14726
1546.08	14538
1547.13	14506
1548.18	14416
1549.23	14554
1550.28	14384
1551.33	14446
1552.38	14474
1553.43	14238
1554.48	14418
1555.53	14194
1556.57	14268
1557.62	14418
1558.67	14134
1559.72	14168
1560.77	14128
1561.82	14094
1562.87	13920
1563.92	13910
1564.96	14032
1566.01	13930
1567.06	13936
1568.11	13932
1569.15	13816
1570.2	13850
1571.25	13894
1572.29	13850
1573.34	13742
1574.39	13762
1575.43	13676
1576.48	13710
1577.53	13662
1578.57	13662
1579.62	13644
1580.66	13522
1581.71	13458
1582.75	13632
1583.8	13506
1584.84	13698
1585.89	13526
1586.93	13508
1587.98	13504
1589.02	13478
1590.06	13298
1591.11	13316
1592.15	13454
1593.2	13462
1594.24	13268
1595.28	13420
1596.33	13364
1597.37	13346
1598.41	13198
1599.45	13296
1600.5	13392
1601.54	13158
1602.58	13250
1603.62	13242
1604.66	13088
1605.7	13134
1606.75	12898
1607.79	13220
1608.83	12954
1609.87	13080
1610.91	13006
1611.95	12932
1612.99	13020
1614.03	13000
1615.07	13074
1616.11	12982
1617.15	12970
1618.19	12880
1619.23	13118
1620.27	12804
1621.31	12754
1622.35	12714
1623.39	12862
1624.43	12816
1625.46	12848
1626.5	12724
1627.54	12834
1628.58	12784
1629.62	12862
1630.65	12642
1631.69	12752
1632.73	12600
1633.77	12568
1634.8	12664
1635.84	12644
1636.88	12442
1637.91	12608
1638.95	12500
1639.99	12536
1641.02	12512
1642.06	12520
1643.09	12468
1644.13	12336
1645.16	12392
1646.2	12362
1647.23	12364
1648.27	12520
1649.3	12540
1650.34	12290
1651.37	12364
1652.41	12346
1653.44	12352
1654.47	12366
1655.51	12396
1656.54	12314
1657.57	12178
1658.61	12302
1659.64	11988
1660.67	12120
1661.71	12186
1662.74	12102
1663.77	12116
1664.81	12152
1665.84	12010
1666.87	12096
1667.9	12000
1668.93	12064
1669.96	11984
1671	11898
1672.03	11898
1673.06	11872
1674.09	12024
1675.12	11820
1676.15	11896
1677.18	11862
1678.21	11932
1679.24	11760
1680.27	11702
1681.3	11808
1682.33	11694
1683.36	11752
1684.39	11786
1685.42	11652
1686.45	11700
1687.47	11752
1688.5	11736
1689.53	11678
1690.56	11696
1691.59	11512
1692.62	11632
1693.64	11508
1694.67	11690
1695.7	11636
1696.73	11582
1697.75	11544
1698.78	11568
1699.81	11592
1700.83	11438
1701.86	11414
1702.89	11460
1703.91	11468
1704.94	11398
1705.97	11444
1706.99	11410
1708.02	11470
1709.04	11388
1710.07	11496
1711.09	11430
1712.12	11390
1713.14	11286
1714.17	11348
1715.19	11354
1716.22	11342
1717.24	11168
1718.26	11188
1719.29	11176
1720.31	11240
1721.33	11062
1722.36	11262
1723.38	11336
1724.4	11188
1725.43	11088
1726.45	11228
1727.47	11132
1728.49	11072
1729.52	11218
1730.54	11252
1731.56	11260
1732.58	11150
1733.6	11200
1734.63	11150
1735.65	11240
1736.67	11164
1737.69	10998
1738.71	11114
1739.73	11220
1740.75	10886
1741.77	11022
1742.79	11114
1743.81	11172
1744.83	11040
1745.85	11274
1746.87	11060
1747.89	11122
1748.91	11048
1749.93	10936
1750.95	11166
1751.97	10986
1752.98	11058
1754	11040
1755.02	10910
1756.04	10998
1757.06	11034
1758.07	11052
1759.09	10886
1760.11	10882
1761.13	11036
1762.14	10946
1763.16	11026
1764.18	10976
1765.19	11012
1766.21	11056
1767.23	10916
1768.24	10850
1769.26	10942
1770.28	10824
1771.29	10958
1772.31	10912
1773.32	10862
1774.34	10890
1775.35	11012
1776.37	10916
1777.38	10846
1778.4	10988
1779.41	11012
1780.43	10908
1781.44	11002
1782.45	10924
1783.47	10870
1784.48	10916
1785.49	11008
1786.51	10866
1787.52	10992
1788.53	10852
1789.55	10916
1790.56	10830
1791.57	10974
1792.58	10880
1793.6	10910
1794.61	10872
1795.62	10900
1796.63	10812
1797.64	10860
1798.66	10940
1799.67	10868
1800.68	10928
1801.69	10762
1802.7	10810
1803.71	10792
1804.72	10884
1805.73	10784
1806.74	10756
1807.75	10746
1808.76	10818
1809.77	10844
1810.78	10722
1811.79	10778
1812.8	10846
1813.81	10768
1814.82	10786
1815.83	10742
1816.84	10842
1817.84	10774
1818.85	10832
1819.86	10578
1820.87	10714
1821.88	10840
1822.88	10698
1823.89	10756
1824.9	10800
1825.91	10606
1826.91	10698
1827.92	10740
1828.93	10708
1829.93	10692
1830.94	10662
1831.95	10756
1832.95	10608
1833.96	10692
1834.97	10702
1835.97	10540
1836.98	10630
1837.98	10462
1838.99	10444
1839.99	10670
1841	10534
1842	10506
1843.01	10564
1844.01	10598
1845.02	10538
1846.02	10546
1847.02	10516
1848.03	10564
1849.03	10518
1850.03	10598
1851.04	10450
1852.04	10502
1853.04	10638
1854.05	10616
1855.05	10574
1856.05	10438
1857.05	10444
1858.06	10424
1859.06	10516
1860.06	10402
1861.06	10376
1862.06	10502
1863.07	10550
1864.07	10570
1865.07	10296
1866.07	10504
1867.07	10458
1868.07	10434
1869.07	10454
1870.07	10444
1871.07	10358
1872.07	10474
1873.07	10434
1874.07	10310
1875.07	10506
1876.07	10438
1877.07	10280
1878.07	10460
1879.07	10484
1880.07	10424
1881.07	10452
1882.07	10514
1883.06	10354
1884.06	10322
1885.06	10422
1886.06	10464
1887.06	10430
1888.05	10326
1889.05	10340
1890.05	10398
1891.05	10360
1892.04	10456
1893.04	10402
1894.04	10436
1895.03	10456
1896.03	10410
1897.03	10368
1898.02	10390
1899.02	10366
1900.01	10354
1901.01	10346
1902	10262
1903	10338
1903.99	10542
1904.99	10378
1905.98	10446
1906.98	10486
1907.97	10472
1908.97	10370
1909.96	10400
1910.96	10318
1911.95	10236
1912.94	10474
1913.94	10350
1914.93	10296
1915.93	10422
1916.92	10390
1917.91	10454
1918.9	10260
1919.9	10412
1920.89	10236
1921.88	10380
1922.87	10304
1923.87	10414
1924.86	10336
1925.85	10338
1926.84	10416
1927.83	10392
1928.82	10340
1929.82	10354
1930.81	10370
1931.8	10306
1932.79	10354
1933.78	10222
1934.77	10356
1935.76	10370
1936.75	10246
1937.74	10270
1938.73	10268
1939.72	10410
1940.71	10350
1941.7	10304
1942.69	10260
1943.68	10202
1944.67	10254
1945.65	10296
1946.64	10206
1947.63	10166
1948.62	10190
1949.61	10226
1950.6	10146
1951.58	10344
1952.57	10314
1953.56	10284
1954.55	10170
1955.53	10124
1956.52	10246
1957.51	10162
1958.5	10290
1959.48	10208
1960.47	10108
1961.45	10026
1962.44	10144
1963.43	10182
1964.41	10148
1965.4	10152
1966.38	10210
1967.37	10086
1968.35	10152
1969.34	10148
1970.32	10144
1971.31	10174
1972.29	10230
1973.28	10220
1974.26	10064
1975.25	10114
1976.23	10256
1977.22	9966
1978.2	10114
1979.18	10146
1980.17	9978
1981.15	10080
1982.13	10010
1983.12	10028
1984.1	10094
1985.08	10012
1986.06	10162
1987.05	10154
1988.03	10080
1989.01	10052
1989.99	10092
1990.97	10140
1991.96	10036
1992.94	10048
1993.92	9968
1994.9	10028
1995.88	10116
1996.86	9970
1997.84	9838
1998.82	9922
1999.8	9942
2000.78	10022
2001.76	10060
2002.74	10076
2003.72	10002
2004.7	9964
2005.68	10074
2006.66	9992
2007.64	10060
2008.62	9956
2009.6	10006
2010.58	10016
2011.56	9922
2012.54	9904
2013.51	9936
2014.49	9908
2015.47	9934
2016.45	9942
2017.43	9988
2018.4	10022
2019.38	10032
2020.36	9990
2021.34	9954
2022.31	9900
2023.29	9970
2024.27	9886
2025.24	9908
2026.22	9884
2027.2	9900
2028.17	9899
2029.15	9898
2030.12	9952
2031.1	10008
2032.07	9830
2033.05	10054
2034.03	10036
2035	9938
2035.98	9928
2036.95	9902
2037.93	9906
2038.9	9932
2039.87	9832
2040.85	9888
2041.82	9798
2042.8	9948
2043.77	9884
2044.74	9892
2045.72	9966
2046.69	9678
2047.66	9834
2048.64	9858
2049.61	9796
2050.58	10066
2051.55	9840
2052.53	9794
2053.5	9810
2054.47	9860
2055.44	9832
2056.41	9742
2057.39	9864
2058.36	9718
2059.33	9924
2060.3	9852
2061.27	9942
2062.24	9834
2063.21	9866
2064.18	9810
2065.15	9816
2066.12	9870
2067.09	9806
2068.06	9884
2069.03	9864
2070	9866
2070.97	9792
2071.94	9720
2072.91	9828
2073.88	9810
2074.85	9714
2075.82	9778
2076.79	9766
2077.76	9792
2078.73	9700
2079.69	9808
2080.66	9784
2081.63	9820
2082.6	9726
2083.56	9784
2084.53	9812
2085.5	9638
2086.47	9768
2087.43	9784
2088.4	9792
2089.37	9728
2090.33	9794
2091.3	9734
2092.27	9836
2093.23	9792
2094.2	9758
2095.17	9686
2096.13	9680
2097.1	9892
2098.06	9808
2099.03	9674
2099.99	9748
2100.96	9710
2101.92	9696
2102.89	9758
2103.85	9624
2104.82	9624
2105.78	9750
2106.74	9666
2107.71	9744
2108.67	9726
2109.64	9616
2110.6	9480
2111.56	9692
2112.53	9692
2113.49	9654
2114.45	9710
2115.41	9670
2116.38	9790
2117.34	9720
2118.3	9676
2119.26	9702
2120.23	9684
2121.19	9636
2122.15	9712
2123.11	9654
2124.07	9570
2125.03	9658
2126	9610
2126.96	9582
2127.92	9666
2128.88	9528
2129.84	9700
2130.8	9548
2131.76	9624
2132.72	9666
2133.68	9584
2134.64	9622
2135.6	9682
2136.56	9540
2137.52	9610
2138.48	9602
2139.44	9568
2140.4	9594
2141.35	9554
2142.31	9618
2143.27	9520
2144.23	9514
2145.19	9552
2146.15	9634
2147.1	9572
2148.06	9510
2149.02	9526
2149.98	9538
2150.94	9510
2151.89	9542
2152.85	9612
2153.81	9478
2154.76	9552
2155.72	9404
2156.68	9504
2157.63	9458
2158.59	9452
2159.55	9508
2160.5	9550
2161.46	9458
2162.41	9510
2163.37	9482
2164.32	9408
2165.28	9490
2166.23	9420
2167.19	9506
2168.14	9494
2169.1	9334
2170.05	9458
2171.01	9490
2171.96	9334
2172.91	9414
2173.87	9522
2174.82	9408
2175.78	9386
2176.73	9320
2177.68	9326
2178.64	9396
2179.59	9416
2180.54	9438
2181.49	9384
2182.45	9376
2183.4	9354
2184.35	9314
2185.3	9238
2186.26	9320
2187.21	9190
2188.16	9216
2189.11	9266
2190.06	9198
2191.01	9342
2191.96	9300
2192.92	9238
2193.87	9252
2194.82	9376
2195.77	9104
2196.72	9228
2197.67	9256
2198.62	9192
2199.57	9250
2200.52	9314
2201.47	9162
2202.42	9248
2203.37	9048
2204.32	9090
2205.27	9268
2206.22	9108
2207.16	9172
2208.11	9250
2209.06	9106
2210.01	9124
2210.96	9186
2211.91	9190
2212.85	9162
2213.8	9162
2214.75	9042
2215.7	9156
2216.64	9224
2217.59	9274
2218.54	9132
2219.49	9182
2220.43	9066
2221.38	9008
2222.33	9190
2223.27	9199.96
2224.22	9189.08
2225.16	9118.51
2226.11	9130.15
2227.06	8996.9
2228	8979.97
2228.95	9009.37
2229.89	8962.93
2230.84	9057.98
2231.78	9031.11
2232.73	9105.92
2233.67	9035.38
2234.62	8920.97
2235.56	8904.88
2236.51	8893.63
2237.45	8953.02
2238.4	8974.72
2239.34	8929.71
2240.28	8970.1
2241.23	8839.1
2242.17	8922.44
2243.11	8899.57
2244.06	8812.14
2245	8846.3
2245.94	8908.4
2246.89	8791.86
2247.83	8866.32
2248.77	8813.22
2249.71	8939.73
2250.66	8811.65
2251.6	8734.89
2252.54	8800.02
2253.48	8722.94
2254.42	8780.01
2255.37	8741.37
2256.31	8763.3
2257.25	8765.66
2258.19	8707.62
2259.13	8693.77
2260.07	8659.88
2261.01	8684.39
2261.95	8591.9
2262.89	8696.09
2263.83	8617.48
2264.77	8587.5
2265.71	8647.05
2266.65	8617
2267.59	8616.39
2268.53	8620.62
2269.47	8583.46
2270.41	8590.23
2271.35	8592.83
2272.29	8585.58
2273.23	8550.39
2274.17	8515.93
2275.1	8501.6
2276.04	8432.91
2276.98	8464.52
2277.92	8508.25
2278.86	8460.42
2279.8	8450.5
2280.73	8397.06
2281.67	8342.77
2282.61	8378.49
2283.55	8411.36
2284.48	8350.65
2285.42	8339.39
2286.36	8291.81
2287.29	8328.3
2288.23	8333.64
2289.17	8285.75
2290.1	8263.44
2291.04	8252.95
2291.98	8247.7
2292.91	8175.3
2293.85	8168.83
2294.78	8099.8
2295.72	8071.73
2296.65	8138.09
2297.59	8140.82
2298.52	8117.37
2299.46	8123.13
2300.39	8096.42
2301.33	8045.69
2302.26	8027.23
2303.2	7986.72
2304.13	7963.2
2305.06	8000.41
2306	7994.13
2306.93	7993.08
2307.87	8006.13
2308.8	7999.9
2309.73	7972.76
2310.67	7939.29
2311.6	7946.11
2312.53	7919.95
2313.46	7906.13
2314.4	7902.47
2315.33	7859.44
2316.26	7865.5
2316.69	7890
2317.62	7852
2318.56	7864
2319.5	7810
2320.43	7834
2321.37	7872
2322.31	7734
2323.24	7856
2324.18	7644
2325.12	7842
2326.05	7800
2326.99	7808
2327.92	7758
2328.86	7786
2329.79	7750
2330.73	7708
2331.66	7710
2332.6	7662
2333.53	7800
2334.47	7618
2335.4	7734
2336.34	7766
2337.27	7614
2338.2	7602
2339.14	7656
2340.07	7658
2341.01	7702
2341.94	7540
2342.87	7730
2343.81	7594
2344.74	7642
2345.67	7644
2346.6	7638
2347.54	7614
2348.47	7694
2349.4	7606
2350.33	7578
2351.27	7604
2352.2	7464
2353.13	7464
2354.06	7546
2354.99	7542
2355.93	7548
2356.86	7674
2357.79	7588
2358.72	7560
2359.65	7472
2360.58	7540
2361.51	7552
2362.44	7562
2363.37	7510
2364.3	7498
2365.23	7500
2366.16	7576
2367.09	7528
2368.02	7432
2368.95	7486
2369.88	7448
2370.81	7406
2371.74	7418
2372.67	7432
2373.6	7352
2374.52	7366
2375.45	7460
2376.38	7450
2377.31	7354
2378.24	7424
2379.17	7370
2380.09	7340
2381.02	7394
2381.95	7324
2382.88	7334
2383.8	7370
2384.73	7172
2385.66	7290
2386.58	7264
2387.51	7286
2388.44	7354
2389.36	7200
2390.29	7314
2391.22	7222
2392.14	7122
2393.07	7186
2393.99	7228
2394.92	7150
2395.85	7128
2396.77	7152
2397.7	7166
2398.62	7140
2399.55	7092
2400.47	7108
2401.4	6990
2402.32	7130
2403.25	7138
2404.17	6994
2405.09	7044
2406.02	6900
2406.94	7074
2407.86	6970
2408.79	6912
2409.71	7048
2410.63	6950
2411.56	7018
2412.48	6964
2413.4	6968
2414.33	6920
2415.25	7002
2416.17	6916
2417.09	6900
2418.02	6954
2418.94	6898
2419.86	6922
2420.78	6862
2421.7	6834
2422.63	6754
2423.55	6848
2424.47	6786
2425.39	6746
2426.31	6896
2427.23	6766
2428.15	6806
2429.07	6828
2429.99	6648
2430.91	6700
2431.83	6698
2432.75	6658
2433.67	6706
2434.59	6638
2435.51	6716
2436.43	6576
2437.35	6662
2438.27	6644
2439.19	6636
2440.11	6586
2441.03	6626
2441.95	6608
2442.86	6574
2443.78	6578
2444.7	6618
2445.62	6516
2446.54	6572
2447.46	6478
2448.37	6498
2449.29	6532
2450.21	6566
2451.13	6502
2452.04	6520
2452.96	6466
2453.88	6420
2454.79	6374
2455.71	6412
2456.63	6384
2457.54	6394
2458.46	6450
2459.38	6428
2460.29	6308
2461.21	6358
2462.12	6398
2463.04	6280
2463.95	6252
2464.87	6298
2465.78	6328
2466.7	6266
2467.61	6312
2468.53	6310
2469.44	6294
2470.36	6310
2471.27	6160
2472.19	6160
2473.1	6306
2474.01	6140
2474.93	6274
2475.84	6184
2476.76	6088
2477.67	6192
2478.58	6144
2479.5	6156
2480.41	6204
2481.32	6104
2482.23	5996
2483.15	6046
2484.06	5978
2484.97	6080
2485.88	5964
2486.8	6056
2487.71	5916
2488.62	5974
2489.53	5942
2490.44	5994
2491.35	5884
2492.26	5992
2493.18	6014
2494.09	5842
2495	5834
2495.91	5810
2496.82	5800
2497.73	5786
2498.64	5832
2499.55	5776
2500.46	5802
2501.37	5836
2502.28	5832
2503.19	5792
2504.1	5720
2505.01	5800
2505.92	5810
2506.83	5806
2507.74	5642
2508.65	5654
2509.55	5712
2510.46	5672
2511.37	5690
2512.28	5660
2513.19	5618
2514.09	5576
2515	5546
2515.91	5688
2516.82	5526
2517.73	5592
2518.63	5570
2519.54	5464
2520.45	5540
2521.35	5544
2522.26	5552
2523.17	5572
2524.07	5504
2524.98	5522
2525.89	5522
2526.79	5454
2527.7	5432
2528.6	5488
2529.51	5414
2530.42	5350
2531.32	5410
2532.23	5436
2533.13	5280
2534.04	5326
2534.94	5338
2535.85	5334
2536.75	5250
2537.66	5322
2538.56	5310
2539.47	5284
2540.37	5240
2541.27	5242
2542.18	5222
2543.08	5316
2543.98	5298
2544.89	5150
2545.79	5266
2546.7	5206
2547.6	5274
2548.5	5200
2549.4	5082
2550.31	5090
2551.21	5258
2552.11	5198
2553.01	5032
2553.92	5146
2554.82	5132
2555.72	5146
2556.62	5082
2557.52	5072
2558.42	5064
2559.33	5046
2560.23	5044
2561.13	4924
2562.03	4988
2562.93	4982
2563.83	5068
2564.73	4926
2565.63	4994
2566.53	4954
2567.43	4930
2568.33	4960
2569.23	4928
2570.13	4876
2571.03	4968
2571.93	4870
2572.83	4910
2573.73	4836
2574.63	4916
2575.53	4948
2576.43	4818
2577.33	4848
2578.22	4902
2579.12	4766
2580.02	4740
2580.92	4802
2581.82	4754
2582.72	4774
2583.61	4716
2584.51	4782
2585.41	4822
2586.31	4782
2587.2	4674
2588.1	4686
2589	4666
2589.89	4626
2590.79	4670
2591.69	4604
2592.58	4658
2593.48	4506
2594.38	4586
2595.27	4596
2596.17	4572
2597.06	4640
2597.96	4522
2598.86	4582
2599.75	4552
2600.65	4530
2601.54	4626
2602.44	4562
2603.33	4456
2604.23	4518
2605.12	4480
2606.02	4424
2606.91	4446
2607.81	4372
2608.7	4468
2609.59	4464
2610.49	4432
2611.38	4454
2612.27	4392
2613.17	4364
2614.06	4362
2614.95	4380
2615.85	4408
2616.74	4374
2617.63	4338
2618.53	4402
2619.42	4266
2620.31	4314
2621.2	4362
2622.1	4292
2622.99	4334
2623.88	4320
2624.77	4272
2625.66	4262
2626.55	4340
2627.45	4282
2628.34	4214
2629.23	4226
2630.12	4138
2631.01	4242
2631.9	4222
2632.79	4220
2633.68	4152
2634.57	4198
2635.46	4142
2636.35	4068
2637.24	4106
2638.13	4100
2639.02	4124
2639.91	4080
2640.8	4092
2641.69	4028
2642.58	4112
2643.47	4064
2644.36	4030
2645.25	4026
2646.14	4036
2647.02	4000
2647.91	4020
2648.8	3918
2649.69	3968
2650.58	3972
2651.46	3974
2652.35	3912
2653.24	3902
2654.13	3916
2655.01	4052
2655.9	3982
2656.79	3912
2657.68	3884
2658.56	3926
2659.45	3922
2660.34	3894
2661.22	3888
2662.11	3836
2662.99	3974
2663.88	3814
2664.77	3782
2665.65	3848
2666.54	3802
2667.42	3894
2668.31	3856
2669.2	3744
2670.08	3852
2670.96	3694
2671.85	3822
2672.73	3742
2673.62	3786
2674.5	3744
2675.39	3736
2676.27	3770
2677.16	3788
2678.04	3796
2678.93	3764
2679.81	3704
2680.69	3712
2681.58	3732
2682.46	3730
2683.34	3714
2684.23	3654
2685.11	3646
2685.99	3560
2686.87	3656
2687.76	3626
2688.64	3582
2689.52	3702
2690.4	3586
2691.28	3578
2692.17	3596
2693.05	3620
2693.93	3608
2694.81	3582
2695.69	3640
2696.57	3538
2697.46	3546
2698.34	3476
2699.22	3472
2700.1	3480
2700.98	3528
2701.86	3452
2702.74	3466
2703.62	3558
2704.5	3438
2705.38	3382
2706.26	3416
2707.14	3430
2708.02	3322
2708.9	3424
2709.78	3450
2710.66	3436
2711.54	3300
2712.42	3342
2713.3	3386
2714.17	3368
2715.05	3350
2715.93	3294
2716.81	3330
2717.69	3312
2718.57	3348
2719.44	3316
2720.32	3282
2721.2	3364
2722.08	3258
2722.95	3256
2723.83	3218
2724.71	3242
2725.59	3258
2726.46	3236
2727.34	3202
2728.22	3176
2729.09	3236
2729.97	3218
2730.85	3102
2731.72	3212
2732.6	3190
2733.47	3158
2734.35	3046
2735.23	3058
2736.1	3136
2736.98	3164
2737.85	3148
2738.73	3042
2739.6	3070
2740.48	3106
2741.35	3056
2742.23	3050
2743.1	3050
2743.98	3010
2744.85	3032
2745.72	2968
2746.6	2960
2747.47	2956
2748.35	3042
2749.22	2974
2750.09	2932
2750.97	2968
2751.84	2960
2752.71	2936
2753.59	2938
2754.46	2906
2755.33	2954
2756.2	2906
2757.08	2914
2757.95	2926
2758.82	2858
2759.69	2874
2760.57	2912
2761.44	2850
2762.31	2870
2763.18	2856
2764.05	2814
2764.92	2870
2765.79	2796
2766.67	2814
2767.54	2860
2768.41	2864
2769.28	2796
2770.15	2808
2771.02	2718
2771.89	2718
2772.76	2768
2773.63	2782
2774.5	2758
2775.37	2714
2776.24	2740
2777.11	2752
2777.98	2732
2778.85	2700
2779.72	2692
2780.59	2722
2781.46	2626
2782.32	2648
2783.19	2746
2784.06	2660
2784.93	2624
2785.8	2644
2786.67	2630
2787.53	2598
2788.4	2572
2789.27	2580
2790.14	2586
2791.01	2616
2791.87	2604
2792.74	2660
2793.61	2572
2794.47	2618
2795.34	2578
2796.21	2612
2797.07	2558
2797.94	2548
2798.81	2530
2799.67	2524
2800.54	2536
2801.41	2492
2802.27	2526
2803.14	2514
2804	2460
2804.87	2504
2805.74	2480
2806.6	2434
2807.47	2424
2808.33	2434
2809.2	2432
2810.06	2414
2810.93	2426
2811.79	2384
2812.65	2422
2813.52	2424
2814.38	2420
2815.25	2372
2816.11	2412
2816.98	2420
2817.84	2322
2818.7	2378
2819.56	2324
2820.43	2388
2821.29	2338
2822.16	2362
2823.02	2322
2823.88	2348
2824.74	2368
2825.61	2298
2826.47	2280
2827.33	2282
2828.19	2320
2829.05	2244
2829.92	2294
2830.78	2288
2831.64	2250
2832.5	2256
2833.36	2164
2834.23	2272
2835.09	2280
2835.95	2186
2836.81	2216
2837.67	2148
2838.53	2234
2839.39	2202
2840.25	2180
2841.11	2158
2841.97	2206
2842.83	2104
2843.69	2156
2844.55	2152
2845.41	2208
2846.27	2200
2847.13	2112
2847.99	2114
2848.85	2130
2849.71	2160
2850.57	2104
2851.43	2114
2852.28	2100
2853.14	2052
2854	2044
2854.86	2026
2855.72	2054
2856.58	2054
2857.43	2044
2858.29	2058
2859.15	2116
2860.01	2038
2860.86	2052
2861.72	2024
2862.58	2004
2863.44	1992
2864.29	2006
2865.15	1976
2866.01	1980
2866.86	1984
2867.72	1970
2868.58	1958
2869.43	1974
2870.29	1954
2871.14	1914
2872	1862
2872.86	1960
2873.71	1936
2874.57	1912
2875.42	1880
2876.28	1902
2877.13	1924
2877.99	1912
2878.84	1878
2879.7	1916
2880.55	1922
2881.41	1898
2882.26	1894
2883.11	1888
2883.97	1872
2884.82	1862
2885.68	1804
2886.53	1848
2887.39	1828
2888.24	1878
2889.09	1832
2889.94	1862
2890.8	1818
2891.65	1760
2892.5	1838
2893.36	1778
2894.21	1804
2895.06	1816
2895.91	1776
2896.77	1816
2897.62	1808
2898.47	1720
2899.32	1786
2900.17	1772
2901.03	1820
2901.88	1762
2902.73	1734
2903.58	1730
2904.43	1724
2905.28	1732
2906.13	1742
2906.98	1738
2907.84	1718
2908.69	1708
2909.54	1702
2910.39	1712
2911.24	1706
2912.09	1720
2912.94	1694
2913.79	1742
2914.64	1714
2915.49	1720
2916.34	1696
2917.19	1666
2918.03	1674
2918.88	1684
2919.73	1630
2920.58	1674
2921.43	1700
2922.28	1670
2923.13	1670
2923.98	1678
2924.82	1618
2925.67	1610
2926.52	1602
2927.37	1666
2928.22	1624
2929.06	1638
2929.91	1650
2930.76	1630
2931.61	1658
2932.45	1638
2933.3	1616
2934.15	1614
2934.99	1620
2935.84	1592
2936.69	1560
2937.53	1578
2938.38	1582
2939.23	1636
2940.07	1542
2940.92	1540
2941.76	1624
2942.61	1554
2943.46	1518
2944.3	1540
2945.15	1588
2945.99	1526
2946.84	1576
2947.68	1556
2948.53	1514
2949.37	1516
2950.22	1552
2951.06	1556
2951.9	1590
2952.75	1522
2953.59	1530
2954.44	1540
2955.28	1524
2956.12	1480
2956.97	1494
2957.81	1524
2958.65	1482
2959.5	1484
2960.34	1464
2961.18	1496
2962.03	1492
2962.87	1452
2963.71	1458
2964.56	1498
2965.4	1482
2966.24	1472
2967.08	1456
2967.92	1446
2968.77	1448
2969.61	1452
2970.45	1444
2971.29	1428
2972.13	1462
2972.97	1442
2973.82	1430
2974.66	1402
2975.5	1414
2976.34	1454
2977.18	1424
2978.02	1432
2978.86	1420
2979.7	1422
2980.54	1406
2981.38	1430
2982.22	1394
2983.06	1370
2983.9	1368
2984.74	1382
2985.58	1354
2986.42	1338
2987.26	1374
2988.1	1366
2988.94	1334
2989.78	1404
2990.61	1384
2991.45	1312
2992.29	1344
2993.13	1342
2993.97	1332
2994.81	1350
2995.64	1348
2996.48	1348
2997.32	1326
2998.16	1334
2999	1356
2999.83	1328
