#Acq. time (s)=	10
#Accumulations=	1
#Range (cm-¹)=	200...3000
#Windows=	3
#Autofocus=	Off
#AutoExposure=	Off
#Spike filter=	Off
#Delay time (s)=	0
#Binning=	1
#Readout mode=	Signal
#DeNoise=	Off
#ICS correction=	Off
#Dark correction=	Off
#Inst. Process=	Off
#Instrument=	LabRAM HR Evol
#Detector=	Syncerity OE
#Objective=	x100_VIS
#Grating=	600 (500nm)
#ND Filter=	0.01%
#Laser=	633nm_Edge
#Hole=	30.0125
#Range=	Visible
#Project=	Omar
#Sample=	03-07-23
#Site=	nop
#Title=	inside_prf
#Remark=	
#Date=	03.07.2023 14:42
#Acquired=	03.07.2023 14:42:01
201.713	32
202.98	28
204.247	36
205.513	34
206.778	28
208.045	38
209.311	24
210.576	28
211.84	34
213.106	34
214.371	30
215.636	38
216.899	34
218.164	24
219.428	38
220.692	32
221.955	24
223.219	28
224.482	36
225.744	26
227.007	32
228.27	30
229.531	38
230.794	26
232.055	32
233.317	28
234.579	28
235.839	40
237.1	30
238.362	32
239.621	34
240.882	32
242.141	38
243.402	34
244.661	30
245.921	28
247.179	28
248.439	32
249.698	40
250.956	32
252.215	28
253.473	30
254.731	24
255.988	30
257.246	26
258.503	34
259.761	40
261.017	32
262.273	38
263.53	32
264.786	30
266.042	32
267.298	28
268.554	34
269.809	36
271.063	34
272.319	32
273.573	30
274.828	36
276.082	34
277.336	34
278.591	22
279.844	40
281.097	34
282.351	36
283.603	28
284.855	38
286.109	34
287.361	34
288.613	34
289.866	36
291.117	26
292.368	34
293.62	34
294.871	38
296.121	28
297.372	38
298.623	42
299.873	30
301.123	32
302.372	30
303.622	36
304.872	32
306.121	36
307.37	28
308.618	42
309.866	32
311.116	32
312.364	44
313.611	34
314.859	32
316.106	36
317.353	28
318.6	34
319.848	28
321.095	36
322.341	30
323.587	38
324.833	36
326.079	38
327.324	32
328.569	28
329.814	42
331.059	28
332.304	42
333.548	38
334.792	30
336.037	38
337.28	38
338.524	34
339.767	36
341.011	36
342.254	38
343.497	34
344.739	34
345.982	34
347.224	32
348.466	34
349.708	38
350.95	40
352.191	30
353.432	36
354.673	38
355.914	34
357.155	34
358.394	36
359.634	44
360.874	36
362.114	34
363.354	32
364.593	38
365.832	28
367.07	34
368.309	36
369.548	36
370.786	34
372.024	34
373.261	34
374.499	38
375.736	30
376.974	42
378.211	40
379.447	32
380.684	38
381.92	38
383.157	40
384.392	38
385.628	42
386.864	34
388.098	32
389.333	40
390.569	38
391.802	44
393.037	36
394.272	32
395.505	40
396.739	28
397.973	28
399.206	40
400.44	42
401.673	44
402.905	34
404.138	44
405.37	30
406.602	32
407.835	36
409.066	40
410.298	40
411.528	34
412.76	30
413.99	36
415.221	34
416.451	36
417.682	42
418.911	42
420.142	36
421.371	34
422.601	38
423.83	34
425.059	36
426.288	42
427.517	40
428.745	38
429.974	26
431.201	40
432.43	32
433.657	40
434.883	40
436.111	40
437.338	38
438.565	36
439.791	34
441.017	46
442.244	42
443.469	40
444.695	38
445.921	38
447.146	38
448.37	44
449.596	34
450.821	36
452.045	42
453.27	52
454.493	42
455.717	38
456.94	40
458.165	40
459.387	48
460.61	36
461.833	42
463.056	36
464.278	48
465.5	42
466.722	44
467.945	42
469.166	36
470.387	40
471.608	36
472.829	40
474.049	42
475.271	46
476.491	38
477.711	44
478.931	38
480.15	40
481.37	42
482.589	38
483.808	40
485.027	46
486.247	42
487.465	38
488.683	44
489.901	44
491.119	40
492.337	44
493.554	38
494.771	40
495.988	52
497.205	42
498.422	38
499.638	44
500.854	38
502.07	40
503.286	46
504.502	40
505.717	48
506.933	46
508.148	32
509.363	46
510.577	46
511.792	44
513.005	42
514.219	50
515.433	52
516.647	46
517.86	42
519.073	46
520.287	44
521.5	38
522.711	40
523.924	48
525.136	38
526.348	40
527.56	52
528.772	50
529.982	46
531.194	46
532.405	38
533.616	48
534.825	38
536.036	42
537.246	48
538.457	46
539.665	44
540.875	40
542.085	42
543.294	50
544.502	46
545.712	48
546.92	44
548.128	44
549.336	44
550.545	46
551.751	40
552.959	54
554.167	38
555.373	46
556.581	36
557.788	50
558.994	48
560.2	46
561.406	48
562.612	48
563.817	44
565.023	40
566.229	52
567.433	50
568.639	42
569.843	48
571.048	50
572.251	40
573.456	44
574.659	38
575.863	56
577.066	50
578.27	52
579.472	46
580.676	42
581.878	48
583.081	42
584.283	40
585.484	42
586.687	50
587.888	56
589.09	52
590.291	54
591.493	50
592.693	56
593.893	46
595.094	56
596.294	54
597.494	50
598.694	52
599.894	52
601.093	54
602.293	48
603.491	52
604.69	56
605.889	50
607.087	52
608.285	52
609.483	56
610.682	56
611.879	54
613.076	56
614.273	56
615.471	54
616.667	50
617.864	52
619.06	54
620.256	58
621.453	56
622.648	46
623.844	58
625.039	58
626.234	54
627.429	58
628.625	60
629.819	54
631.013	50
632.208	54
633.401	52
634.595	52
635.789	68
636.982	44
638.175	58
639.369	64
640.562	56
641.755	60
642.947	56
644.139	68
645.331	66
646.523	62
647.715	58
648.906	56
650.097	64
651.288	58
652.479	54
653.67	60
654.86	64
656.051	62
657.241	60
658.429	56
659.619	60
660.808	58
661.998	64
663.187	62
664.376	58
665.565	56
666.753	60
667.942	66
669.13	66
670.317	56
671.505	72
672.692	68
673.88	60
675.067	72
676.254	56
677.44	66
678.627	62
679.813	60
681	62
682.184	64
683.37	62
684.556	66
685.742	66
686.926	72
688.111	70
689.296	60
690.481	62
691.664	70
692.849	58
694.033	64
695.216	58
696.4	66
697.584	66
698.766	66
699.949	60
701.133	68
702.314	64
703.497	80
704.678	66
705.861	64
707.043	78
708.224	72
709.406	68
710.586	62
711.768	74
712.949	72
714.129	70
715.31	76
716.489	74
717.67	68
718.849	78
720.029	72
721.208	72
722.388	76
723.566	84
724.746	68
725.924	82
727.103	76
728.28	64
729.458	86
730.636	88
731.814	74
732.992	84
734.168	64
735.345	78
736.523	70
737.699	88
738.876	68
740.052	80
741.227	86
742.404	84
743.579	62
744.754	78
745.931	84
747.105	86
748.28	68
749.455	80
750.629	78
751.803	76
752.977	82
754.152	86
755.325	84
756.499	90
757.672	78
758.846	86
760.018	82
761.191	90
762.363	98
763.535	70
764.708	94
765.88	92
767.052	94
768.223	82
769.394	98
770.565	90
771.737	92
772.908	96
774.078	106
775.249	90
776.419	92
777.589	88
778.758	92
779.928	90
781.097	92
782.266	88
783.435	102
784.604	98
785.773	102
786.941	80
788.11	90
789.278	96
790.446	94
791.613	100
792.781	96
793.948	96
795.115	100
796.282	96
797.449	104
798.616	102
799.782	102
800.948	102
802.115	110
803.28	100
804.446	102
805.612	96
806.777	110
807.941	104
809.106	106
810.271	116
811.435	112
812.6	98
813.764	110
814.927	96
816.091	108
817.254	100
818.418	120
819.581	108
820.743	114
821.906	98
823.069	114
824.232	124
825.393	118
826.555	100
827.717	112
828.879	124
830.039	124
831.201	118
832.362	114
833.522	114
834.683	120
835.844	116
837.003	130
838.164	116
839.324	120
840.483	124
841.643	132
842.801	124
843.961	122
845.12	112
846.278	120
847.437	122
848.594	124
849.753	138
850.91	122
852.069	128
853.227	124
854.383	134
855.541	138
856.697	126
857.855	134
859.011	128
860.168	114
861.323	134
862.48	140
863.635	142
864.79	146
865.946	140
867.101	130
868.257	134
869.411	142
870.567	140
871.721	138
872.874	140
874.029	150
875.183	148
876.336	136
877.49	144
878.643	146
879.796	156
880.95	152
882.102	152
883.254	134
884.407	168
885.559	150
886.711	144
887.862	156
889.015	148
890.166	150
891.317	166
892.467	158
893.619	150
894.77	148
895.92	158
897.07	156
898.221	160
899.371	154
900.52	150
901.669	176
902.819	154
903.968	174
905.116	162
906.266	150
907.415	166
908.563	146
909.711	174
910.859	164
912.007	182
913.154	162
914.301	170
915.449	174
916.596	170
917.742	186
918.889	160
920.036	176
921.183	170
922.329	178
923.475	178
924.621	174
925.765	162
926.911	186
928.056	162
929.201	178
930.346	198
931.49	180
932.635	194
933.779	182
934.924	178
936.068	174
937.211	174
938.355	190
939.498	196
940.64	192
941.784	184
942.926	192
944.069	200
945.212	206
946.354	176
947.495	196
948.637	182
949.779	196
950.921	176
952.062	210
953.202	208
954.344	194
955.484	204
956.625	206
957.765	204
958.905	208
960.045	200
961.184	210
962.324	212
963.464	222
964.604	202
965.742	214
966.881	220
968.02	208
969.158	218
970.296	204
971.434	224
972.572	212
973.71	218
974.847	222
975.985	220
977.121	214
978.259	216
979.396	224
980.532	212
981.669	242
982.804	216
983.941	240
985.076	240
986.212	224
987.347	238
988.483	240
989.617	238
990.753	216
991.887	240
993.022	236
994.156	232
995.29	254
996.424	246
997.558	226
998.692	244
999.825	232
1000.96	264
1002.09	240
1003.22	242
1004.36	262
1005.49	234
1006.62	254
1007.75	242
1008.89	240
1010.02	276
1011.15	252
1012.28	272
1013.41	262
1014.54	260
1015.67	258
1016.8	272
1017.93	268
1019.07	278
1020.19	296
1021.32	290
1022.45	272
1023.58	262
1024.71	272
1025.84	274
1026.97	286
1028.1	278
1029.23	282
1030.36	282
1031.49	280
1032.61	294
1033.74	292
1034.87	280
1036	288
1037.12	294
1038.25	272
1039.38	286
1040.5	294
1041.63	296
1042.76	296
1043.88	308
1045.01	284
1046.14	292
1047.26	280
1048.39	322
1049.51	304
1050.64	318
1051.76	288
1052.89	314
1054.01	300
1055.14	310
1056.26	310
1057.38	332
1058.51	316
1059.63	310
1060.75	304
1061.88	310
1063	316
1064.12	330
1065.25	334
1066.37	342
1067.49	326
1068.61	318
1069.73	348
1070.86	336
1071.98	318
1073.1	322
1074.22	322
1075.34	336
1076.46	350
1077.58	342
1078.7	332
1079.82	352
1080.94	358
1082.06	326
1083.18	354
1084.3	336
1085.42	322
1086.54	336
1087.66	344
1088.78	356
1089.9	346
1091.02	346
1092.14	362
1093.25	374
1094.37	358
1095.49	350
1096.61	354
1097.72	348
1098.84	360
1099.96	358
1101.08	372
1102.19	346
1103.31	354
1104.43	358
1105.54	372
1106.66	360
1107.77	366
1108.89	344
1110	356
1111.12	396
1112.23	364
1113.35	356
1114.46	360
1115.58	352
1116.69	374
1117.81	352
1118.92	362
1120.03	374
1121.15	378
1122.26	368
1123.37	362
1124.49	392
1125.6	360
1126.71	390
1127.83	368
1128.94	406
1130.05	366
1131.16	388
1132.27	404
1133.39	382
1134.5	394
1135.61	414
1136.72	390
1137.83	374
1138.94	388
1140.05	406
1141.16	378
1142.27	398
1143.38	390
1144.49	384
1145.6	368
1146.71	402
1147.82	432
1148.93	388
1150.04	440
1151.15	384
1152.26	378
1153.36	382
1154.47	380
1155.58	430
1156.69	412
1157.8	428
1158.9	422
1160.01	400
1161.12	396
1162.22	418
1163.33	400
1164.44	404
1165.54	430
1166.65	416
1167.76	400
1168.86	398
1169.97	414
1171.07	428
1172.18	412
1173.28	394
1174.39	406
1175.49	420
1176.6	406
1177.7	398
1178.81	414
1179.91	406
1181.02	410
1182.12	410
1183.22	404
1184.33	400
1185.43	378
1186.53	408
1187.63	402
1188.74	398
1189.84	408
1190.94	428
1192.04	394
1193.15	368
1194.25	402
1195.35	390
1196.45	410
1197.55	386
1198.65	412
1199.75	398
1200.85	406
1201.95	406
1203.05	392
1204.16	402
1205.25	376
1206.35	408
1207.45	394
1208.55	390
1209.65	374
1210.75	386
1211.85	354
1212.95	394
1214.05	386
1215.15	384
1216.24	402
1217.34	360
1218.44	374
1219.54	410
1220.64	386
1221.73	370
1222.83	384
1223.93	384
1225.02	386
1226.12	362
1227.22	388
1228.31	372
1229.41	364
1230.5	366
1231.6	370
1232.7	372
1233.79	378
1234.89	384
1235.98	358
1237.08	356
1238.17	352
1239.26	372
1240.36	380
1241.45	364
1242.55	380
1243.64	372
1244.73	340
1245.83	336
1246.92	344
1248.01	346
1249.11	366
1250.2	356
1251.29	346
1252.38	354
1253.48	348
1254.57	346
1255.66	338
1256.75	354
1257.84	354
1258.93	376
1260.03	338
1261.12	332
1262.21	334
1263.3	342
1264.39	348
1265.48	332
1266.57	354
1267.66	346
1268.75	324
1269.84	340
1270.93	340
1272.02	346
1273.11	322
1274.19	346
1275.28	336
1276.37	342
1277.46	312
1278.55	324
1279.64	326
1280.72	318
1281.81	294
1282.9	326
1283.98	320.219
1285.07	312.511
1286.16	317.017
1287.25	327.647
1288.33	322.131
1289.42	313.005
1290.5	314.019
1291.59	312.326
1292.68	304.721
1293.76	306.522
1294.85	312.742
1295.93	296.168
1297.02	303.94
1298.1	303.278
1299.19	308.679
1300.27	300.948
1301.36	288.75
1302.44	280.111
1303.53	313.699
1304.61	298.427
1305.69	316.796
1306.78	309.58
1307.86	302.031
1308.94	303.405
1310.03	288.285
1311.11	308.639
1312.19	296.212
1313.27	295.621
1314.36	275.156
1315.44	299.188
1316.52	289.21
1317.6	279.667
1318.68	300.322
1319.77	288.849
1320.85	297.729
1321.93	282.876
1323.01	289.738
1324.09	296.095
1325.17	275.415
1326.25	288.881
1327.33	266.605
1328.41	274.536
1329.49	265.196
1330.57	296.771
1331.65	275.682
1332.73	280.614
1333.81	276.891
1334.89	278.87
1335.97	280.89
1337.04	253.796
1338.12	275.786
1339.2	286.438
1340.28	277.141
1341.36	276.029
1342.44	274.523
1343.51	267.831
1344.59	271.032
1345.67	269.534
1346.75	273.633
1347.82	278.262
1348.9	260.337
1349.98	261.732
1351.05	284.292
1352.13	258.147
1353.2	261.035
1354.28	258.506
1355.36	255.633
1356.43	258.865
1357.51	264.522
1358.58	269.126
1359.66	260.979
1360.73	257.799
1361.81	244.75
1362.88	259.822
1363.96	255.228
1365.03	244.725
1366.1	247.064
1367.18	254.38
1368.25	243.126
1369.33	245.147
1370.4	252.896
1371.47	248.476
1372.54	252.277
1373.62	234.297
1374.69	241.262
1375.76	239.274
1376.83	251.721
1377.91	246.635
1378.98	253.716
1380.05	252.839
1381.12	242.844
1382.19	252.309
1383.26	238.824
1384.34	250.335
1385.41	252.171
1386.48	247.814
1387.55	247.412
1388.62	246.864
1389.69	246.971
1390.76	242.046
1391.83	229.15
1392.9	247.222
1393.02	250
1394.1	250
1395.17	234
1396.25	234
1397.32	258
1398.4	222
1399.47	242
1400.55	242
1401.62	222
1402.69	220
1403.77	226
1404.84	230
1405.91	240
1406.99	238
1408.06	214
1409.13	222
1410.2	224
1411.27	220
1412.35	210
1413.42	232
1414.49	216
1415.56	214
1416.63	238
1417.7	206
1418.78	228
1419.85	220
1420.92	208
1421.99	214
1423.06	214
1424.13	222
1425.2	216
1426.27	212
1427.34	190
1428.41	202
1429.48	198
1430.55	218
1431.61	216
1432.68	208
1433.75	222
1434.82	214
1435.89	204
1436.96	200
1438.02	198
1439.09	210
1440.16	198
1441.23	208
1442.3	216
1443.36	202
1444.43	196
1445.5	218
1446.56	192
1447.63	204
1448.7	190
1449.76	200
1450.83	196
1451.89	200
1452.96	192
1454.02	206
1455.09	212
1456.15	206
1457.22	182
1458.28	190
1459.35	188
1460.41	194
1461.48	194
1462.54	196
1463.61	196
1464.67	196
1465.73	200
1466.8	192
1467.86	182
1468.92	202
1469.98	206
1471.05	172
1472.11	194
1473.17	184
1474.24	168
1475.3	180
1476.36	178
1477.42	190
1478.48	178
1479.54	174
1480.6	192
1481.67	172
1482.73	184
1483.79	184
1484.85	192
1485.91	192
1486.97	188
1488.03	170
1489.09	174
1490.15	188
1491.21	178
1492.27	186
1493.33	178
1494.38	182
1495.44	184
1496.5	172
1497.56	164
1498.62	176
1499.68	182
1500.74	188
1501.79	176
1502.85	176
1503.91	184
1504.97	180
1506.02	180
1507.08	168
1508.14	190
1509.2	160
1510.25	176
1511.31	172
1512.36	188
1513.42	164
1514.48	174
1515.53	166
1516.59	174
1517.64	170
1518.7	174
1519.75	162
1520.81	168
1521.86	166
1522.92	160
1523.97	170
1525.02	166
1526.08	154
1527.13	166
1528.19	168
1529.24	168
1530.29	164
1531.35	158
1532.4	170
1533.45	166
1534.51	160
1535.56	150
1536.61	162
1537.66	164
1538.72	150
1539.77	166
1540.82	162
1541.87	166
1542.92	154
1543.97	162
1545.02	164
1546.08	152
1547.13	160
1548.18	154
1549.23	168
1550.28	164
1551.33	168
1552.38	170
1553.43	160
1554.48	164
1555.53	160
1556.57	168
1557.62	152
1558.67	164
1559.72	152
1560.77	142
1561.82	134
1562.87	164
1563.92	144
1564.96	158
1566.01	130
1567.06	160
1568.11	158
1569.15	148
1570.2	140
1571.25	142
1572.29	146
1573.34	146
1574.39	158
1575.43	152
1576.48	146
1577.53	160
1578.57	150
1579.62	150
1580.66	144
1581.71	148
1582.75	142
1583.8	162
1584.84	152
1585.89	146
1586.93	128
1587.98	150
1589.02	150
1590.06	140
1591.11	146
1592.15	148
1593.2	146
1594.24	146
1595.28	144
1596.33	150
1597.37	152
1598.41	144
1599.45	148
1600.5	152
1601.54	136
1602.58	134
1603.62	140
1604.66	152
1605.7	136
1606.75	144
1607.79	128
1608.83	146
1609.87	140
1610.91	144
1611.95	132
1612.99	126
1614.03	158
1615.07	146
1616.11	160
1617.15	152
1618.19	164
1619.23	144
1620.27	148
1621.31	142
1622.35	140
1623.39	158
1624.43	150
1625.46	146
1626.5	148
1627.54	140
1628.58	142
1629.62	144
1630.65	160
1631.69	148
1632.73	142
1633.77	146
1634.8	134
1635.84	150
1636.88	148
1637.91	142
1638.95	150
1639.99	140
1641.02	134
1642.06	138
1643.09	138
1644.13	146
1645.16	128
1646.2	140
1647.23	156
1648.27	134
1649.3	132
1650.34	126
1651.37	136
1652.41	144
1653.44	134
1654.47	146
1655.51	134
1656.54	146
1657.57	148
1658.61	138
1659.64	142
1660.67	148
1661.71	152
1662.74	148
1663.77	142
1664.81	150
1665.84	136
1666.87	144
1667.9	148
1668.93	122
1669.96	140
1671	136
1672.03	142
1673.06	138
1674.09	118
1675.12	132
1676.15	136
1677.18	134
1678.21	138
1679.24	134
1680.27	142
1681.3	130
1682.33	130
1683.36	142
1684.39	134
1685.42	138
1686.45	122
1687.47	132
1688.5	116
1689.53	130
1690.56	134
1691.59	120
1692.62	130
1693.64	140
1694.67	136
1695.7	146
1696.73	136
1697.75	136
1698.78	128
1699.81	126
1700.83	148
1701.86	132
1702.89	132
1703.91	138
1704.94	136
1705.97	120
1706.99	116
1708.02	136
1709.04	128
1710.07	142
1711.09	114
1712.12	144
1713.14	142
1714.17	136
1715.19	120
1716.22	120
1717.24	122
1718.26	140
1719.29	126
1720.31	118
1721.33	126
1722.36	140
1723.38	118
1724.4	126
1725.43	144
1726.45	136
1727.47	126
1728.49	138
1729.52	120
1730.54	120
1731.56	136
1732.58	126
1733.6	132
1734.63	124
1735.65	140
1736.67	130
1737.69	136
1738.71	122
1739.73	144
1740.75	128
1741.77	128
1742.79	138
1743.81	132
1744.83	130
1745.85	130
1746.87	124
1747.89	138
1748.91	130
1749.93	116
1750.95	130
1751.97	132
1752.98	128
1754	128
1755.02	134
1756.04	130
1757.06	110
1758.07	130
1759.09	124
1760.11	126
1761.13	134
1762.14	128
1763.16	136
1764.18	126
1765.19	122
1766.21	128
1767.23	130
1768.24	138
1769.26	130
1770.28	138
1771.29	138
1772.31	126
1773.32	118
1774.34	134
1775.35	144
1776.37	126
1777.38	126
1778.4	140
1779.41	136
1780.43	136
1781.44	126
1782.45	124
1783.47	126
1784.48	130
1785.49	130
1786.51	140
1787.52	130
1788.53	130
1789.55	128
1790.56	118
1791.57	120
1792.58	126
1793.6	132
1794.61	118
1795.62	136
1796.63	126
1797.64	126
1798.66	132
1799.67	120
1800.68	126
1801.69	122
1802.7	124
1803.71	132
1804.72	118
1805.73	140
1806.74	120
1807.75	126
1808.76	132
1809.77	138
1810.78	140
1811.79	124
1812.8	132
1813.81	120
1814.82	132
1815.83	136
1816.84	130
1817.84	120
1818.85	126
1819.86	126
1820.87	130
1821.88	134
1822.88	128
1823.89	136
1824.9	118
1825.91	128
1826.91	116
1827.92	126
1828.93	112
1829.93	124
1830.94	128
1831.95	128
1832.95	114
1833.96	124
1834.97	130
1835.97	134
1836.98	122
1837.98	112
1838.99	138
1839.99	128
1841	132
1842	124
1843.01	124
1844.01	126
1845.02	120
1846.02	134
1847.02	120
1848.03	124
1849.03	120
1850.03	134
1851.04	146
1852.04	132
1853.04	122
1854.05	126
1855.05	116
1856.05	126
1857.05	130
1858.06	122
1859.06	144
1860.06	134
1861.06	126
1862.06	136
1863.07	122
1864.07	122
1865.07	118
1866.07	124
1867.07	126
1868.07	122
1869.07	132
1870.07	120
1871.07	130
1872.07	126
1873.07	130
1874.07	122
1875.07	118
1876.07	120
1877.07	126
1878.07	128
1879.07	114
1880.07	118
1881.07	114
1882.07	126
1883.06	108
1884.06	124
1885.06	118
1886.06	134
1887.06	124
1888.05	120
1889.05	118
1890.05	110
1891.05	118
1892.04	138
1893.04	132
1894.04	110
1895.03	132
1896.03	118
1897.03	116
1898.02	110
1899.02	118
1900.01	116
1901.01	138
1902	128
1903	124
1903.99	120
1904.99	124
1905.98	120
1906.98	126
1907.97	122
1908.97	124
1909.96	114
1910.96	118
1911.95	114
1912.94	128
1913.94	116
1914.93	132
1915.93	108
1916.92	130
1917.91	134
1918.9	124
1919.9	116
1920.89	134
1921.88	120
1922.87	126
1923.87	128
1924.86	118
1925.85	116
1926.84	126
1927.83	128
1928.82	136
1929.82	116
1930.81	138
1931.8	138
1932.79	134
1933.78	126
1934.77	120
1935.76	126
1936.75	120
1937.74	120
1938.73	116
1939.72	128
1940.71	124
1941.7	122
1942.69	116
1943.68	120
1944.67	138
1945.65	128
1946.64	114
1947.63	132
1948.62	120
1949.61	126
1950.6	130
1951.58	126
1952.57	144
1953.56	122
1954.55	114
1955.53	122
1956.52	116
1957.51	134
1958.5	130
1959.48	118
1960.47	118
1961.45	118
1962.44	126
1963.43	124
1964.41	120
1965.4	116
1966.38	120
1967.37	136
1968.35	108
1969.34	114
1970.32	120
1971.31	122
1972.29	126
1973.28	110
1974.26	126
1975.25	116
1976.23	124
1977.22	118
1978.2	130
1979.18	128
1980.17	118
1981.15	112
1982.13	110
1983.12	140
1984.1	124
1985.08	114
1986.06	122
1987.05	124
1988.03	124
1989.01	120
1989.99	124
1990.97	120
1991.96	118
1992.94	128
1993.92	120
1994.9	126
1995.88	118
1996.86	124
1997.84	126
1998.82	122
1999.8	130
2000.78	124
2001.76	120
2002.74	114
2003.72	132
2004.7	120
2005.68	112
2006.66	128
2007.64	148
2008.62	126
2009.6	128
2010.58	114
2011.56	114
2012.54	116
2013.51	120
2014.49	120
2015.47	114
2016.45	112
2017.43	114
2018.4	104
2019.38	128
2020.36	110
2021.34	128
2022.31	120
2023.29	130
2024.27	106
2025.24	120
2026.22	124
2027.2	118
2028.17	119
2029.15	120
2030.12	104
2031.1	122
2032.07	112
2033.05	122
2034.03	122
2035	124
2035.98	128
2036.95	114
2037.93	116
2038.9	110
2039.87	118
2040.85	120
2041.82	130
2042.8	112
2043.77	118
2044.74	116
2045.72	130
2046.69	120
2047.66	132
2048.64	126
2049.61	116
2050.58	116
2051.55	122
2052.53	128
2053.5	116
2054.47	128
2055.44	118
2056.41	118
2057.39	110
2058.36	120
2059.33	126
2060.3	124
2061.27	118
2062.24	132
2063.21	130
2064.18	124
2065.15	130
2066.12	130
2067.09	122
2068.06	122
2069.03	112
2070	112
2070.97	128
2071.94	122
2072.91	130
2073.88	120
2074.85	122
2075.82	130
2076.79	120
2077.76	124
2078.73	124
2079.69	122
2080.66	120
2081.63	108
2082.6	122
2083.56	116
2084.53	114
2085.5	116
2086.47	122
2087.43	114
2088.4	94
2089.37	132
2090.33	112
2091.3	132
2092.27	116
2093.23	122
2094.2	128
2095.17	122
2096.13	118
2097.1	118
2098.06	122
2099.03	118
2099.99	126
2100.96	112
2101.92	116
2102.89	122
2103.85	126
2104.82	110
2105.78	116
2106.74	126
2107.71	136
2108.67	106
2109.64	110
2110.6	126
2111.56	132
2112.53	116
2113.49	122
2114.45	120
2115.41	114
2116.38	122
2117.34	118
2118.3	112
2119.26	112
2120.23	118
2121.19	122
2122.15	114
2123.11	116
2124.07	118
2125.03	118
2126	114
2126.96	118
2127.92	108
2128.88	128
2129.84	118
2130.8	128
2131.76	114
2132.72	106
2133.68	114
2134.64	126
2135.6	106
2136.56	122
2137.52	120
2138.48	128
2139.44	120
2140.4	120
2141.35	124
2142.31	124
2143.27	106
2144.23	120
2145.19	126
2146.15	122
2147.1	140
2148.06	100
2149.02	112
2149.98	114
2150.94	106
2151.89	118
2152.85	114
2153.81	118
2154.76	108
2155.72	116
2156.68	106
2157.63	118
2158.59	116
2159.55	110
2160.5	110
2161.46	110
2162.41	110
2163.37	108
2164.32	112
2165.28	110
2166.23	118
2167.19	120
2168.14	108
2169.1	114
2170.05	110
2171.01	108
2171.96	128
2172.91	130
2173.87	120
2174.82	116
2175.78	116
2176.73	108
2177.68	128
2178.64	122
2179.59	116
2180.54	114
2181.49	126
2182.45	110
2183.4	124
2184.35	120
2185.3	112
2186.26	136
2187.21	120
2188.16	122
2189.11	126
2190.06	118
2191.01	120
2191.96	108
2192.92	108
2193.87	112
2194.82	120
2195.77	114
2196.72	118
2197.67	122
2198.62	114
2199.57	114
2200.52	128
2201.47	122
2202.42	112
2203.37	120
2204.32	108
2205.27	106
2206.22	110
2207.16	124
2208.11	104
2209.06	118
2210.01	114
2210.96	110
2211.91	110
2212.85	130
2213.8	128
2214.75	112
2215.7	104
2216.64	112
2217.59	120
2218.54	122
2219.49	122
2220.43	108
2221.38	128
2222.33	110
2223.27	110.049
2224.22	119.982
2225.16	116.431
2226.11	110.286
2227.06	118.18
2228	114.444
2228.95	118.386
2229.89	120.137
2230.84	115.836
2231.78	112.572
2232.73	107.48
2233.67	114.528
2234.62	107.002
2235.56	123.346
2236.51	112.331
2237.45	118.631
2238.4	110.253
2239.34	116.42
2240.28	114.541
2241.23	134.316
2242.17	113.348
2243.11	113.114
2244.06	110.05
2245	121.789
2245.94	107.368
2246.89	115.495
2247.83	118.042
2248.77	113.712
2249.71	113.839
2250.66	126.105
2251.6	118.212
2252.54	119.213
2253.48	115.968
2254.42	114.093
2255.37	123.832
2256.31	113.185
2257.25	115.84
2258.19	125.887
2259.13	117.538
2260.07	113.259
2261.01	123.24
2261.95	120.741
2262.89	115.518
2263.83	125.2
2264.77	126.67
2265.71	120.781
2266.65	120
2267.59	120.43
2268.53	117.082
2269.47	112.006
2270.41	114.316
2271.35	122.268
2272.29	118.897
2273.23	113.78
2274.17	120.558
2275.1	117.77
2276.04	117.024
2276.98	119.355
2277.92	124.897
2278.86	123.84
2279.8	122.159
2280.73	122.15
2281.67	120.352
2282.61	120.218
2283.55	113.16
2284.48	111.903
2285.42	125.214
2286.36	128.85
2287.29	126.441
2288.23	118.481
2289.17	121.474
2290.1	122.713
2291.04	117.05
2291.98	110.268
2292.91	122.666
2293.85	118.962
2294.78	122.769
2295.72	126.668
2296.65	121.27
2297.59	128.948
2298.52	127.585
2299.46	123.323
2300.39	125.853
2301.33	131.799
2302.26	124.51
2303.2	124.742
2304.13	122.614
2305.06	117.52
2306	121.875
2306.93	127.666
2307.87	120.211
2308.8	113.67
2309.73	115.876
2310.67	124.377
2311.6	130.096
2312.53	131.915
2313.46	118.619
2314.4	112.303
2315.33	111.49
2316.26	111.271
2316.69	114
2317.62	110
2318.56	124
2319.5	112
2320.43	118
2321.37	130
2322.31	130
2323.24	130
2324.18	110
2325.12	130
2326.05	126
2326.99	140
2327.92	128
2328.86	120
2329.79	124
2330.73	116
2331.66	124
2332.6	128
2333.53	132
2334.47	138
2335.4	128
2336.34	122
2337.27	130
2338.2	126
2339.14	116
2340.07	122
2341.01	122
2341.94	122
2342.87	130
2343.81	126
2344.74	116
2345.67	122
2346.6	126
2347.54	138
2348.47	134
2349.4	112
2350.33	118
2351.27	128
2352.2	120
2353.13	120
2354.06	114
2354.99	124
2355.93	122
2356.86	128
2357.79	128
2358.72	118
2359.65	116
2360.58	114
2361.51	132
2362.44	122
2363.37	122
2364.3	110
2365.23	110
2366.16	128
2367.09	124
2368.02	110
2368.95	116
2369.88	124
2370.81	126
2371.74	120
2372.67	118
2373.6	118
2374.52	122
2375.45	124
2376.38	106
2377.31	118
2378.24	116
2379.17	118
2380.09	122
2381.02	130
2381.95	118
2382.88	112
2383.8	110
2384.73	130
2385.66	132
2386.58	118
2387.51	114
2388.44	120
2389.36	118
2390.29	118
2391.22	120
2392.14	114
2393.07	124
2393.99	116
2394.92	114
2395.85	116
2396.77	116
2397.7	106
2398.62	116
2399.55	112
2400.47	116
2401.4	126
2402.32	118
2403.25	112
2404.17	100
2405.09	122
2406.02	118
2406.94	116
2407.86	116
2408.79	118
2409.71	116
2410.63	114
2411.56	130
2412.48	108
2413.4	110
2414.33	126
2415.25	118
2416.17	110
2417.09	124
2418.02	98
2418.94	124
2419.86	112
2420.78	106
2421.7	106
2422.63	122
2423.55	112
2424.47	104
2425.39	110
2426.31	98
2427.23	108
2428.15	116
2429.07	104
2429.99	106
2430.91	104
2431.83	110
2432.75	118
2433.67	118
2434.59	118
2435.51	124
2436.43	96
2437.35	98
2438.27	118
2439.19	110
2440.11	112
2441.03	108
2441.95	104
2442.86	108
2443.78	112
2444.7	102
2445.62	112
2446.54	104
2447.46	112
2448.37	104
2449.29	112
2450.21	106
2451.13	106
2452.04	104
2452.96	102
2453.88	114
2454.79	110
2455.71	110
2456.63	102
2457.54	114
2458.46	102
2459.38	102
2460.29	104
2461.21	104
2462.12	108
2463.04	104
2463.95	108
2464.87	98
2465.78	120
2466.7	108
2467.61	102
2468.53	112
2469.44	114
2470.36	106
2471.27	104
2472.19	108
2473.1	104
2474.01	116
2474.93	100
2475.84	110
2476.76	110
2477.67	110
2478.58	102
2479.5	104
2480.41	80
2481.32	106
2482.23	106
2483.15	102
2484.06	98
2484.97	108
2485.88	102
2486.8	108
2487.71	104
2488.62	104
2489.53	108
2490.44	106
2491.35	90
2492.26	106
2493.18	112
2494.09	98
2495	104
2495.91	96
2496.82	106
2497.73	94
2498.64	102
2499.55	114
2500.46	86
2501.37	106
2502.28	110
2503.19	96
2504.1	98
2505.01	104
2505.92	110
2506.83	100
2507.74	96
2508.65	114
2509.55	106
2510.46	102
2511.37	108
2512.28	98
2513.19	102
2514.09	108
2515	90
2515.91	96
2516.82	102
2517.73	86
2518.63	94
2519.54	92
2520.45	114
2521.35	96
2522.26	98
2523.17	102
2524.07	96
2524.98	92
2525.89	100
2526.79	100
2527.7	96
2528.6	110
2529.51	106
2530.42	80
2531.32	106
2532.23	100
2533.13	94
2534.04	92
2534.94	86
2535.85	90
2536.75	100
2537.66	90
2538.56	92
2539.47	100
2540.37	96
2541.27	92
2542.18	92
2543.08	98
2543.98	98
2544.89	82
2545.79	102
2546.7	96
2547.6	98
2548.5	96
2549.4	90
2550.31	84
2551.21	96
2552.11	96
2553.01	114
2553.92	88
2554.82	80
2555.72	90
2556.62	92
2557.52	90
2558.42	96
2559.33	88
2560.23	88
2561.13	84
2562.03	92
2562.93	86
2563.83	82
2564.73	92
2565.63	92
2566.53	96
2567.43	86
2568.33	90
2569.23	94
2570.13	90
2571.03	86
2571.93	82
2572.83	98
2573.73	88
2574.63	84
2575.53	86
2576.43	94
2577.33	78
2578.22	98
2579.12	90
2580.02	88
2580.92	88
2581.82	86
2582.72	76
2583.61	84
2584.51	108
2585.41	78
2586.31	90
2587.2	90
2588.1	98
2589	92
2589.89	86
2590.79	88
2591.69	92
2592.58	86
2593.48	80
2594.38	86
2595.27	92
2596.17	82
2597.06	88
2597.96	84
2598.86	92
2599.75	96
2600.65	80
2601.54	72
2602.44	80
2603.33	70
2604.23	92
2605.12	98
2606.02	86
2606.91	96
2607.81	72
2608.7	88
2609.59	80
2610.49	76
2611.38	84
2612.27	98
2613.17	84
2614.06	94
2614.95	82
2615.85	80
2616.74	84
2617.63	92
2618.53	84
2619.42	96
2620.31	92
2621.2	80
2622.1	86
2622.99	94
2623.88	78
2624.77	88
2625.66	82
2626.55	96
2627.45	78
2628.34	84
2629.23	84
2630.12	78
2631.01	90
2631.9	78
2632.79	84
2633.68	86
2634.57	76
2635.46	78
2636.35	82
2637.24	92
2638.13	90
2639.02	80
2639.91	70
2640.8	78
2641.69	78
2642.58	76
2643.47	78
2644.36	84
2645.25	72
2646.14	78
2647.02	84
2647.91	88
2648.8	82
2649.69	80
2650.58	78
2651.46	82
2652.35	78
2653.24	74
2654.13	76
2655.01	82
2655.9	76
2656.79	84
2657.68	92
2658.56	84
2659.45	76
2660.34	70
2661.22	74
2662.11	76
2662.99	78
2663.88	84
2664.77	80
2665.65	82
2666.54	80
2667.42	70
2668.31	78
2669.2	78
2670.08	94
2670.96	70
2671.85	70
2672.73	74
2673.62	74
2674.5	84
2675.39	68
2676.27	76
2677.16	84
2678.04	78
2678.93	78
2679.81	70
2680.69	68
2681.58	74
2682.46	70
2683.34	70
2684.23	82
2685.11	82
2685.99	76
2686.87	72
2687.76	72
2688.64	68
2689.52	70
2690.4	80
2691.28	80
2692.17	74
2693.05	60
2693.93	68
2694.81	76
2695.69	74
2696.57	70
2697.46	72
2698.34	74
2699.22	70
2700.1	80
2700.98	74
2701.86	64
2702.74	76
2703.62	74
2704.5	70
2705.38	76
2706.26	76
2707.14	64
2708.02	74
2708.9	82
2709.78	72
2710.66	80
2711.54	72
2712.42	70
2713.3	70
2714.17	70
2715.05	70
2715.93	68
2716.81	78
2717.69	82
2718.57	64
2719.44	64
2720.32	70
2721.2	76
2722.08	76
2722.95	78
2723.83	70
2724.71	68
2725.59	66
2726.46	72
2727.34	68
2728.22	76
2729.09	66
2729.97	68
2730.85	72
2731.72	58
2732.6	58
2733.47	66
2734.35	68
2735.23	62
2736.1	78
2736.98	64
2737.85	56
2738.73	66
2739.6	72
2740.48	62
2741.35	66
2742.23	68
2743.1	70
2743.98	60
2744.85	72
2745.72	60
2746.6	70
2747.47	70
2748.35	72
2749.22	62
2750.09	68
2750.97	68
2751.84	72
2752.71	70
2753.59	58
2754.46	72
2755.33	56
2756.2	68
2757.08	66
2757.95	64
2758.82	70
2759.69	72
2760.57	58
2761.44	70
2762.31	58
2763.18	66
2764.05	72
2764.92	74
2765.79	74
2766.67	62
2767.54	64
2768.41	66
2769.28	56
2770.15	58
2771.02	64
2771.89	68
2772.76	64
2773.63	56
2774.5	72
2775.37	60
2776.24	64
2777.11	66
2777.98	68
2778.85	68
2779.72	62
2780.59	68
2781.46	66
2782.32	72
2783.19	60
2784.06	68
2784.93	74
2785.8	72
2786.67	54
2787.53	64
2788.4	64
2789.27	58
2790.14	58
2791.01	52
2791.87	56
2792.74	68
2793.61	64
2794.47	64
2795.34	74
2796.21	58
2797.07	68
2797.94	70
2798.81	58
2799.67	68
2800.54	60
2801.41	52
2802.27	50
2803.14	58
2804	68
2804.87	60
2805.74	66
2806.6	60
2807.47	64
2808.33	56
2809.2	68
2810.06	56
2810.93	48
2811.79	62
2812.65	60
2813.52	66
2814.38	56
2815.25	64
2816.11	68
2816.98	58
2817.84	54
2818.7	58
2819.56	64
2820.43	60
2821.29	72
2822.16	66
2823.02	58
2823.88	60
2824.74	60
2825.61	66
2826.47	58
2827.33	56
2828.19	52
2829.05	58
2829.92	60
2830.78	62
2831.64	58
2832.5	56
2833.36	60
2834.23	54
2835.09	68
2835.95	54
2836.81	56
2837.67	64
2838.53	54
2839.39	60
2840.25	62
2841.11	56
2841.97	52
2842.83	60
2843.69	56
2844.55	58
2845.41	56
2846.27	60
2847.13	60
2847.99	60
2848.85	52
2849.71	58
2850.57	54
2851.43	66
2852.28	58
2853.14	52
2854	68
2854.86	48
2855.72	58
2856.58	70
2857.43	50
2858.29	52
2859.15	54
2860.01	56
2860.86	56
2861.72	56
2862.58	56
2863.44	46
2864.29	56
2865.15	56
2866.01	48
2866.86	54
2867.72	46
2868.58	48
2869.43	52
2870.29	54
2871.14	62
2872	52
2872.86	52
2873.71	52
2874.57	52
2875.42	54
2876.28	56
2877.13	50
2877.99	56
2878.84	50
2879.7	52
2880.55	52
2881.41	54
2882.26	54
2883.11	46
2883.97	58
2884.82	56
2885.68	54
2886.53	46
2887.39	44
2888.24	50
2889.09	58
2889.94	44
2890.8	50
2891.65	56
2892.5	52
2893.36	40
2894.21	54
2895.06	58
2895.91	50
2896.77	54
2897.62	60
2898.47	58
2899.32	44
2900.17	60
2901.03	54
2901.88	46
2902.73	56
2903.58	50
2904.43	54
2905.28	48
2906.13	56
2906.98	56
2907.84	48
2908.69	56
2909.54	48
2910.39	56
2911.24	46
2912.09	50
2912.94	52
2913.79	44
2914.64	56
2915.49	48
2916.34	52
2917.19	40
2918.03	54
2918.88	52
2919.73	54
2920.58	44
2921.43	46
2922.28	54
2923.13	44
2923.98	42
2924.82	44
2925.67	46
2926.52	46
2927.37	48
2928.22	48
2929.06	52
2929.91	44
2930.76	50
2931.61	58
2932.45	46
2933.3	46
2934.15	50
2934.99	44
2935.84	46
2936.69	40
2937.53	46
2938.38	50
2939.23	56
2940.07	40
2940.92	48
2941.76	46
2942.61	46
2943.46	46
2944.3	48
2945.15	40
2945.99	46
2946.84	54
2947.68	52
2948.53	50
2949.37	48
2950.22	52
2951.06	52
2951.9	48
2952.75	52
2953.59	50
2954.44	48
2955.28	52
2956.12	48
2956.97	56
2957.81	50
2958.65	42
2959.5	44
2960.34	52
2961.18	52
2962.03	52
2962.87	36
2963.71	46
2964.56	44
2965.4	46
2966.24	50
2967.08	40
2967.92	44
2968.77	58
2969.61	46
2970.45	48
2971.29	46
2972.13	48
2972.97	42
2973.82	44
2974.66	44
2975.5	54
2976.34	48
2977.18	40
2978.02	38
2978.86	46
2979.7	48
2980.54	50
2981.38	48
2982.22	34
2983.06	42
2983.9	46
2984.74	48
2985.58	46
2986.42	48
2987.26	48
2988.1	52
2988.94	46
2989.78	38
2990.61	42
2991.45	42
2992.29	52
2993.13	52
2993.97	42
2994.81	44
2995.64	46
2996.48	44
2997.32	44
2998.16	44
2999	46
2999.83	48
