#Acq. time (s)=	20
#Accumulations=	1
#Range (cm-¹)=	200...3000
#Windows=	3
#Autofocus=	Off
#AutoExposure=	Off
#Spike filter=	Off
#Delay time (s)=	0
#Binning=	1
#Readout mode=	Signal
#DeNoise=	Off
#ICS correction=	Off
#Dark correction=	Off
#Inst. Process=	Off
#Instrument=	LabRAM HR Evol
#Detector=	Syncerity OE
#Objective=	x100_VIS
#Grating=	600 (500nm)
#ND Filter=	1%
#Laser=	633nm_Edge
#Hole=	49.98
#Range=	Visible
#Project=	Omar
#Sample=	03-07-23
#Site=	nop
#Title=	inside_prf
#Remark=	
#Date=	03.07.2023 14:31
#Acquired=	03.07.2023 14:31:12
201.713	2396
202.98	2354
204.247	2344
205.513	2358
206.778	2418
208.045	2374
209.311	2440
210.576	2434
211.84	2478
213.106	2474
214.371	2496
215.636	2482
216.899	2562
218.164	2508
219.428	2568
220.692	2606
221.955	2484
223.219	2608
224.482	2620
225.744	2628
227.007	2598
228.27	2620
229.531	2680
230.794	2672
232.055	2668
233.317	2740
234.579	2708
235.839	2668
237.1	2684
238.362	2736
239.621	2762
240.882	2792
242.141	2806
243.402	2822
244.661	2792
245.921	2796
247.179	2918
248.439	2822
249.698	2852
250.956	2888
252.215	2916
253.473	2950
254.731	2934
255.988	2956
257.246	2974
258.503	2910
259.761	2970
261.017	3022
262.273	2994
263.53	2968
264.786	3040
266.042	2990
267.298	3072
268.554	2998
269.809	3012
271.063	3072
272.319	3028
273.573	3046
274.828	3110
276.082	3114
277.336	3124
278.591	3146
279.844	3172
281.097	3204
282.351	3208
283.603	3148
284.855	3214
286.109	3236
287.361	3242
288.613	3308
289.866	3296
291.117	3270
292.368	3304
293.62	3370
294.871	3340
296.121	3376
297.372	3382
298.623	3432
299.873	3354
301.123	3480
302.372	3482
303.622	3544
304.872	3466
306.121	3528
307.37	3540
308.618	3602
309.866	3552
311.116	3596
312.364	3732
313.611	3676
314.859	3656
316.106	3692
317.353	3670
318.6	3700
319.848	3772
321.095	3736
322.341	3780
323.587	3810
324.833	3840
326.079	3808
327.324	3862
328.569	3862
329.814	3840
331.059	3912
332.304	3968
333.548	3950
334.792	3906
336.037	3966
337.28	3994
338.524	3970
339.767	4052
341.011	4042
342.254	4060
343.497	4142
344.739	4072
345.982	4116
347.224	4212
348.466	4190
349.708	4264
350.95	4282
352.191	4292
353.432	4240
354.673	4196
355.914	4334
357.155	4332
358.394	4414
359.634	4400
360.874	4368
362.114	4482
363.354	4460
364.593	4468
365.832	4470
367.07	4484
368.309	4552
369.548	4586
370.786	4536
372.024	4672
373.261	4610
374.499	4552
375.736	4636
376.974	4604
378.211	4692
379.447	4726
380.684	4660
381.92	4662
383.157	4762
384.392	4612
385.628	4754
386.864	4768
388.098	4768
389.333	4792
390.569	4884
391.802	4762
393.037	4938
394.272	4950
395.505	4898
396.739	4976
397.973	5004
399.206	4992
400.44	5034
401.673	5036
402.905	4974
404.138	5098
405.37	5114
406.602	5182
407.835	5172
409.066	5274
410.298	5320
411.528	5328
412.76	5308
413.99	5328
415.221	5310
416.451	5358
417.682	5444
418.911	5446
420.142	5532
421.371	5546
422.601	5612
423.83	5600
425.059	5616
426.288	5680
427.517	5656
428.745	5716
429.974	5746
431.201	5840
432.43	5796
433.657	5936
434.883	5842
436.111	5956
437.338	5850
438.565	5946
439.791	5968
441.017	5992
442.244	6046
443.469	6094
444.695	6058
445.921	5990
447.146	5940
448.37	6076
449.596	6172
450.821	6276
452.045	6046
453.27	6164
454.493	6212
455.717	6212
456.94	6208
458.165	6364
459.387	6254
460.61	6318
461.833	6270
463.056	6360
464.278	6388
465.5	6376
466.722	6338
467.945	6366
469.166	6380
470.387	6540
471.608	6474
472.829	6476
474.049	6630
475.271	6624
476.491	6682
477.711	6682
478.931	6730
480.15	6624
481.37	6770
482.589	6788
483.808	6788
485.027	6856
486.247	6770
487.465	6970
488.683	6984
489.901	6938
491.119	6968
492.337	7070
493.554	7090
494.771	7052
495.988	7106
497.205	7160
498.422	7238
499.638	7252
500.854	7258
502.07	7258
503.286	7292
504.502	7328
505.717	7376
506.933	7348
508.148	7400
509.363	7484
510.577	7302
511.792	7474
513.005	7544
514.219	7546
515.433	7546
516.647	7586
517.86	7618
519.073	7526
520.287	7612
521.5	7754
522.711	7730
523.924	7716
525.136	7684
526.348	7758
527.56	7788
528.772	7806
529.982	7860
531.194	7842
532.405	7830
533.616	8030
534.825	7862
536.036	7992
537.246	8002
538.457	8012
539.665	8050
540.875	8040
542.085	8080
543.294	8080
544.502	8210
545.712	8178
546.92	8204
548.128	8166
549.336	8310
550.545	8182
551.751	8282
552.959	8294
554.167	8422
555.373	8458
556.581	8380
557.788	8486
558.994	8420
560.2	8642
561.406	8584
562.612	8530
563.817	8666
565.023	8716
566.229	8714
567.433	8780
568.639	8938
569.843	8900
571.048	8862
572.251	8822
573.456	8946
574.659	8960
575.863	9140
577.066	8980
578.27	9036
579.472	9166
580.676	9338
581.878	9258
583.081	9468
584.283	9378
585.484	9378
586.687	9254
587.888	9420
589.09	9504
590.291	9588
591.493	9674
592.693	9616
593.893	9706
595.094	9652
596.294	9802
597.494	9860
598.694	9858
599.894	9876
601.093	9886
602.293	9904
603.491	10010
604.69	10086
605.889	10106
607.087	10128
608.285	10190
609.483	10326
610.682	10252
611.879	10372
613.076	10514
614.273	10486
615.471	10598
616.667	10578
617.864	10656
619.06	10728
620.256	10858
621.453	10912
622.648	10816
623.844	10938
625.039	11046
626.234	10998
627.429	11182
628.625	11238
629.819	11296
631.013	11382
632.208	11304
633.401	11436
634.595	11644
635.789	11568
636.982	11704
638.175	11748
639.369	11864
640.562	11760
641.755	11852
642.947	12040
644.139	12104
645.331	11988
646.523	12182
647.715	12106
648.906	12308
650.097	12284
651.288	12290
652.479	12530
653.67	12404
654.86	12536
656.051	12550
657.241	12642
658.429	12802
659.619	12652
660.808	12784
661.998	12968
663.187	12814
664.376	13136
665.565	13000
666.753	13248
667.942	13210
669.13	13268
670.317	13252
671.505	13362
672.692	13496
673.88	13506
675.067	13458
676.254	13620
677.44	13782
678.627	13794
679.813	13916
681	13958
682.184	13904
683.37	14048
684.556	14138
685.742	14316
686.926	14240
688.111	14282
689.296	14366
690.481	14396
691.664	14708
692.849	14734
694.033	14862
695.216	14868
696.4	14922
697.584	14994
698.766	15030
699.949	15058
701.133	15148
702.314	15282
703.497	15442
704.678	15476
705.861	15520
707.043	15564
708.224	15734
709.406	15868
710.586	15856
711.768	15952
712.949	16140
714.129	16184
715.31	16392
716.489	16506
717.67	16548
718.849	16650
720.029	16642
721.208	16784
722.388	16898
723.566	17034
724.746	17190
725.924	17362
727.103	17434
728.28	17436
729.458	17644
730.636	17570
731.814	17740
732.992	17726
734.168	17760
735.345	18062
736.523	18066
737.699	18160
738.876	18370
740.052	18532
741.227	18670
742.404	18692
743.579	18808
744.754	18896
745.931	18958
747.105	18966
748.28	19218
749.455	19366
750.629	19518
751.803	19648
752.977	19652
754.152	19872
755.325	19970
756.499	20082
757.672	20226
758.846	20200
760.018	20460
761.191	20492
762.363	20392
763.535	20510
764.708	20798
765.88	20882
767.052	20982
768.223	21014
769.394	21240
770.565	21076
771.737	21308
772.908	21408
774.078	21524
775.249	21904
776.419	21810
777.589	22086
778.758	22224
779.928	22358
781.097	22566
782.266	22472
783.435	22698
784.604	22878
785.773	22928
786.941	23080
788.11	23244
789.278	23438
790.446	23506
791.613	23598
792.781	23740
793.948	23896
795.115	24106
796.282	23944
797.449	24482
798.616	24652
799.782	24692
800.948	25082
802.115	24890
803.28	25022
804.446	25086
805.612	25518
806.777	25738
807.941	25976
809.106	25918
810.271	26044
811.435	26230
812.6	26426
813.764	26706
814.927	26708
816.091	26856
817.254	27242
818.418	27370
819.581	27430
820.743	27566
821.906	27790
823.069	28128
824.232	28386
825.393	28324
826.555	28630
827.717	28846
828.879	28958
830.039	29264
831.201	29346
832.362	29526
833.522	29742
834.683	30092
835.844	29980
837.003	30320
838.164	30558
839.324	30662
840.483	31182
841.643	31046
842.801	31288
843.961	31898
845.12	31800
846.278	31904
847.437	32264
848.594	32426
849.753	32492
850.91	32962
852.069	32836
853.227	33182
854.383	33172
855.541	33668
856.697	33950
857.855	33942
859.011	34076
860.168	34008
861.323	34442
862.48	34720
863.635	34800
864.79	35288
865.946	35396
867.101	35494
868.257	35730
869.411	36118
870.567	36082
871.721	36326
872.874	36522
874.029	36752
875.183	36978
876.336	37066
877.49	37004
878.643	37410
879.796	37486
880.95	37612
882.102	38132
883.254	38372
884.407	38384
885.559	38696
886.711	39022
887.862	39074
889.015	39300
890.166	39254
891.317	39638
892.467	39434
893.619	40174
894.77	40288
895.92	40334
897.07	40758
898.221	40694
899.371	41090
900.52	41078
901.669	41320
902.819	41530
903.968	41832
905.116	42008
906.266	42276
907.415	42422
908.563	42240
909.711	42896
910.859	42980
912.007	43290
913.154	43698
914.301	43952
915.449	44028
916.596	44120
917.742	44300
918.889	44944
920.036	44998
921.183	45282
922.329	45542
923.475	45528
924.621	46090
925.765	46170
926.911	46122
928.056	46494
929.201	47028
930.346	47252
931.49	47268
932.635	47740
933.779	47920
934.924	48414
936.068	48374
937.211	48932
938.355	49218
939.498	49362
940.64	49482
941.784	49752
942.926	50034
944.069	50458
945.212	50598
946.354	51032
947.495	51068
948.637	51820
949.779	52030
950.921	52166
952.062	52484
953.202	52814
954.344	52904
955.484	53218
956.625	53576
957.765	53674
958.905	54436
960.045	54444
961.184	54930
962.324	55338
963.464	55508
964.604	55838
965.742	55752
966.881	56078
968.02	56868
969.158	56856
970.296	57092
971.434	57446
972.572	57654
973.71	57988
974.847	58214
975.985	58554
977.121	58500
978.259	58926
979.396	59212
980.532	59424
981.669	59930
982.804	60184
983.941	60578
985.076	60862
986.212	61246
987.347	61278
988.483	61456
989.617	61720
990.753	62072
991.887	62222
993.022	62770
994.156	62990
995.29	63006
996.424	63700
997.558	63614
998.692	64228
999.825	64260
1000.96	64535
1002.09	64535
1003.22	64535
1004.36	64535
1005.49	64535
1006.62	64535
1007.75	64535
1008.89	64535
1010.02	64535
1011.15	64535
1012.28	64535
1013.41	64535
1014.54	64535
1015.67	64535
1016.8	64535
1017.93	64535
1019.07	64535
1020.19	64535
1021.32	64535
1022.45	64535
1023.58	64535
1024.71	64535
1025.84	64535
1026.97	64535
1028.1	64535
1029.23	64535
1030.36	64535
1031.49	64535
1032.61	64535
1033.74	64535
1034.87	64535
1036	64535
1037.12	64535
1038.25	64535
1039.38	64535
1040.5	64535
1041.63	64535
1042.76	64535
1043.88	64535
1045.01	64535
1046.14	64535
1047.26	64535
1048.39	64535
1049.51	64535
1050.64	64535
1051.76	64535
1052.89	64535
1054.01	64535
1055.14	64535
1056.26	64535
1057.38	64535
1058.51	64535
1059.63	64535
1060.75	64535
1061.88	64535
1063	64535
1064.12	64535
1065.25	64535
1066.37	64535
1067.49	64535
1068.61	64535
1069.73	64535
1070.86	64535
1071.98	64535
1073.1	64535
1074.22	64535
1075.34	64535
1076.46	64535
1077.58	64535
1078.7	64535
1079.82	64535
1080.94	64535
1082.06	64535
1083.18	64535
1084.3	64535
1085.42	64535
1086.54	64535
1087.66	64535
1088.78	64535
1089.9	64535
1091.02	64535
1092.14	64535
1093.25	64535
1094.37	64535
1095.49	64535
1096.61	64535
1097.72	64535
1098.84	64535
1099.96	64535
1101.08	64535
1102.19	64535
1103.31	64535
1104.43	64535
1105.54	64535
1106.66	64535
1107.77	64535
1108.89	64535
1110	64535
1111.12	64535
1112.23	64535
1113.35	64535
1114.46	64535
1115.58	64535
1116.69	64535
1117.81	64535
1118.92	64535
1120.03	64535
1121.15	64535
1122.26	64535
1123.37	64535
1124.49	64535
1125.6	64535
1126.71	64535
1127.83	64535
1128.94	64535
1130.05	64535
1131.16	64535
1132.27	64535
1133.39	64535
1134.5	64535
1135.61	64535
1136.72	64535
1137.83	64535
1138.94	64535
1140.05	64535
1141.16	64535
1142.27	64535
1143.38	64535
1144.49	64535
1145.6	64535
1146.71	64535
1147.82	64535
1148.93	64535
1150.04	64535
1151.15	64535
1152.26	64535
1153.36	64535
1154.47	64535
1155.58	64535
1156.69	64535
1157.8	64535
1158.9	64535
1160.01	64535
1161.12	64535
1162.22	64535
1163.33	64535
1164.44	64535
1165.54	64535
1166.65	64535
1167.76	64535
1168.86	64535
1169.97	64535
1171.07	64535
1172.18	64535
1173.28	64535
1174.39	64535
1175.49	64535
1176.6	64535
1177.7	64535
1178.81	64535
1179.91	64535
1181.02	64535
1182.12	64535
1183.22	64535
1184.33	64535
1185.43	64535
1186.53	64535
1187.63	64535
1188.74	64535
1189.84	64535
1190.94	64535
1192.04	64535
1193.15	64535
1194.25	64535
1195.35	64535
1196.45	64535
1197.55	64535
1198.65	64535
1199.75	64535
1200.85	64535
1201.95	64535
1203.05	64535
1204.16	64535
1205.25	64535
1206.35	64535
1207.45	64535
1208.55	64535
1209.65	64535
1210.75	64535
1211.85	64535
1212.95	64535
1214.05	64535
1215.15	64535
1216.24	64535
1217.34	64535
1218.44	64535
1219.54	64535
1220.64	64535
1221.73	64535
1222.83	64535
1223.93	64535
1225.02	64535
1226.12	64535
1227.22	64535
1228.31	64535
1229.41	64535
1230.5	64535
1231.6	64535
1232.7	64535
1233.79	64535
1234.89	64535
1235.98	64535
1237.08	64535
1238.17	64535
1239.26	64535
1240.36	64535
1241.45	64535
1242.55	64535
1243.64	64535
1244.73	64535
1245.83	64535
1246.92	64535
1248.01	64535
1249.11	64535
1250.2	64535
1251.29	64535
1252.38	64535
1253.48	64535
1254.57	64535
1255.66	64535
1256.75	64535
1257.84	64535
1258.93	64535
1260.03	64535
1261.12	64535
1262.21	64535
1263.3	64535
1264.39	64535
1265.48	64535
1266.57	64535
1267.66	64535
1268.75	64535
1269.84	64535
1270.93	64535
1272.02	64535
1273.11	64535
1274.19	64535
1275.28	64535
1276.37	64535
1277.46	64535
1278.55	64535
1279.64	64535
1280.72	64535
1281.81	64535
1282.9	64535
1283.98	64480.1
1285.07	64365.1
1286.16	64250.1
1287.25	64135.9
1288.33	64011.9
1289.42	63884.7
1290.5	63750.1
1291.59	63611.9
1292.68	63486.2
1293.76	63340.3
1294.85	63190.6
1295.93	63029.5
1297.02	62869.1
1298.1	62731.9
1299.19	62569.2
1300.27	62399.7
1301.36	62260.5
1302.44	62063.9
1303.53	61944.4
1304.61	61757.4
1305.69	61583.8
1306.78	61397
1307.86	61136.7
1308.94	60965
1310.03	60801.6
1311.11	60547.9
1312.19	60335.3
1313.27	60156.7
1314.36	59961.8
1315.44	59752.4
1316.52	59478.9
1317.6	59234.3
1318.68	59185.7
1319.77	58919
1320.85	58630.4
1321.93	58423.5
1323.01	58190.3
1324.09	57987.9
1325.17	57722.8
1326.25	57460.2
1327.33	57181.4
1328.41	56921.1
1329.49	56664.5
1330.57	56447.9
1331.65	56121.8
1332.73	55739.9
1333.81	55770.1
1334.89	55392.9
1335.97	55090.8
1337.04	54826.7
1338.12	54563
1339.2	54274.3
1340.28	53976.2
1341.36	53639.9
1342.44	53374.7
1343.51	53029.8
1344.59	52819
1345.67	52416.5
1346.75	52243.2
1347.82	51796.9
1348.9	51487.1
1349.98	51373.4
1351.05	51086.3
1352.13	50817.4
1353.2	50420.4
1354.28	50156.8
1355.36	49753.8
1356.43	49360.3
1357.51	49011.6
1358.58	48729.4
1359.66	48527.6
1360.73	47966.8
1361.81	47709.1
1362.88	47171.5
1363.96	46805.5
1365.03	46330.3
1366.1	46105.5
1367.18	45621.2
1368.25	45379.6
1369.33	44896.1
1370.4	44429
1371.47	44137.1
1372.54	43768.2
1373.62	43425.2
1374.69	43009.6
1375.76	42699.1
1376.83	42437.7
1377.91	42156.9
1378.98	41772.2
1380.05	41310
1381.12	40850.7
1382.19	40728.4
1383.26	40268.5
1384.34	39822.3
1385.41	39508.9
1386.48	39066.1
1387.55	38857.5
1388.62	38617.4
1389.69	38278.7
1390.76	37831.8
1391.83	37513.4
1392.9	37284.1
1393.02	37180
1394.1	36990
1395.17	36996
1396.25	36630
1397.32	36702
1398.4	36670
1399.47	36540
1400.55	36276
1401.62	35986
1402.69	36032
1403.77	36006
1404.84	35756
1405.91	35454
1406.99	35378
1408.06	35586
1409.13	35344
1410.2	35508
1411.27	35102
1412.35	34916
1413.42	34708
1414.49	34636
1415.56	34620
1416.63	34278
1417.7	34402
1418.78	34314
1419.85	34182
1420.92	33992
1421.99	34206
1423.06	33982
1424.13	33680
1425.2	33618
1426.27	33652
1427.34	33400
1428.41	33448
1429.48	33324
1430.55	33354
1431.61	33362
1432.68	33036
1433.75	32862
1434.82	32782
1435.89	32600
1436.96	32626
1438.02	32550
1439.09	32504
1440.16	32398
1441.23	32340
1442.3	32244
1443.36	31988
1444.43	31800
1445.5	31758
1446.56	31960
1447.63	31930
1448.7	31882
1449.76	31676
1450.83	31748
1451.89	31528
1452.96	31480
1454.02	31462
1455.09	31424
1456.15	31356
1457.22	31266
1458.28	30992
1459.35	30964
1460.41	31128
1461.48	30742
1462.54	30770
1463.61	30748
1464.67	30672
1465.73	30392
1466.8	30530
1467.86	30584
1468.92	30532
1469.98	30252
1471.05	30306
1472.11	30176
1473.17	30036
1474.24	30162
1475.3	30118
1476.36	29862
1477.42	29768
1478.48	29718
1479.54	29896
1480.6	29834
1481.67	29686
1482.73	29448
1483.79	29382
1484.85	29382
1485.91	29236
1486.97	29256
1488.03	29180
1489.09	29318
1490.15	29048
1491.21	29160
1492.27	29124
1493.33	28970
1494.38	28912
1495.44	28818
1496.5	28862
1497.56	28602
1498.62	28630
1499.68	28406
1500.74	28398
1501.79	28236
1502.85	28180
1503.91	28318
1504.97	27980
1506.02	28136
1507.08	27844
1508.14	27852
1509.2	27976
1510.25	27850
1511.31	27766
1512.36	27652
1513.42	27432
1514.48	27530
1515.53	27396
1516.59	27350
1517.64	27358
1518.7	27570
1519.75	27110
1520.81	26896
1521.86	26996
1522.92	27056
1523.97	26844
1525.02	26846
1526.08	26756
1527.13	26648
1528.19	26604
1529.24	26722
1530.29	26534
1531.35	26462
1532.4	26362
1533.45	26334
1534.51	26200
1535.56	26136
1536.61	26024
1537.66	26168
1538.72	26084
1539.77	25908
1540.82	25738
1541.87	25912
1542.92	25598
1543.97	25748
1545.02	25652
1546.08	25486
1547.13	25440
1548.18	25438
1549.23	25360
1550.28	25306
1551.33	25490
1552.38	25122
1553.43	25324
1554.48	24816
1555.53	25098
1556.57	24948
1557.62	24726
1558.67	24846
1559.72	25008
1560.77	24702
1561.82	24754
1562.87	24758
1563.92	24566
1564.96	24610
1566.01	24634
1567.06	24538
1568.11	24708
1569.15	24362
1570.2	24322
1571.25	24286
1572.29	24408
1573.34	24282
1574.39	24460
1575.43	24224
1576.48	24306
1577.53	24096
1578.57	24096
1579.62	23972
1580.66	23972
1581.71	24016
1582.75	23910
1583.8	23692
1584.84	23780
1585.89	23810
1586.93	23638
1587.98	23862
1589.02	23806
1590.06	23620
1591.11	23602
1592.15	23638
1593.2	23582
1594.24	23690
1595.28	23642
1596.33	23568
1597.37	23572
1598.41	23730
1599.45	23448
1600.5	23398
1601.54	23402
1602.58	23388
1603.62	23530
1604.66	23450
1605.7	23332
1606.75	23164
1607.79	23378
1608.83	23252
1609.87	23104
1610.91	23258
1611.95	23284
1612.99	23174
1614.03	23180
1615.07	23130
1616.11	23060
1617.15	22934
1618.19	23062
1619.23	22932
1620.27	22952
1621.31	22774
1622.35	22806
1623.39	23182
1624.43	22958
1625.46	22790
1626.5	22894
1627.54	22630
1628.58	22706
1629.62	22750
1630.65	22594
1631.69	22680
1632.73	22376
1633.77	22528
1634.8	22526
1635.84	22524
1636.88	22286
1637.91	22426
1638.95	22412
1639.99	22280
1641.02	22286
1642.06	22228
1643.09	22174
1644.13	22354
1645.16	22190
1646.2	22226
1647.23	22154
1648.27	22018
1649.3	22210
1650.34	21914
1651.37	21986
1652.41	22006
1653.44	21932
1654.47	21880
1655.51	21876
1656.54	22004
1657.57	21798
1658.61	21778
1659.64	21690
1660.67	21728
1661.71	21620
1662.74	21622
1663.77	21580
1664.81	21514
1665.84	21568
1666.87	21558
1667.9	21260
1668.93	21374
1669.96	21336
1671	21432
1672.03	21442
1673.06	21088
1674.09	21272
1675.12	21166
1676.15	21294
1677.18	21158
1678.21	21110
1679.24	21182
1680.27	20908
1681.3	20948
1682.33	21004
1683.36	20966
1684.39	20906
1685.42	20764
1686.45	20644
1687.47	20764
1688.5	20684
1689.53	20712
1690.56	20590
1691.59	20762
1692.62	20620
1693.64	20542
1694.67	20512
1695.7	20566
1696.73	20518
1697.75	20440
1698.78	20582
1699.81	20400
1700.83	20402
1701.86	20504
1702.89	20404
1703.91	20292
1704.94	20442
1705.97	20320
1706.99	20174
1708.02	20156
1709.04	20250
1710.07	20162
1711.09	20290
1712.12	20080
1713.14	19966
1714.17	19982
1715.19	20086
1716.22	20100
1717.24	19892
1718.26	20124
1719.29	20082
1720.31	19924
1721.33	19920
1722.36	19764
1723.38	19746
1724.4	19864
1725.43	19790
1726.45	19894
1727.47	19796
1728.49	19692
1729.52	19838
1730.54	19804
1731.56	19448
1732.58	19646
1733.6	19652
1734.63	19496
1735.65	19708
1736.67	19630
1737.69	19562
1738.71	19550
1739.73	19554
1740.75	19284
1741.77	19452
1742.79	19432
1743.81	19508
1744.83	19464
1745.85	19404
1746.87	19378
1747.89	19386
1748.91	19494
1749.93	19392
1750.95	19324
1751.97	19398
1752.98	19222
1754	19268
1755.02	19392
1756.04	19394
1757.06	19214
1758.07	19326
1759.09	19478
1760.11	19252
1761.13	19316
1762.14	19274
1763.16	19294
1764.18	19324
1765.19	19164
1766.21	19240
1767.23	19124
1768.24	19248
1769.26	19032
1770.28	19200
1771.29	19228
1772.31	19094
1773.32	19224
1774.34	19068
1775.35	19026
1776.37	18904
1777.38	18928
1778.4	19188
1779.41	19054
1780.43	19024
1781.44	19232
1782.45	19028
1783.47	19096
1784.48	19102
1785.49	19060
1786.51	18932
1787.52	18908
1788.53	19140
1789.55	18898
1790.56	18982
1791.57	18862
1792.58	18918
1793.6	18862
1794.61	18956
1795.62	18796
1796.63	18844
1797.64	18846
1798.66	18884
1799.67	18786
1800.68	18832
1801.69	18794
1802.7	18570
1803.71	18852
1804.72	18770
1805.73	18640
1806.74	18854
1807.75	18702
1808.76	18688
1809.77	18694
1810.78	18582
1811.79	18636
1812.8	18390
1813.81	18724
1814.82	18540
1815.83	18532
1816.84	18414
1817.84	18494
1818.85	18504
1819.86	18290
1820.87	18618
1821.88	18420
1822.88	18532
1823.89	18482
1824.9	18478
1825.91	18382
1826.91	18436
1827.92	18300
1828.93	18544
1829.93	18296
1830.94	18340
1831.95	18302
1832.95	18200
1833.96	18234
1834.97	18276
1835.97	18272
1836.98	18142
1837.98	18210
1838.99	18082
1839.99	18184
1841	17970
1842	18046
1843.01	18000
1844.01	18024
1845.02	18010
1846.02	18016
1847.02	18028
1848.03	18002
1849.03	17946
1850.03	17910
1851.04	17928
1852.04	18050
1853.04	18092
1854.05	17834
1855.05	18062
1856.05	17844
1857.05	17896
1858.06	17798
1859.06	17836
1860.06	17632
1861.06	17906
1862.06	17888
1863.07	17684
1864.07	17746
1865.07	17716
1866.07	17902
1867.07	17636
1868.07	17790
1869.07	17558
1870.07	17656
1871.07	17700
1872.07	17590
1873.07	17536
1874.07	17616
1875.07	17588
1876.07	17566
1877.07	17562
1878.07	17662
1879.07	17582
1880.07	17514
1881.07	17680
1882.07	17574
1883.06	17626
1884.06	17506
1885.06	17656
1886.06	17570
1887.06	17526
1888.05	17342
1889.05	17594
1890.05	17370
1891.05	17624
1892.04	17592
1893.04	17450
1894.04	17394
1895.03	17594
1896.03	17550
1897.03	17342
1898.02	17504
1899.02	17544
1900.01	17394
1901.01	17336
1902	17500
1903	17558
1903.99	17516
1904.99	17422
1905.98	17422
1906.98	17482
1907.97	17540
1908.97	17302
1909.96	17356
1910.96	17430
1911.95	17416
1912.94	17422
1913.94	17460
1914.93	17414
1915.93	17284
1916.92	17296
1917.91	17388
1918.9	17416
1919.9	17458
1920.89	17368
1921.88	17178
1922.87	17296
1923.87	17126
1924.86	17332
1925.85	17184
1926.84	17120
1927.83	17210
1928.82	17308
1929.82	17320
1930.81	17252
1931.8	17202
1932.79	17288
1933.78	17050
1934.77	17264
1935.76	17180
1936.75	17108
1937.74	17142
1938.73	17112
1939.72	17256
1940.71	17104
1941.7	17180
1942.69	17220
1943.68	17172
1944.67	16996
1945.65	17118
1946.64	17148
1947.63	16936
1948.62	17134
1949.61	16994
1950.6	17086
1951.58	16968
1952.57	17004
1953.56	16944
1954.55	17016
1955.53	16974
1956.52	16876
1957.51	16730
1958.5	17002
1959.48	16894
1960.47	16780
1961.45	16906
1962.44	16798
1963.43	16782
1964.41	16750
1965.4	16974
1966.38	16748
1967.37	16994
1968.35	16816
1969.34	16726
1970.32	16616
1971.31	16722
1972.29	16834
1973.28	16796
1974.26	16688
1975.25	16720
1976.23	16660
1977.22	16556
1978.2	16652
1979.18	16580
1980.17	16552
1981.15	16538
1982.13	16580
1983.12	16712
1984.1	16638
1985.08	16494
1986.06	16588
1987.05	16500
1988.03	16716
1989.01	16664
1989.99	16488
1990.97	16540
1991.96	16372
1992.94	16584
1993.92	16614
1994.9	16516
1995.88	16526
1996.86	16370
1997.84	16514
1998.82	16554
1999.8	16510
2000.78	16520
2001.76	16544
2002.74	16462
2003.72	16468
2004.7	16436
2005.68	16308
2006.66	16400
2007.64	16488
2008.62	16434
2009.6	16452
2010.58	16344
2011.56	16438
2012.54	16434
2013.51	16464
2014.49	16390
2015.47	16410
2016.45	16444
2017.43	16416
2018.4	16458
2019.38	16354
2020.36	16360
2021.34	16294
2022.31	16396
2023.29	16318
2024.27	16360
2025.24	16366
2026.22	16430
2027.2	16312
2028.17	16325
2029.15	16338
2030.12	16206
2031.1	16234
2032.07	16290
2033.05	16166
2034.03	16256
2035	16350
2035.98	16216
2036.95	16278
2037.93	16258
2038.9	16146
2039.87	16102
2040.85	16224
2041.82	16202
2042.8	16242
2043.77	16126
2044.74	16250
2045.72	16130
2046.69	16024
2047.66	16138
2048.64	16156
2049.61	16250
2050.58	16012
2051.55	16120
2052.53	16070
2053.5	16148
2054.47	16166
2055.44	15952
2056.41	16056
2057.39	16078
2058.36	16196
2059.33	16074
2060.3	16032
2061.27	16060
2062.24	16118
2063.21	16092
2064.18	15932
2065.15	15962
2066.12	16018
2067.09	15918
2068.06	15900
2069.03	15814
2070	15886
2070.97	16058
2071.94	16054
2072.91	15850
2073.88	16072
2074.85	15956
2075.82	15994
2076.79	16072
2077.76	16102
2078.73	15974
2079.69	15862
2080.66	15886
2081.63	15852
2082.6	15960
2083.56	15858
2084.53	15858
2085.5	15814
2086.47	15814
2087.43	15816
2088.4	15868
2089.37	15736
2090.33	15736
2091.3	15842
2092.27	15830
2093.23	15782
2094.2	15828
2095.17	15748
2096.13	15750
2097.1	15804
2098.06	15840
2099.03	15774
2099.99	15662
2100.96	15830
2101.92	15838
2102.89	15610
2103.85	15746
2104.82	15612
2105.78	15856
2106.74	15768
2107.71	15792
2108.67	15642
2109.64	15786
2110.6	15630
2111.56	15656
2112.53	15658
2113.49	15620
2114.45	15562
2115.41	15642
2116.38	15698
2117.34	15660
2118.3	15762
2119.26	15538
2120.23	15426
2121.19	15762
2122.15	15494
2123.11	15618
2124.07	15690
2125.03	15524
2126	15716
2126.96	15592
2127.92	15442
2128.88	15548
2129.84	15632
2130.8	15490
2131.76	15644
2132.72	15718
2133.68	15604
2134.64	15496
2135.6	15558
2136.56	15404
2137.52	15462
2138.48	15492
2139.44	15404
2140.4	15494
2141.35	15400
2142.31	15458
2143.27	15626
2144.23	15354
2145.19	15482
2146.15	15482
2147.1	15450
2148.06	15396
2149.02	15346
2149.98	15498
2150.94	15334
2151.89	15310
2152.85	15310
2153.81	15356
2154.76	15264
2155.72	15218
2156.68	15176
2157.63	15462
2158.59	15312
2159.55	15242
2160.5	15180
2161.46	15244
2162.41	15216
2163.37	15268
2164.32	15258
2165.28	15130
2166.23	15290
2167.19	15200
2168.14	15120
2169.1	15162
2170.05	15092
2171.01	15252
2171.96	15144
2172.91	14930
2173.87	15134
2174.82	15086
2175.78	15080
2176.73	15134
2177.68	15054
2178.64	15002
2179.59	15078
2180.54	15028
2181.49	14882
2182.45	14854
2183.4	15050
2184.35	14882
2185.3	15048
2186.26	14880
2187.21	14958
2188.16	14848
2189.11	14956
2190.06	14920
2191.01	14916
2191.96	14876
2192.92	14786
2193.87	14724
2194.82	14776
2195.77	14710
2196.72	14626
2197.67	14718
2198.62	14782
2199.57	14786
2200.52	14654
2201.47	14650
2202.42	14762
2203.37	14600
2204.32	14552
2205.27	14786
2206.22	14814
2207.16	14636
2208.11	14616
2209.06	14686
2210.01	14622
2210.96	14756
2211.91	14576
2212.85	14608
2213.8	14572
2214.75	14634
2215.7	14618
2216.64	14640
2217.59	14594
2218.54	14678
2219.49	14722
2220.43	14696
2221.38	14560
2222.33	14688
2223.27	14544.6
2224.22	14545.4
2225.16	14505.9
2226.11	14439.9
2227.06	14428.7
2228	14498.7
2228.95	14386.9
2229.89	14376.8
2230.84	14352.6
2231.78	14290
2232.73	14194.5
2233.67	14313.5
2234.62	14139.3
2235.56	14258.8
2236.51	14190.4
2237.45	14079.5
2238.4	14004.3
2239.34	14061.9
2240.28	14021.7
2241.23	14112
2242.17	14075.6
2243.11	13945
2244.06	13958.9
2245	13933.3
2245.94	13854.2
2246.89	13784.6
2247.83	13811.3
2248.77	13847.2
2249.71	13749.8
2250.66	13619.5
2251.6	13624.9
2252.54	13555
2253.48	13601.8
2254.42	13628.9
2255.37	13575.2
2256.31	13498.5
2257.25	13416.1
2258.19	13467.3
2259.13	13357.9
2260.07	13430.4
2261.01	13371.8
2261.95	13274.4
2262.89	13345
2263.83	13222.1
2264.77	13259.2
2265.71	13242
2266.65	13191.1
2267.59	13076.4
2268.53	13003.9
2269.47	12961.6
2270.41	13044
2271.35	13012.9
2272.29	12971.4
2273.23	12884.2
2274.17	12834.9
2275.1	12743.1
2276.04	12783.9
2276.98	12823.3
2277.92	12679.6
2278.86	12708.5
2279.8	12609.5
2280.73	12563.3
2281.67	12614.8
2282.61	12484.6
2283.55	12384.9
2284.48	12509.9
2285.42	12450.6
2286.36	12393.7
2287.29	12293.6
2288.23	12293.5
2289.17	12240.2
2290.1	12286.5
2291.04	12195.6
2291.98	12226.5
2292.91	12129.6
2293.85	12066.7
2294.78	12058.8
2295.72	12046
2296.65	12035
2297.59	11926.3
2298.52	11896.1
2299.46	11949.8
2300.39	11933.6
2301.33	11845.8
2302.26	11771.3
2303.2	11709.7
2304.13	11669.6
2305.06	11654.6
2306	11694.3
2306.93	11627.2
2307.87	11607.7
2308.8	11581.8
2309.73	11536.3
2310.67	11425.5
2311.6	11331.8
2312.53	11345.9
2313.46	11374.2
2314.4	11306.4
2315.33	11186.2
2316.26	11229.7
2316.69	11308
2317.62	11274
2318.56	11276
2319.5	11190
2320.43	11270
2321.37	11114
2322.31	11146
2323.24	11086
2324.18	11184
2325.12	11048
2326.05	11228
2326.99	11118
2327.92	11156
2328.86	11056
2329.79	11092
2330.73	11088
2331.66	11052
2332.6	11186
2333.53	11148
2334.47	11122
2335.4	11068
2336.34	11032
2337.27	10978
2338.2	11020
2339.14	11014
2340.07	11078
2341.01	10928
2341.94	10892
2342.87	10994
2343.81	11032
2344.74	11094
2345.67	10930
2346.6	10972
2347.54	10904
2348.47	10926
2349.4	10830
2350.33	10760
2351.27	10962
2352.2	10804
2353.13	10860
2354.06	10974
2354.99	10898
2355.93	10900
2356.86	10766
2357.79	10748
2358.72	10914
2359.65	10850
2360.58	10824
2361.51	10828
2362.44	10832
2363.37	10834
2364.3	10792
2365.23	10760
2366.16	10722
2367.09	10716
2368.02	10742
2368.95	10728
2369.88	10606
2370.81	10614
2371.74	10608
2372.67	10646
2373.6	10568
2374.52	10684
2375.45	10602
2376.38	10746
2377.31	10548
2378.24	10748
2379.17	10614
2380.09	10592
2381.02	10586
2381.95	10634
2382.88	10584
2383.8	10538
2384.73	10410
2385.66	10456
2386.58	10408
2387.51	10472
2388.44	10482
2389.36	10422
2390.29	10426
2391.22	10440
2392.14	10372
2393.07	10402
2393.99	10512
2394.92	10286
2395.85	10330
2396.77	10372
2397.7	10322
2398.62	10338
2399.55	10218
2400.47	10322
2401.4	10354
2402.32	10302
2403.25	10318
2404.17	10186
2405.09	10244
2406.02	10210
2406.94	10098
2407.86	10174
2408.79	10164
2409.71	10250
2410.63	10110
2411.56	10108
2412.48	10268
2413.4	9996
2414.33	9940
2415.25	10044
2416.17	10130
2417.09	10062
2418.02	10010
2418.94	9952
2419.86	10074
2420.78	10012
2421.7	9820
2422.63	9922
2423.55	9796
2424.47	9862
2425.39	9856
2426.31	9810
2427.23	9896
2428.15	9910
2429.07	9860
2429.99	9932
2430.91	9872
2431.83	9876
2432.75	9794
2433.67	9746
2434.59	9844
2435.51	9762
2436.43	9746
2437.35	9752
2438.27	9620
2439.19	9804
2440.11	9738
2441.03	9660
2441.95	9734
2442.86	9628
2443.78	9604
2444.7	9618
2445.62	9622
2446.54	9674
2447.46	9612
2448.37	9472
2449.29	9638
2450.21	9446
2451.13	9564
2452.04	9634
2452.96	9510
2453.88	9588
2454.79	9426
2455.71	9510
2456.63	9392
2457.54	9466
2458.46	9442
2459.38	9494
2460.29	9444
2461.21	9318
2462.12	9220
2463.04	9408
2463.95	9166
2464.87	9320
2465.78	9292
2466.7	9274
2467.61	9196
2468.53	9194
2469.44	9210
2470.36	9186
2471.27	9198
2472.19	9254
2473.1	9188
2474.01	9264
2474.93	9138
2475.84	9064
2476.76	9032
2477.67	9184
2478.58	9086
2479.5	8978
2480.41	9046
2481.32	9184
2482.23	9016
2483.15	9096
2484.06	8972
2484.97	9104
2485.88	8936
2486.8	8956
2487.71	8890
2488.62	8988
2489.53	8950
2490.44	8948
2491.35	8878
2492.26	8934
2493.18	8768
2494.09	8880
2495	8820
2495.91	8738
2496.82	8690
2497.73	8810
2498.64	8734
2499.55	8780
2500.46	8752
2501.37	8714
2502.28	8782
2503.19	8630
2504.1	8678
2505.01	8664
2505.92	8580
2506.83	8626
2507.74	8642
2508.65	8642
2509.55	8468
2510.46	8558
2511.37	8564
2512.28	8502
2513.19	8504
2514.09	8456
2515	8514
2515.91	8430
2516.82	8510
2517.73	8434
2518.63	8424
2519.54	8430
2520.45	8430
2521.35	8328
2522.26	8400
2523.17	8350
2524.07	8336
2524.98	8346
2525.89	8260
2526.79	8170
2527.7	8328
2528.6	8338
2529.51	8300
2530.42	8282
2531.32	8234
2532.23	8218
2533.13	8066
2534.04	8186
2534.94	8174
2535.85	8118
2536.75	8166
2537.66	8076
2538.56	8048
2539.47	8076
2540.37	8174
2541.27	8088
2542.18	8066
2543.08	8102
2543.98	8042
2544.89	8038
2545.79	7880
2546.7	8000
2547.6	8030
2548.5	7904
2549.4	7954
2550.31	7912
2551.21	7874
2552.11	7830
2553.01	7852
2553.92	7920
2554.82	7766
2555.72	7928
2556.62	7860
2557.52	7818
2558.42	7808
2559.33	7822
2560.23	7944
2561.13	7786
2562.03	7766
2562.93	7852
2563.83	7780
2564.73	7602
2565.63	7708
2566.53	7656
2567.43	7712
2568.33	7570
2569.23	7648
2570.13	7638
2571.03	7726
2571.93	7612
2572.83	7632
2573.73	7660
2574.63	7604
2575.53	7572
2576.43	7556
2577.33	7564
2578.22	7390
2579.12	7506
2580.02	7438
2580.92	7422
2581.82	7440
2582.72	7408
2583.61	7360
2584.51	7504
2585.41	7390
2586.31	7322
2587.2	7232
2588.1	7358
2589	7298
2589.89	7342
2590.79	7330
2591.69	7200
2592.58	7368
2593.48	7226
2594.38	7178
2595.27	7276
2596.17	7230
2597.06	7190
2597.96	7188
2598.86	7120
2599.75	7172
2600.65	7128
2601.54	7080
2602.44	7162
2603.33	7164
2604.23	7172
2605.12	7048
2606.02	7060
2606.91	7056
2607.81	7066
2608.7	7012
2609.59	7074
2610.49	6990
2611.38	7012
2612.27	6922
2613.17	7068
2614.06	6990
2614.95	6956
2615.85	6984
2616.74	6912
2617.63	6806
2618.53	6960
2619.42	6876
2620.31	6884
2621.2	6876
2622.1	6824
2622.99	6878
2623.88	6754
2624.77	6856
2625.66	6742
2626.55	6790
2627.45	6752
2628.34	6816
2629.23	6780
2630.12	6766
2631.01	6736
2631.9	6718
2632.79	6734
2633.68	6756
2634.57	6662
2635.46	6676
2636.35	6688
2637.24	6696
2638.13	6556
2639.02	6630
2639.91	6522
2640.8	6594
2641.69	6570
2642.58	6554
2643.47	6502
2644.36	6482
2645.25	6474
2646.14	6420
2647.02	6510
2647.91	6418
2648.8	6480
2649.69	6502
2650.58	6534
2651.46	6346
2652.35	6418
2653.24	6448
2654.13	6354
2655.01	6406
2655.9	6280
2656.79	6488
2657.68	6380
2658.56	6374
2659.45	6350
2660.34	6156
2661.22	6312
2662.11	6216
2662.99	6196
2663.88	6364
2664.77	6314
2665.65	6254
2666.54	6248
2667.42	6186
2668.31	6098
2669.2	6278
2670.08	6234
2670.96	6202
2671.85	6206
2672.73	6088
2673.62	6156
2674.5	6100
2675.39	6166
2676.27	6174
2677.16	6088
2678.04	6146
2678.93	6126
2679.81	6168
2680.69	6150
2681.58	6006
2682.46	6000
2683.34	6114
2684.23	6026
2685.11	6026
2685.99	5940
2686.87	5926
2687.76	5924
2688.64	5954
2689.52	6004
2690.4	5934
2691.28	5888
2692.17	5952
2693.05	5836
2693.93	5848
2694.81	5894
2695.69	5906
2696.57	5882
2697.46	5750
2698.34	5728
2699.22	5794
2700.1	5844
2700.98	5784
2701.86	5902
2702.74	5736
2703.62	5782
2704.5	5704
2705.38	5830
2706.26	5686
2707.14	5684
2708.02	5656
2708.9	5752
2709.78	5640
2710.66	5648
2711.54	5598
2712.42	5606
2713.3	5620
2714.17	5576
2715.05	5512
2715.93	5634
2716.81	5572
2717.69	5632
2718.57	5640
2719.44	5598
2720.32	5524
2721.2	5478
2722.08	5530
2722.95	5472
2723.83	5458
2724.71	5572
2725.59	5456
2726.46	5442
2727.34	5366
2728.22	5502
2729.09	5402
2729.97	5414
2730.85	5368
2731.72	5386
2732.6	5342
2733.47	5416
2734.35	5304
2735.23	5400
2736.1	5280
2736.98	5366
2737.85	5294
2738.73	5180
2739.6	5298
2740.48	5234
2741.35	5220
2742.23	5192
2743.1	5216
2743.98	5244
2744.85	5214
2745.72	5102
2746.6	5144
2747.47	5192
2748.35	5096
2749.22	5122
2750.09	5144
2750.97	5186
2751.84	5100
2752.71	5134
2753.59	5056
2754.46	5048
2755.33	5074
2756.2	5058
2757.08	5018
2757.95	5020
2758.82	5004
2759.69	4968
2760.57	5010
2761.44	5032
2762.31	4964
2763.18	4920
2764.05	4998
2764.92	4942
2765.79	4916
2766.67	5008
2767.54	4930
2768.41	4884
2769.28	4890
2770.15	4854
2771.02	4846
2771.89	4832
2772.76	4826
2773.63	4812
2774.5	4812
2775.37	4770
2776.24	4866
2777.11	4794
2777.98	4804
2778.85	4798
2779.72	4772
2780.59	4748
2781.46	4730
2782.32	4764
2783.19	4666
2784.06	4742
2784.93	4724
2785.8	4718
2786.67	4722
2787.53	4744
2788.4	4704
2789.27	4678
2790.14	4646
2791.01	4710
2791.87	4636
2792.74	4540
2793.61	4618
2794.47	4580
2795.34	4572
2796.21	4600
2797.07	4574
2797.94	4590
2798.81	4590
2799.67	4566
2800.54	4462
2801.41	4578
2802.27	4440
2803.14	4552
2804	4526
2804.87	4494
2805.74	4456
2806.6	4502
2807.47	4490
2808.33	4426
2809.2	4452
2810.06	4530
2810.93	4422
2811.79	4390
2812.65	4432
2813.52	4458
2814.38	4322
2815.25	4324
2816.11	4352
2816.98	4338
2817.84	4360
2818.7	4270
2819.56	4270
2820.43	4294
2821.29	4354
2822.16	4260
2823.02	4330
2823.88	4292
2824.74	4304
2825.61	4182
2826.47	4238
2827.33	4204
2828.19	4178
2829.05	4228
2829.92	4144
2830.78	4100
2831.64	4138
2832.5	4194
2833.36	4188
2834.23	4146
2835.09	4166
2835.95	4160
2836.81	4094
2837.67	4148
2838.53	4148
2839.39	4138
2840.25	4118
2841.11	4118
2841.97	4058
2842.83	4030
2843.69	4082
2844.55	4048
2845.41	4030
2846.27	4062
2847.13	3986
2847.99	3982
2848.85	3988
2849.71	3990
2850.57	3916
2851.43	3924
2852.28	3972
2853.14	3880
2854	3888
2854.86	3996
2855.72	3868
2856.58	3922
2857.43	3844
2858.29	3894
2859.15	3902
2860.01	3916
2860.86	3842
2861.72	3844
2862.58	3804
2863.44	3902
2864.29	3832
2865.15	3874
2866.01	3914
2866.86	3820
2867.72	3858
2868.58	3714
2869.43	3782
2870.29	3736
2871.14	3680
2872	3768
2872.86	3804
2873.71	3734
2874.57	3664
2875.42	3704
2876.28	3658
2877.13	3736
2877.99	3626
2878.84	3720
2879.7	3658
2880.55	3632
2881.41	3638
2882.26	3658
2883.11	3682
2883.97	3612
2884.82	3616
2885.68	3646
2886.53	3618
2887.39	3562
2888.24	3618
2889.09	3634
2889.94	3552
2890.8	3538
2891.65	3582
2892.5	3528
2893.36	3562
2894.21	3544
2895.06	3586
2895.91	3588
2896.77	3552
2897.62	3490
2898.47	3598
2899.32	3578
2900.17	3426
2901.03	3516
2901.88	3540
2902.73	3502
2903.58	3426
2904.43	3486
2905.28	3442
2906.13	3426
2906.98	3418
2907.84	3442
2908.69	3434
2909.54	3458
2910.39	3508
2911.24	3422
2912.09	3446
2912.94	3440
2913.79	3358
2914.64	3378
2915.49	3430
2916.34	3422
2917.19	3350
2918.03	3380
2918.88	3372
2919.73	3388
2920.58	3336
2921.43	3274
2922.28	3374
2923.13	3420
2923.98	3324
2924.82	3320
2925.67	3348
2926.52	3324
2927.37	3292
2928.22	3394
2929.06	3224
2929.91	3204
2930.76	3282
2931.61	3308
2932.45	3236
2933.3	3254
2934.15	3230
2934.99	3262
2935.84	3258
2936.69	3264
2937.53	3184
2938.38	3194
2939.23	3244
2940.07	3288
2940.92	3146
2941.76	3262
2942.61	3256
2943.46	3220
2944.3	3234
2945.15	3184
2945.99	3160
2946.84	3170
2947.68	3184
2948.53	3140
2949.37	3176
2950.22	3156
2951.06	3132
2951.9	3192
2952.75	3144
2953.59	3130
2954.44	3130
2955.28	3162
2956.12	3114
2956.97	3088
2957.81	3056
2958.65	3102
2959.5	3110
2960.34	3118
2961.18	3024
2962.03	3060
2962.87	3080
2963.71	3054
2964.56	3006
2965.4	3040
2966.24	3082
2967.08	3012
2967.92	3076
2968.77	3068
2969.61	3056
2970.45	2968
2971.29	2970
2972.13	2998
2972.97	2974
2973.82	2998
2974.66	3008
2975.5	2982
2976.34	2948
2977.18	2966
2978.02	2946
2978.86	2976
2979.7	2972
2980.54	2926
2981.38	2954
2982.22	2930
2983.06	2900
2983.9	2908
2984.74	2954
2985.58	2964
2986.42	2824
2987.26	2944
2988.1	2866
2988.94	2838
2989.78	2858
2990.61	2882
2991.45	2854
2992.29	2856
2993.13	2840
2993.97	2830
2994.81	2862
2995.64	2792
2996.48	2778
2997.32	2836
2998.16	2792
2999	2898
2999.83	2842
