#Acq. time (s)=	10
#Accumulations=	1
#Range (cm-¹)=	200...3000
#Windows=	3
#Autofocus=	Off
#AutoExposure=	Off
#Spike filter=	Off
#Delay time (s)=	0
#Binning=	1
#Readout mode=	Signal
#DeNoise=	Off
#ICS correction=	Off
#Dark correction=	Off
#Inst. Process=	Off
#Instrument=	LabRAM HR Evol
#Detector=	Syncerity OE
#Objective=	x100_VIS
#Grating=	600 (500nm)
#ND Filter=	0.01%
#Laser=	633nm_Edge
#Hole=	30.0125
#Range=	Visible
#Project=	Omar
#Sample=	03-07-23
#Site=	nop
#Title=	inside_prf
#Remark=	
#Date=	03.07.2023 14:45
#Acquired=	03.07.2023 14:45:14
201.713	24
202.98	34
204.247	40
205.513	30
206.778	38
208.045	22
209.311	30
210.576	28
211.84	32
213.106	28
214.371	30
215.636	34
216.899	32
218.164	32
219.428	44
220.692	26
221.955	32
223.219	22
224.482	26
225.744	30
227.007	32
228.27	30
229.531	36
230.794	36
232.055	34
233.317	32
234.579	38
235.839	34
237.1	26
238.362	28
239.621	34
240.882	26
242.141	40
243.402	32
244.661	38
245.921	42
247.179	32
248.439	30
249.698	28
250.956	42
252.215	28
253.473	36
254.731	30
255.988	36
257.246	34
258.503	28
259.761	34
261.017	34
262.273	32
263.53	36
264.786	28
266.042	32
267.298	36
268.554	26
269.809	34
271.063	30
272.319	40
273.573	42
274.828	30
276.082	36
277.336	34
278.591	36
279.844	36
281.097	22
282.351	38
283.603	40
284.855	36
286.109	32
287.361	42
288.613	40
289.866	42
291.117	36
292.368	32
293.62	40
294.871	34
296.121	32
297.372	38
298.623	36
299.873	40
301.123	32
302.372	38
303.622	36
304.872	38
306.121	32
307.37	40
308.618	34
309.866	36
311.116	32
312.364	38
313.611	38
314.859	34
316.106	36
317.353	48
318.6	42
319.848	42
321.095	46
322.341	34
323.587	36
324.833	42
326.079	36
327.324	36
328.569	42
329.814	40
331.059	32
332.304	42
333.548	40
334.792	34
336.037	38
337.28	40
338.524	36
339.767	48
341.011	42
342.254	46
343.497	40
344.739	34
345.982	42
347.224	42
348.466	34
349.708	50
350.95	32
352.191	42
353.432	38
354.673	50
355.914	40
357.155	38
358.394	30
359.634	44
360.874	40
362.114	38
363.354	34
364.593	42
365.832	42
367.07	40
368.309	42
369.548	32
370.786	38
372.024	48
373.261	34
374.499	44
375.736	38
376.974	44
378.211	42
379.447	48
380.684	46
381.92	42
383.157	40
384.392	48
385.628	34
386.864	38
388.098	38
389.333	42
390.569	48
391.802	50
393.037	46
394.272	44
395.505	42
396.739	48
397.973	50
399.206	44
400.44	44
401.673	42
402.905	52
404.138	52
405.37	48
406.602	50
407.835	46
409.066	40
410.298	52
411.528	52
412.76	48
413.99	52
415.221	44
416.451	54
417.682	44
418.911	44
420.142	46
421.371	52
422.601	46
423.83	50
425.059	52
426.288	46
427.517	56
428.745	46
429.974	44
431.201	48
432.43	48
433.657	44
434.883	50
436.111	42
437.338	30
438.565	44
439.791	50
441.017	54
442.244	44
443.469	52
444.695	44
445.921	46
447.146	36
448.37	50
449.596	48
450.821	50
452.045	48
453.27	50
454.493	56
455.717	50
456.94	52
458.165	50
459.387	58
460.61	48
461.833	52
463.056	56
464.278	46
465.5	54
466.722	56
467.945	52
469.166	52
470.387	54
471.608	44
472.829	48
474.049	56
475.271	54
476.491	52
477.711	58
478.931	58
480.15	52
481.37	52
482.589	50
483.808	60
485.027	46
486.247	52
487.465	44
488.683	58
489.901	52
491.119	50
492.337	60
493.554	56
494.771	60
495.988	56
497.205	58
498.422	50
499.638	54
500.854	56
502.07	44
503.286	48
504.502	54
505.717	52
506.933	50
508.148	52
509.363	60
510.577	60
511.792	60
513.005	48
514.219	58
515.433	78
516.647	52
517.86	56
519.073	58
520.287	60
521.5	58
522.711	58
523.924	44
525.136	58
526.348	56
527.56	52
528.772	56
529.982	60
531.194	50
532.405	62
533.616	66
534.825	58
536.036	62
537.246	62
538.457	60
539.665	70
540.875	48
542.085	56
543.294	64
544.502	64
545.712	58
546.92	70
548.128	60
549.336	60
550.545	64
551.751	64
552.959	64
554.167	70
555.373	64
556.581	68
557.788	70
558.994	62
560.2	64
561.406	56
562.612	54
563.817	62
565.023	66
566.229	70
567.433	56
568.639	68
569.843	60
571.048	60
572.251	68
573.456	72
574.659	66
575.863	70
577.066	62
578.27	58
579.472	72
580.676	70
581.878	60
583.081	58
584.283	62
585.484	66
586.687	62
587.888	66
589.09	78
590.291	78
591.493	66
592.693	76
593.893	64
595.094	66
596.294	64
597.494	84
598.694	74
599.894	70
601.093	62
602.293	64
603.491	64
604.69	86
605.889	64
607.087	68
608.285	70
609.483	78
610.682	70
611.879	76
613.076	74
614.273	76
615.471	74
616.667	76
617.864	78
619.06	84
620.256	78
621.453	78
622.648	84
623.844	80
625.039	68
626.234	82
627.429	80
628.625	84
629.819	88
631.013	86
632.208	72
633.401	82
634.595	80
635.789	70
636.982	86
638.175	80
639.369	88
640.562	84
641.755	82
642.947	84
644.139	88
645.331	80
646.523	88
647.715	94
648.906	84
650.097	92
651.288	90
652.479	88
653.67	88
654.86	80
656.051	90
657.241	80
658.429	92
659.619	88
660.808	92
661.998	80
663.187	98
664.376	98
665.565	86
666.753	96
667.942	92
669.13	84
670.317	92
671.505	86
672.692	90
673.88	94
675.067	108
676.254	98
677.44	84
678.627	84
679.813	96
681	116
682.184	92
683.37	92
684.556	96
685.742	102
686.926	90
688.111	94
689.296	104
690.481	100
691.664	96
692.849	98
694.033	102
695.216	92
696.4	102
697.584	96
698.766	102
699.949	96
701.133	106
702.314	106
703.497	104
704.678	108
705.861	108
707.043	102
708.224	116
709.406	102
710.586	110
711.768	122
712.949	116
714.129	110
715.31	114
716.489	120
717.67	104
718.849	118
720.029	108
721.208	120
722.388	118
723.566	118
724.746	104
725.924	110
727.103	106
728.28	122
729.458	116
730.636	122
731.814	118
732.992	122
734.168	122
735.345	134
736.523	124
737.699	128
738.876	116
740.052	120
741.227	112
742.404	124
743.579	136
744.754	138
745.931	132
747.105	134
748.28	136
749.455	120
750.629	112
751.803	132
752.977	132
754.152	140
755.325	132
756.499	148
757.672	134
758.846	152
760.018	144
761.191	146
762.363	128
763.535	146
764.708	148
765.88	136
767.052	142
768.223	142
769.394	140
770.565	142
771.737	150
772.908	136
774.078	150
775.249	150
776.419	140
777.589	152
778.758	162
779.928	158
781.097	146
782.266	158
783.435	138
784.604	142
785.773	164
786.941	158
788.11	148
789.278	160
790.446	152
791.613	162
792.781	164
793.948	146
795.115	160
796.282	178
797.449	168
798.616	174
799.782	162
800.948	158
802.115	176
803.28	176
804.446	180
805.612	172
806.777	192
807.941	184
809.106	182
810.271	176
811.435	180
812.6	186
813.764	172
814.927	176
816.091	186
817.254	184
818.418	186
819.581	204
820.743	200
821.906	182
823.069	180
824.232	188
825.393	180
826.555	212
827.717	186
828.879	192
830.039	192
831.201	190
832.362	192
833.522	206
834.683	210
835.844	188
837.003	204
838.164	188
839.324	212
840.483	206
841.643	200
842.801	216
843.961	214
845.12	192
846.278	206
847.437	208
848.594	212
849.753	214
850.91	216
852.069	216
853.227	212
854.383	220
855.541	224
856.697	222
857.855	226
859.011	220
860.168	218
861.323	242
862.48	212
863.635	246
864.79	230
865.946	222
867.101	262
868.257	238
869.411	234
870.567	228
871.721	248
872.874	250
874.029	240
875.183	244
876.336	256
877.49	266
878.643	258
879.796	244
880.95	278
882.102	266
883.254	242
884.407	262
885.559	256
886.711	248
887.862	272
889.015	250
890.166	280
891.317	272
892.467	266
893.619	252
894.77	268
895.92	282
897.07	262
898.221	270
899.371	274
900.52	270
901.669	292
902.819	276
903.968	274
905.116	290
906.266	282
907.415	292
908.563	282
909.711	286
910.859	272
912.007	312
913.154	286
914.301	314
915.449	286
916.596	300
917.742	284
918.889	288
920.036	284
921.183	300
922.329	296
923.475	312
924.621	320
925.765	308
926.911	316
928.056	326
929.201	314
930.346	326
931.49	322
932.635	324
933.779	316
934.924	328
936.068	336
937.211	316
938.355	338
939.498	340
940.64	326
941.784	352
942.926	306
944.069	340
945.212	354
946.354	340
947.495	358
948.637	326
949.779	354
950.921	344
952.062	360
953.202	356
954.344	396
955.484	372
956.625	370
957.765	352
958.905	352
960.045	384
961.184	354
962.324	354
963.464	360
964.604	378
965.742	372
966.881	378
968.02	412
969.158	392
970.296	406
971.434	402
972.572	394
973.71	398
974.847	386
975.985	398
977.121	398
978.259	408
979.396	412
980.532	392
981.669	402
982.804	408
983.941	410
985.076	404
986.212	398
987.347	412
988.483	440
989.617	418
990.753	424
991.887	436
993.022	442
994.156	438
995.29	402
996.424	436
997.558	440
998.692	450
999.825	428
1000.96	436
1002.09	442
1003.22	436
1004.36	436
1005.49	480
1006.62	450
1007.75	476
1008.89	438
1010.02	452
1011.15	462
1012.28	456
1013.41	460
1014.54	482
1015.67	482
1016.8	472
1017.93	534
1019.07	466
1020.19	490
1021.32	494
1022.45	504
1023.58	496
1024.71	508
1025.84	482
1026.97	510
1028.1	486
1029.23	534
1030.36	514
1031.49	502
1032.61	520
1033.74	516
1034.87	510
1036	554
1037.12	512
1038.25	554
1039.38	522
1040.5	550
1041.63	556
1042.76	546
1043.88	546
1045.01	544
1046.14	548
1047.26	566
1048.39	548
1049.51	560
1050.64	570
1051.76	584
1052.89	584
1054.01	592
1055.14	556
1056.26	592
1057.38	566
1058.51	578
1059.63	586
1060.75	584
1061.88	575
1063	566
1064.12	578
1065.25	604
1066.37	598
1067.49	598
1068.61	636
1069.73	656
1070.86	602
1071.98	600
1073.1	630
1074.22	612
1075.34	640
1076.46	634
1077.58	642
1078.7	628
1079.82	644
1080.94	638
1082.06	640
1083.18	656
1084.3	646
1085.42	636
1086.54	640
1087.66	660
1088.78	656
1089.9	678
1091.02	634
1092.14	686
1093.25	658
1094.37	668
1095.49	668
1096.61	650
1097.72	656
1098.84	658
1099.96	650
1101.08	672
1102.19	668
1103.31	680
1104.43	670
1105.54	694
1106.66	684
1107.77	672
1108.89	714
1110	684
1111.12	674
1112.23	690
1113.35	688
1114.46	708
1115.58	716
1116.69	682
1117.81	702
1118.92	706
1120.03	732
1121.15	706
1122.26	718
1123.37	696
1124.49	724
1125.6	716
1126.71	756
1127.83	718
1128.94	750
1130.05	752
1131.16	746
1132.27	720
1133.39	728
1134.5	746
1135.61	768
1136.72	704
1137.83	742
1138.94	748
1140.05	726
1141.16	758
1142.27	738
1143.38	780
1144.49	762
1145.6	756
1146.71	738
1147.82	742
1148.93	762
1150.04	746
1151.15	786
1152.26	782
1153.36	764
1154.47	778
1155.58	770
1156.69	776
1157.8	736
1158.9	804
1160.01	778
1161.12	746
1162.22	782
1163.33	782
1164.44	756
1165.54	758
1166.65	776
1167.76	770
1168.86	782
1169.97	774
1171.07	780
1172.18	782
1173.28	812
1174.39	780
1175.49	796
1176.6	762
1177.7	752
1178.81	776
1179.91	800
1181.02	806
1182.12	770
1183.22	804
1184.33	790
1185.43	766
1186.53	750
1187.63	796
1188.74	812
1189.84	776
1190.94	750
1192.04	776
1193.15	762
1194.25	772
1195.35	774
1196.45	768
1197.55	800
1198.65	778
1199.75	738
1200.85	776
1201.95	762
1203.05	744
1204.16	778
1205.25	734
1206.35	756
1207.45	760
1208.55	774
1209.65	738
1210.75	752
1211.85	720
1212.95	744
1214.05	726
1215.15	754
1216.24	756
1217.34	750
1218.44	730
1219.54	692
1220.64	740
1221.73	744
1222.83	738
1223.93	732
1225.02	706
1226.12	728
1227.22	722
1228.31	704
1229.41	730
1230.5	726
1231.6	756
1232.7	732
1233.79	706
1234.89	720
1235.98	746
1237.08	722
1238.17	704
1239.26	700
1240.36	692
1241.45	734
1242.55	720
1243.64	706
1244.73	700
1245.83	676
1246.92	710
1248.01	716
1249.11	682
1250.2	684
1251.29	682
1252.38	698
1253.48	688
1254.57	664
1255.66	692
1256.75	654
1257.84	672
1258.93	662
1260.03	690
1261.12	674
1262.21	666
1263.3	674
1264.39	678
1265.48	652
1266.57	664
1267.66	662
1268.75	666
1269.84	660
1270.93	642
1272.02	642
1273.11	646
1274.19	668
1275.28	650
1276.37	640
1277.46	662
1278.55	616
1279.64	608
1280.72	608
1281.81	636
1282.9	606
1283.98	590.483
1285.07	625.064
1286.16	619.591
1287.25	606.61
1288.33	612.502
1289.42	588.832
1290.5	650.029
1291.59	610.903
1292.68	599.881
1293.76	600.966
1294.85	593.206
1295.93	586.137
1297.02	594.094
1298.1	557.799
1299.19	603.449
1300.27	591.499
1301.36	590.475
1302.44	566.997
1303.53	601.831
1304.61	588.475
1305.69	571.816
1306.78	589.349
1307.86	585.348
1308.94	579.579
1310.03	569.11
1311.11	587.056
1312.19	560.8
1313.27	560.004
1314.36	574.029
1315.44	560.748
1316.52	547.113
1317.6	554.115
1318.68	528.692
1319.77	567.193
1320.85	567.614
1321.93	548.505
1323.01	534.324
1324.09	541.494
1325.17	541.746
1326.25	553.096
1327.33	549.376
1328.41	537.722
1329.49	539.445
1330.57	526.585
1331.65	535.115
1332.73	531.608
1333.81	527.854
1334.89	520.977
1335.97	528.27
1337.04	503.033
1338.12	525.066
1339.2	512.276
1340.28	515.536
1341.36	513.01
1342.44	512.882
1343.51	519.85
1344.59	509.561
1345.67	504.718
1346.75	516.918
1347.82	483.77
1348.9	506.533
1349.98	482.176
1351.05	485.863
1352.13	488.813
1353.2	486.736
1354.28	503.003
1355.36	470.348
1356.43	488.239
1357.51	480.479
1358.58	475.247
1359.66	475.895
1360.73	477.853
1361.81	480.195
1362.88	484.719
1363.96	460.164
1365.03	489.224
1366.1	468.542
1367.18	473.988
1368.25	465.113
1369.33	457.073
1370.4	458.89
1371.47	468.632
1372.54	461.246
1373.62	474.468
1374.69	466.038
1375.76	466.55
1376.83	463.203
1377.91	453.472
1378.98	470.344
1380.05	411.23
1381.12	450.44
1382.19	459.779
1383.26	447.467
1384.34	427.57
1385.41	433.918
1386.48	444.725
1387.55	429.32
1388.62	428.324
1389.69	439.301
1390.76	435.556
1391.83	412.4
1392.9	432.694
1393.02	436
1394.1	418
1395.17	418
1396.25	438
1397.32	414
1398.4	436
1399.47	444
1400.55	416
1401.62	422
1402.69	408
1403.77	400
1404.84	418
1405.91	396
1406.99	418
1408.06	404
1409.13	406
1410.2	402
1411.27	404
1412.35	410
1413.42	428
1414.49	412
1415.56	386
1416.63	406
1417.7	396
1418.78	404
1419.85	388
1420.92	380
1421.99	374
1423.06	392
1424.13	376
1425.2	366
1426.27	382
1427.34	380
1428.41	382
1429.48	384
1430.55	370
1431.61	370
1432.68	370
1433.75	356
1434.82	374
1435.89	336
1436.96	390
1438.02	396
1439.09	392
1440.16	362
1441.23	374
1442.3	348
1443.36	362
1444.43	362
1445.5	348
1446.56	368
1447.63	368
1448.7	342
1449.76	372
1450.83	364
1451.89	346
1452.96	338
1454.02	370
1455.09	320
1456.15	334
1457.22	332
1458.28	352
1459.35	328
1460.41	340
1461.48	354
1462.54	332
1463.61	346
1464.67	346
1465.73	350
1466.8	336
1467.86	370
1468.92	336
1469.98	338
1471.05	338
1472.11	326
1473.17	332
1474.24	346
1475.3	322
1476.36	332
1477.42	350
1478.48	320
1479.54	334
1480.6	324
1481.67	330
1482.73	336
1483.79	338
1484.85	308
1485.91	322
1486.97	340
1488.03	338
1489.09	320
1490.15	310
1491.21	318
1492.27	308
1493.33	308
1494.38	330
1495.44	306
1496.5	300
1497.56	320
1498.62	302
1499.68	318
1500.74	302
1501.79	288
1502.85	300
1503.91	314
1504.97	310
1506.02	304
1507.08	310
1508.14	302
1509.2	306
1510.25	294
1511.31	314
1512.36	302
1513.42	308
1514.48	302
1515.53	300
1516.59	278
1517.64	290
1518.7	290
1519.75	290
1520.81	280
1521.86	282
1522.92	288
1523.97	298
1525.02	288
1526.08	302
1527.13	290
1528.19	300
1529.24	288
1530.29	262
1531.35	274
1532.4	294
1533.45	306
1534.51	272
1535.56	288
1536.61	292
1537.66	274
1538.72	316
1539.77	268
1540.82	286
1541.87	286
1542.92	294
1543.97	268
1545.02	286
1546.08	276
1547.13	290
1548.18	274
1549.23	288
1550.28	280
1551.33	286
1552.38	268
1553.43	258
1554.48	274
1555.53	266
1556.57	264
1557.62	268
1558.67	254
1559.72	272
1560.77	258
1561.82	282
1562.87	256
1563.92	262
1564.96	248
1566.01	266
1567.06	286
1568.11	256
1569.15	262
1570.2	262
1571.25	258
1572.29	266
1573.34	250
1574.39	268
1575.43	264
1576.48	250
1577.53	248
1578.57	250
1579.62	252
1580.66	278
1581.71	258
1582.75	254
1583.8	278
1584.84	240
1585.89	270
1586.93	248
1587.98	250
1589.02	240
1590.06	256
1591.11	228
1592.15	258
1593.2	252
1594.24	246
1595.28	238
1596.33	246
1597.37	272
1598.41	234
1599.45	262
1600.5	254
1601.54	234
1602.58	280
1603.62	224
1604.66	240
1605.7	258
1606.75	244
1607.79	264
1608.83	250
1609.87	238
1610.91	230
1611.95	250
1612.99	248
1614.03	254
1615.07	240
1616.11	234
1617.15	262
1618.19	250
1619.23	232
1620.27	248
1621.31	248
1622.35	242
1623.39	246
1624.43	248
1625.46	266
1626.5	238
1627.54	232
1628.58	248
1629.62	246
1630.65	254
1631.69	242
1632.73	246
1633.77	252
1634.8	236
1635.84	238
1636.88	230
1637.91	238
1638.95	242
1639.99	250
1641.02	242
1642.06	228
1643.09	250
1644.13	248
1645.16	234
1646.2	236
1647.23	222
1648.27	240
1649.3	256
1650.34	234
1651.37	222
1652.41	236
1653.44	246
1654.47	236
1655.51	226
1656.54	230
1657.57	222
1658.61	224
1659.64	234
1660.67	230
1661.71	236
1662.74	246
1663.77	242
1664.81	224
1665.84	248
1666.87	224
1667.9	244
1668.93	230
1669.96	246
1671	224
1672.03	236
1673.06	232
1674.09	226
1675.12	216
1676.15	240
1677.18	244
1678.21	230
1679.24	244
1680.27	222
1681.3	220
1682.33	238
1683.36	236
1684.39	248
1685.42	226
1686.45	226
1687.47	250
1688.5	222
1689.53	232
1690.56	232
1691.59	216
1692.62	220
1693.64	216
1694.67	214
1695.7	208
1696.73	228
1697.75	230
1698.78	208
1699.81	248
1700.83	228
1701.86	220
1702.89	220
1703.91	204
1704.94	214
1705.97	220
1706.99	222
1708.02	246
1709.04	238
1710.07	216
1711.09	234
1712.12	214
1713.14	216
1714.17	214
1715.19	220
1716.22	230
1717.24	218
1718.26	228
1719.29	224
1720.31	234
1721.33	226
1722.36	226
1723.38	222
1724.4	210
1725.43	222
1726.45	218
1727.47	218
1728.49	218
1729.52	214
1730.54	214
1731.56	210
1732.58	216
1733.6	228
1734.63	200
1735.65	208
1736.67	204
1737.69	226
1738.71	222
1739.73	218
1740.75	214
1741.77	198
1742.79	238
1743.81	238
1744.83	206
1745.85	234
1746.87	210
1747.89	220
1748.91	212
1749.93	224
1750.95	226
1751.97	220
1752.98	232
1754	222
1755.02	224
1756.04	218
1757.06	222
1758.07	230
1759.09	228
1760.11	214
1761.13	216
1762.14	204
1763.16	216
1764.18	208
1765.19	224
1766.21	224
1767.23	228
1768.24	202
1769.26	198
1770.28	220
1771.29	216
1772.31	216
1773.32	216
1774.34	206
1775.35	210
1776.37	210
1777.38	224
1778.4	220
1779.41	216
1780.43	210
1781.44	212
1782.45	222
1783.47	208
1784.48	214
1785.49	198
1786.51	218
1787.52	206
1788.53	212
1789.55	202
1790.56	220
1791.57	212
1792.58	198
1793.6	212
1794.61	220
1795.62	230
1796.63	210
1797.64	210
1798.66	244
1799.67	236
1800.68	204
1801.69	220
1802.7	204
1803.71	200
1804.72	196
1805.73	210
1806.74	220
1807.75	220
1808.76	214
1809.77	220
1810.78	218
1811.79	214
1812.8	220
1813.81	212
1814.82	214
1815.83	214
1816.84	206
1817.84	208
1818.85	212
1819.86	206
1820.87	224
1821.88	214
1822.88	214
1823.89	200
1824.9	208
1825.91	204
1826.91	196
1827.92	212
1828.93	214
1829.93	204
1830.94	216
1831.95	214
1832.95	226
1833.96	210
1834.97	206
1835.97	214
1836.98	216
1837.98	224
1838.99	214
1839.99	206
1841	194
1842	208
1843.01	210
1844.01	210
1845.02	202
1846.02	208
1847.02	212
1848.03	204
1849.03	208
1850.03	206
1851.04	212
1852.04	218
1853.04	208
1854.05	222
1855.05	216
1856.05	206
1857.05	222
1858.06	200
1859.06	228
1860.06	206
1861.06	220
1862.06	214
1863.07	216
1864.07	204
1865.07	224
1866.07	214
1867.07	224
1868.07	210
1869.07	210
1870.07	190
1871.07	200
1872.07	202
1873.07	198
1874.07	212
1875.07	206
1876.07	200
1877.07	210
1878.07	208
1879.07	198
1880.07	206
1881.07	204
1882.07	224
1883.06	188
1884.06	204
1885.06	216
1886.06	216
1887.06	202
1888.05	216
1889.05	214
1890.05	194
1891.05	206
1892.04	212
1893.04	226
1894.04	198
1895.03	212
1896.03	204
1897.03	210
1898.02	212
1899.02	200
1900.01	214
1901.01	208
1902	204
1903	210
1903.99	210
1904.99	186
1905.98	208
1906.98	216
1907.97	204
1908.97	202
1909.96	200
1910.96	208
1911.95	208
1912.94	192
1913.94	214
1914.93	212
1915.93	206
1916.92	178
1917.91	222
1918.9	222
1919.9	204
1920.89	212
1921.88	226
1922.87	218
1923.87	192
1924.86	208
1925.85	224
1926.84	200
1927.83	202
1928.82	204
1929.82	208
1930.81	188
1931.8	204
1932.79	208
1933.78	216
1934.77	202
1935.76	212
1936.75	202
1937.74	206
1938.73	206
1939.72	208
1940.71	214
1941.7	208
1942.69	202
1943.68	202
1944.67	198
1945.65	194
1946.64	202
1947.63	196
1948.62	212
1949.61	218
1950.6	206
1951.58	204
1952.57	190
1953.56	210
1954.55	196
1955.53	200
1956.52	202
1957.51	212
1958.5	218
1959.48	200
1960.47	188
1961.45	206
1962.44	220
1963.43	194
1964.41	216
1965.4	202
1966.38	216
1967.37	204
1968.35	238
1969.34	186
1970.32	188
1971.31	190
1972.29	212
1973.28	202
1974.26	200
1975.25	204
1976.23	218
1977.22	208
1978.2	228
1979.18	190
1980.17	226
1981.15	194
1982.13	192
1983.12	184
1984.1	198
1985.08	202
1986.06	204
1987.05	202
1988.03	200
1989.01	196
1989.99	202
1990.97	212
1991.96	198
1992.94	204
1993.92	206
1994.9	208
1995.88	188
1996.86	190
1997.84	194
1998.82	198
1999.8	212
2000.78	198
2001.76	200
2002.74	202
2003.72	212
2004.7	202
2005.68	212
2006.66	200
2007.64	204
2008.62	186
2009.6	200
2010.58	204
2011.56	192
2012.54	202
2013.51	196
2014.49	206
2015.47	190
2016.45	198
2017.43	200
2018.4	204
2019.38	196
2020.36	194
2021.34	202
2022.31	202
2023.29	190
2024.27	196
2025.24	196
2026.22	196
2027.2	198
2028.17	199
2029.15	200
2030.12	198
2031.1	208
2032.07	208
2033.05	216
2034.03	216
2035	200
2035.98	216
2036.95	204
2037.93	194
2038.9	194
2039.87	196
2040.85	190
2041.82	204
2042.8	184
2043.77	200
2044.74	194
2045.72	200
2046.69	196
2047.66	200
2048.64	184
2049.61	178
2050.58	198
2051.55	204
2052.53	204
2053.5	190
2054.47	200
2055.44	196
2056.41	194
2057.39	216
2058.36	204
2059.33	182
2060.3	194
2061.27	204
2062.24	206
2063.21	202
2064.18	198
2065.15	194
2066.12	208
2067.09	198
2068.06	188
2069.03	200
2070	182
2070.97	188
2071.94	202
2072.91	204
2073.88	204
2074.85	204
2075.82	204
2076.79	188
2077.76	208
2078.73	186
2079.69	200
2080.66	204
2081.63	196
2082.6	196
2083.56	186
2084.53	208
2085.5	182
2086.47	190
2087.43	192
2088.4	178
2089.37	190
2090.33	194
2091.3	198
2092.27	196
2093.23	212
2094.2	194
2095.17	204
2096.13	194
2097.1	206
2098.06	194
2099.03	204
2099.99	202
2100.96	206
2101.92	194
2102.89	190
2103.85	202
2104.82	190
2105.78	198
2106.74	188
2107.71	186
2108.67	204
2109.64	186
2110.6	198
2111.56	200
2112.53	190
2113.49	198
2114.45	190
2115.41	202
2116.38	186
2117.34	192
2118.3	190
2119.26	180
2120.23	198
2121.19	194
2122.15	194
2123.11	192
2124.07	184
2125.03	200
2126	188
2126.96	206
2127.92	188
2128.88	194
2129.84	186
2130.8	196
2131.76	202
2132.72	210
2133.68	196
2134.64	190
2135.6	190
2136.56	184
2137.52	192
2138.48	180
2139.44	178
2140.4	196
2141.35	190
2142.31	198
2143.27	178
2144.23	168
2145.19	180
2146.15	208
2147.1	196
2148.06	184
2149.02	188
2149.98	182
2150.94	194
2151.89	190
2152.85	186
2153.81	190
2154.76	196
2155.72	186
2156.68	174
2157.63	198
2158.59	194
2159.55	200
2160.5	192
2161.46	198
2162.41	184
2163.37	188
2164.32	176
2165.28	192
2166.23	202
2167.19	202
2168.14	208
2169.1	190
2170.05	204
2171.01	198
2171.96	180
2172.91	198
2173.87	200
2174.82	202
2175.78	178
2176.73	178
2177.68	208
2178.64	190
2179.59	186
2180.54	198
2181.49	198
2182.45	186
2183.4	186
2184.35	188
2185.3	194
2186.26	200
2187.21	202
2188.16	208
2189.11	214
2190.06	190
2191.01	182
2191.96	188
2192.92	198
2193.87	192
2194.82	176
2195.77	190
2196.72	194
2197.67	190
2198.62	182
2199.57	178
2200.52	186
2201.47	182
2202.42	182
2203.37	182
2204.32	190
2205.27	182
2206.22	182
2207.16	202
2208.11	188
2209.06	172
2210.01	188
2210.96	190
2211.91	168
2212.85	212
2213.8	194
2214.75	194
2215.7	202
2216.64	194
2217.59	186
2218.54	184
2219.49	184
2220.43	192
2221.38	184
2222.33	200
2223.27	194.035
2224.22	197.845
2225.16	198.5
2226.11	185.148
2227.06	186.211
2228	189.074
2228.95	184.618
2229.89	198.247
2230.84	198.525
2231.78	183.21
2232.73	185.464
2233.67	188.232
2234.62	183.748
2235.56	186.571
2236.51	185.785
2237.45	195.257
2238.4	183.687
2239.34	180.45
2240.28	190.927
2241.23	173.011
2242.17	190.406
2243.11	189.695
2244.06	180.83
2245	181.612
2245.94	210.111
2246.89	194.955
2247.83	190.269
2248.77	184.069
2249.71	191.952
2250.66	192.274
2251.6	193.169
2252.54	183.588
2253.48	175.732
2254.42	187.331
2255.37	195.934
2256.31	184.395
2257.25	188.128
2258.19	192.903
2259.13	193.036
2260.07	199.47
2261.01	193.56
2261.95	187.657
2262.89	194.219
2263.83	201.54
2264.77	193.717
2265.71	200.543
2266.65	184.978
2267.59	204.624
2268.53	197.036
2269.47	193.053
2270.41	191.982
2271.35	192.762
2272.29	192.008
2273.23	189.747
2274.17	184.473
2275.1	195.824
2276.04	201.503
2276.98	188.795
2277.92	190.129
2278.86	196.969
2279.8	193.736
2280.73	191.065
2281.67	195.704
2282.61	195.123
2283.55	188.464
2284.48	185.361
2285.42	194.196
2286.36	197.065
2287.29	189.866
2288.23	193.546
2289.17	194.043
2290.1	200.433
2291.04	188.602
2291.98	181.957
2292.91	181.418
2293.85	192.245
2294.78	194.143
2295.72	192.127
2296.65	184.278
2297.59	193.646
2298.52	196.72
2299.46	198.091
2300.39	197.048
2301.33	190.392
2302.26	188.814
2303.2	189.19
2304.13	195.877
2305.06	199.181
2306	199.383
2306.93	200.616
2307.87	195.414
2308.8	192.07
2309.73	189.355
2310.67	194.798
2311.6	199.704
2312.53	193.585
2313.46	193.679
2314.4	188.383
2315.33	184.21
2316.26	197.894
2316.69	208
2317.62	184
2318.56	198
2319.5	200
2320.43	182
2321.37	200
2322.31	180
2323.24	208
2324.18	196
2325.12	166
2326.05	200
2326.99	176
2327.92	194
2328.86	188
2329.79	196
2330.73	202
2331.66	172
2332.6	180
2333.53	184
2334.47	188
2335.4	186
2336.34	192
2337.27	186
2338.2	182
2339.14	198
2340.07	186
2341.01	192
2341.94	182
2342.87	198
2343.81	184
2344.74	182
2345.67	176
2346.6	190
2347.54	184
2348.47	190
2349.4	206
2350.33	180
2351.27	190
2352.2	194
2353.13	196
2354.06	198
2354.99	190
2355.93	200
2356.86	186
2357.79	188
2358.72	190
2359.65	186
2360.58	182
2361.51	198
2362.44	188
2363.37	188
2364.3	172
2365.23	184
2366.16	188
2367.09	184
2368.02	184
2368.95	194
2369.88	194
2370.81	182
2371.74	176
2372.67	184
2373.6	184
2374.52	184
2375.45	176
2376.38	182
2377.31	178
2378.24	182
2379.17	172
2380.09	198
2381.02	188
2381.95	184
2382.88	180
2383.8	186
2384.73	192
2385.66	188
2386.58	194
2387.51	176
2388.44	176
2389.36	180
2390.29	172
2391.22	170
2392.14	188
2393.07	184
2393.99	196
2394.92	190
2395.85	176
2396.77	186
2397.7	174
2398.62	182
2399.55	184
2400.47	172
2401.4	180
2402.32	178
2403.25	188
2404.17	170
2405.09	172
2406.02	198
2406.94	172
2407.86	162
2408.79	170
2409.71	186
2410.63	176
2411.56	176
2412.48	168
2413.4	174
2414.33	174
2415.25	154
2416.17	178
2417.09	160
2418.02	172
2418.94	172
2419.86	194
2420.78	180
2421.7	174
2422.63	162
2423.55	186
2424.47	178
2425.39	170
2426.31	156
2427.23	168
2428.15	164
2429.07	182
2429.99	168
2430.91	160
2431.83	190
2432.75	168
2433.67	166
2434.59	174
2435.51	166
2436.43	168
2437.35	172
2438.27	182
2439.19	164
2440.11	170
2441.03	180
2441.95	162
2442.86	154
2443.78	170
2444.7	160
2445.62	162
2446.54	162
2447.46	168
2448.37	164
2449.29	168
2450.21	170
2451.13	164
2452.04	166
2452.96	162
2453.88	164
2454.79	170
2455.71	156
2456.63	158
2457.54	160
2458.46	170
2459.38	162
2460.29	160
2461.21	160
2462.12	160
2463.04	170
2463.95	166
2464.87	162
2465.78	162
2466.7	154
2467.61	176
2468.53	172
2469.44	162
2470.36	158
2471.27	160
2472.19	166
2473.1	150
2474.01	140
2474.93	154
2475.84	150
2476.76	152
2477.67	130
2478.58	152
2479.5	160
2480.41	158
2481.32	168
2482.23	154
2483.15	170
2484.06	166
2484.97	154
2485.88	158
2486.8	150
2487.71	146
2488.62	154
2489.53	144
2490.44	156
2491.35	176
2492.26	152
2493.18	160
2494.09	150
2495	140
2495.91	164
2496.82	152
2497.73	148
2498.64	166
2499.55	174
2500.46	158
2501.37	150
2502.28	160
2503.19	150
2504.1	158
2505.01	162
2505.92	136
2506.83	146
2507.74	154
2508.65	148
2509.55	154
2510.46	148
2511.37	146
2512.28	152
2513.19	162
2514.09	156
2515	160
2515.91	152
2516.82	148
2517.73	162
2518.63	152
2519.54	140
2520.45	150
2521.35	138
2522.26	142
2523.17	142
2524.07	138
2524.98	146
2525.89	140
2526.79	150
2527.7	150
2528.6	138
2529.51	146
2530.42	136
2531.32	126
2532.23	154
2533.13	154
2534.04	150
2534.94	156
2535.85	154
2536.75	140
2537.66	144
2538.56	144
2539.47	142
2540.37	132
2541.27	132
2542.18	140
2543.08	156
2543.98	142
2544.89	146
2545.79	130
2546.7	146
2547.6	146
2548.5	146
2549.4	152
2550.31	126
2551.21	128
2552.11	130
2553.01	130
2553.92	134
2554.82	136
2555.72	140
2556.62	150
2557.52	128
2558.42	140
2559.33	144
2560.23	136
2561.13	128
2562.03	142
2562.93	138
2563.83	142
2564.73	120
2565.63	134
2566.53	144
2567.43	134
2568.33	130
2569.23	128
2570.13	144
2571.03	144
2571.93	134
2572.83	132
2573.73	138
2574.63	130
2575.53	132
2576.43	122
2577.33	136
2578.22	126
2579.12	120
2580.02	124
2580.92	132
2581.82	140
2582.72	126
2583.61	150
2584.51	128
2585.41	126
2586.31	132
2587.2	140
2588.1	122
2589	150
2589.89	136
2590.79	126
2591.69	118
2592.58	142
2593.48	120
2594.38	136
2595.27	132
2596.17	126
2597.06	124
2597.96	130
2598.86	142
2599.75	128
2600.65	134
2601.54	128
2602.44	128
2603.33	114
2604.23	126
2605.12	126
2606.02	140
2606.91	126
2607.81	134
2608.7	126
2609.59	112
2610.49	118
2611.38	124
2612.27	116
2613.17	128
2614.06	112
2614.95	120
2615.85	126
2616.74	140
2617.63	122
2618.53	122
2619.42	124
2620.31	110
2621.2	130
2622.1	122
2622.99	130
2623.88	116
2624.77	120
2625.66	116
2626.55	122
2627.45	134
2628.34	114
2629.23	130
2630.12	138
2631.01	132
2631.9	112
2632.79	128
2633.68	118
2634.57	120
2635.46	128
2636.35	116
2637.24	122
2638.13	116
2639.02	118
2639.91	112
2640.8	126
2641.69	122
2642.58	114
2643.47	122
2644.36	112
2645.25	116
2646.14	108
2647.02	116
2647.91	112
2648.8	120
2649.69	116
2650.58	104
2651.46	130
2652.35	114
2653.24	106
2654.13	100
2655.01	116
2655.9	136
2656.79	114
2657.68	108
2658.56	120
2659.45	124
2660.34	122
2661.22	120
2662.11	110
2662.99	114
2663.88	110
2664.77	122
2665.65	112
2666.54	112
2667.42	104
2668.31	102
2669.2	124
2670.08	112
2670.96	108
2671.85	116
2672.73	108
2673.62	120
2674.5	122
2675.39	114
2676.27	112
2677.16	102
2678.04	98
2678.93	110
2679.81	120
2680.69	122
2681.58	98
2682.46	106
2683.34	100
2684.23	108
2685.11	114
2685.99	106
2686.87	116
2687.76	100
2688.64	108
2689.52	116
2690.4	94
2691.28	110
2692.17	114
2693.05	108
2693.93	132
2694.81	100
2695.69	102
2696.57	108
2697.46	110
2698.34	104
2699.22	110
2700.1	90
2700.98	106
2701.86	104
2702.74	110
2703.62	98
2704.5	94
2705.38	106
2706.26	106
2707.14	108
2708.02	102
2708.9	106
2709.78	88
2710.66	98
2711.54	106
2712.42	104
2713.3	96
2714.17	98
2715.05	112
2715.93	98
2716.81	102
2717.69	96
2718.57	102
2719.44	100
2720.32	100
2721.2	98
2722.08	104
2722.95	98
2723.83	90
2724.71	104
2725.59	94
2726.46	98
2727.34	110
2728.22	94
2729.09	94
2729.97	100
2730.85	102
2731.72	92
2732.6	96
2733.47	106
2734.35	94
2735.23	98
2736.1	98
2736.98	88
2737.85	100
2738.73	92
2739.6	98
2740.48	108
2741.35	102
2742.23	86
2743.1	94
2743.98	108
2744.85	94
2745.72	96
2746.6	96
2747.47	94
2748.35	96
2749.22	92
2750.09	94
2750.97	88
2751.84	94
2752.71	96
2753.59	96
2754.46	84
2755.33	86
2756.2	100
2757.08	88
2757.95	90
2758.82	78
2759.69	90
2760.57	98
2761.44	102
2762.31	74
2763.18	100
2764.05	90
2764.92	90
2765.79	92
2766.67	92
2767.54	86
2768.41	86
2769.28	80
2770.15	94
2771.02	80
2771.89	82
2772.76	88
2773.63	100
2774.5	92
2775.37	88
2776.24	82
2777.11	84
2777.98	88
2778.85	96
2779.72	84
2780.59	86
2781.46	90
2782.32	84
2783.19	90
2784.06	88
2784.93	82
2785.8	84
2786.67	90
2787.53	88
2788.4	90
2789.27	86
2790.14	78
2791.01	84
2791.87	92
2792.74	92
2793.61	80
2794.47	96
2795.34	88
2796.21	82
2797.07	78
2797.94	82
2798.81	72
2799.67	86
2800.54	84
2801.41	74
2802.27	78
2803.14	90
2804	86
2804.87	88
2805.74	82
2806.6	88
2807.47	74
2808.33	76
2809.2	86
2810.06	80
2810.93	86
2811.79	82
2812.65	86
2813.52	74
2814.38	82
2815.25	70
2816.11	84
2816.98	84
2817.84	80
2818.7	74
2819.56	76
2820.43	72
2821.29	86
2822.16	62
2823.02	80
2823.88	82
2824.74	80
2825.61	86
2826.47	76
2827.33	82
2828.19	88
2829.05	72
2829.92	66
2830.78	72
2831.64	78
2832.5	76
2833.36	84
2834.23	78
2835.09	76
2835.95	74
2836.81	72
2837.67	82
2838.53	84
2839.39	76
2840.25	72
2841.11	70
2841.97	76
2842.83	76
2843.69	70
2844.55	78
2845.41	66
2846.27	72
2847.13	74
2847.99	68
2848.85	74
2849.71	68
2850.57	62
2851.43	84
2852.28	74
2853.14	82
2854	74
2854.86	74
2855.72	58
2856.58	72
2857.43	72
2858.29	70
2859.15	74
2860.01	78
2860.86	68
2861.72	64
2862.58	66
2863.44	74
2864.29	78
2865.15	70
2866.01	82
2866.86	76
2867.72	70
2868.58	66
2869.43	72
2870.29	76
2871.14	80
2872	70
2872.86	80
2873.71	71
2874.57	62
2875.42	64
2876.28	70
2877.13	64
2877.99	74
2878.84	74
2879.7	68
2880.55	70
2881.41	72
2882.26	66
2883.11	82
2883.97	74
2884.82	70
2885.68	72
2886.53	76
2887.39	66
2888.24	66
2889.09	72
2889.94	80
2890.8	72
2891.65	74
2892.5	58
2893.36	68
2894.21	62
2895.06	66
2895.91	76
2896.77	76
2897.62	76
2898.47	72
2899.32	78
2900.17	66
2901.03	66
2901.88	68
2902.73	70
2903.58	64
2904.43	66
2905.28	72
2906.13	58
2906.98	78
2907.84	76
2908.69	70
2909.54	68
2910.39	66
2911.24	70
2912.09	60
2912.94	66
2913.79	64
2914.64	62
2915.49	74
2916.34	70
2917.19	64
2918.03	56
2918.88	68
2919.73	66
2920.58	62
2921.43	62
2922.28	76
2923.13	64
2923.98	64
2924.82	64
2925.67	72
2926.52	62
2927.37	70
2928.22	72
2929.06	72
2929.91	68
2930.76	70
2931.61	62
2932.45	64
2933.3	66
2934.15	60
2934.99	66
2935.84	62
2936.69	70
2937.53	64
2938.38	58
2939.23	58
2940.07	66
2940.92	66
2941.76	74
2942.61	62
2943.46	70
2944.3	62
2945.15	64
2945.99	56
2946.84	60
2947.68	56
2948.53	62
2949.37	54
2950.22	62
2951.06	62
2951.9	64
2952.75	66
2953.59	62
2954.44	60
2955.28	58
2956.12	56
2956.97	60
2957.81	72
2958.65	54
2959.5	46
2960.34	58
2961.18	64
2962.03	56
2962.87	60
2963.71	58
2964.56	58
2965.4	64
2966.24	56
2967.08	60
2967.92	56
2968.77	56
2969.61	60
2970.45	56
2971.29	70
2972.13	60
2972.97	58
2973.82	62
2974.66	56
2975.5	50
2976.34	64
2977.18	64
2978.02	54
2978.86	66
2979.7	66
2980.54	60
2981.38	58
2982.22	70
2983.06	64
2983.9	60
2984.74	56
2985.58	56
2986.42	48
2987.26	56
2988.1	54
2988.94	60
2989.78	70
2990.61	60
2991.45	58
2992.29	54
2993.13	62
2993.97	62
2994.81	48
2995.64	60
2996.48	56
2997.32	56
2998.16	56
2999	54
2999.83	56
