#Acq. time (s)=	10
#Accumulations=	1
#Range (cm-¹)=	200...3000
#Windows=	3
#Autofocus=	Off
#AutoExposure=	Off
#Spike filter=	Off
#Delay time (s)=	0
#Binning=	1
#Readout mode=	Signal
#DeNoise=	Off
#ICS correction=	Off
#Dark correction=	Off
#Inst. Process=	Off
#Instrument=	LabRAM HR Evol
#Detector=	Syncerity OE
#Objective=	x100_VIS
#Grating=	600 (500nm)
#ND Filter=	0.01%
#Laser=	633nm_Edge
#Hole=	30.0125
#Range=	Visible
#Project=	Omar
#Sample=	03-07-23
#Site=	nop
#Title=	inside_prf
#Remark=	
#Date=	03.07.2023 14:47
#Acquired=	03.07.2023 14:47:56
201.713	26
202.98	26
204.247	34
205.513	24
206.778	32
208.045	38
209.311	30
210.576	32
211.84	24
213.106	26
214.371	32
215.636	24
216.899	34
218.164	26
219.428	26
220.692	28
221.955	38
223.219	30
224.482	30
225.744	32
227.007	28
228.27	32
229.531	30
230.794	34
232.055	26
233.317	32
234.579	38
235.839	28
237.1	32
238.362	32
239.621	30
240.882	32
242.141	28
243.402	24
244.661	28
245.921	32
247.179	34
248.439	24
249.698	30
250.956	24
252.215	28
253.473	34
254.731	32
255.988	28
257.246	28
258.503	28
259.761	30
261.017	22
262.273	30
263.53	26
264.786	26
266.042	32
267.298	30
268.554	26
269.809	26
271.063	30
272.319	30
273.573	24
274.828	26
276.082	26
277.336	28
278.591	32
279.844	30
281.097	32
282.351	28
283.603	32
284.855	24
286.109	30
287.361	32
288.613	36
289.866	30
291.117	28
292.368	28
293.62	28
294.871	24
296.121	26
297.372	32
298.623	30
299.873	32
301.123	32
302.372	28
303.622	32
304.872	28
306.121	30
307.37	36
308.618	38
309.866	22
311.116	30
312.364	30
313.611	28
314.859	34
316.106	36
317.353	32
318.6	34
319.848	28
321.095	30
322.341	38
323.587	30
324.833	32
326.079	34
327.324	36
328.569	26
329.814	40
331.059	28
332.304	32
333.548	30
334.792	26
336.037	40
337.28	28
338.524	40
339.767	32
341.011	36
342.254	32
343.497	32
344.739	34
345.982	34
347.224	26
348.466	36
349.708	28
350.95	26
352.191	42
353.432	30
354.673	36
355.914	36
357.155	30
358.394	28
359.634	34
360.874	40
362.114	36
363.354	38
364.593	34
365.832	38
367.07	36
368.309	32
369.548	28
370.786	32
372.024	32
373.261	34
374.499	30
375.736	26
376.974	38
378.211	36
379.447	28
380.684	26
381.92	26
383.157	32
384.392	30
385.628	30
386.864	30
388.098	30
389.333	44
390.569	32
391.802	36
393.037	34
394.272	38
395.505	34
396.739	32
397.973	38
399.206	32
400.44	28
401.673	26
402.905	34
404.138	40
405.37	36
406.602	32
407.835	40
409.066	34
410.298	30
411.528	30
412.76	36
413.99	38
415.221	32
416.451	32
417.682	38
418.911	36
420.142	34
421.371	32
422.601	40
423.83	28
425.059	30
426.288	38
427.517	36
428.745	34
429.974	36
431.201	34
432.43	34
433.657	34
434.883	34
436.111	44
437.338	42
438.565	36
439.791	40
441.017	42
442.244	32
443.469	28
444.695	36
445.921	34
447.146	30
448.37	40
449.596	32
450.821	42
452.045	32
453.27	40
454.493	38
455.717	32
456.94	38
458.165	36
459.387	28
460.61	30
461.833	36
463.056	38
464.278	42
465.5	42
466.722	38
467.945	34
469.166	38
470.387	34
471.608	38
472.829	38
474.049	40
475.271	26
476.491	40
477.711	42
478.931	34
480.15	36
481.37	40
482.589	38
483.808	40
485.027	52
486.247	42
487.465	38
488.683	46
489.901	42
491.119	46
492.337	36
493.554	44
494.771	42
495.988	40
497.205	42
498.422	40
499.638	40
500.854	38
502.07	40
503.286	44
504.502	46
505.717	38
506.933	36
508.148	38
509.363	54
510.577	44
511.792	38
513.005	42
514.219	52
515.433	36
516.647	46
517.86	30
519.073	44
520.287	42
521.5	46
522.711	36
523.924	36
525.136	34
526.348	40
527.56	34
528.772	38
529.982	40
531.194	38
532.405	42
533.616	36
534.825	32
536.036	42
537.246	46
538.457	36
539.665	40
540.875	48
542.085	42
543.294	40
544.502	44
545.712	40
546.92	42
548.128	38
549.336	40
550.545	34
551.751	32
552.959	36
554.167	46
555.373	36
556.581	38
557.788	40
558.994	42
560.2	46
561.406	42
562.612	40
563.817	38
565.023	44
566.229	42
567.433	48
568.639	40
569.843	48
571.048	36
572.251	52
573.456	42
574.659	38
575.863	40
577.066	46
578.27	42
579.472	42
580.676	44
581.878	42
583.081	42
584.283	48
585.484	44
586.687	44
587.888	38
589.09	48
590.291	46
591.493	38
592.693	50
593.893	46
595.094	46
596.294	44
597.494	50
598.694	46
599.894	44
601.093	38
602.293	40
603.491	40
604.69	46
605.889	40
607.087	52
608.285	50
609.483	50
610.682	42
611.879	46
613.076	44
614.273	48
615.471	48
616.667	56
617.864	48
619.06	46
620.256	40
621.453	56
622.648	46
623.844	52
625.039	40
626.234	42
627.429	44
628.625	48
629.819	48
631.013	50
632.208	58
633.401	48
634.595	48
635.789	46
636.982	54
638.175	54
639.369	50
640.562	46
641.755	56
642.947	54
644.139	46
645.331	50
646.523	54
647.715	48
648.906	50
650.097	54
651.288	56
652.479	48
653.67	48
654.86	50
656.051	54
657.241	42
658.429	50
659.619	52
660.808	48
661.998	46
663.187	58
664.376	52
665.565	54
666.753	58
667.942	52
669.13	54
670.317	62
671.505	54
672.692	54
673.88	48
675.067	48
676.254	52
677.44	54
678.627	56
679.813	60
681	60
682.184	52
683.37	62
684.556	64
685.742	54
686.926	52
688.111	60
689.296	58
690.481	60
691.664	54
692.849	56
694.033	62
695.216	60
696.4	54
697.584	60
698.766	54
699.949	62
701.133	56
702.314	68
703.497	56
704.678	54
705.861	62
707.043	52
708.224	66
709.406	58
710.586	60
711.768	64
712.949	60
714.129	60
715.31	58
716.489	58
717.67	72
718.849	66
720.029	60
721.208	56
722.388	52
723.566	62
724.746	72
725.924	62
727.103	62
728.28	66
729.458	68
730.636	58
731.814	58
732.992	54
734.168	62
735.345	64
736.523	68
737.699	64
738.876	66
740.052	60
741.227	66
742.404	62
743.579	62
744.754	72
745.931	60
747.105	64
748.28	66
749.455	60
750.629	72
751.803	76
752.977	76
754.152	74
755.325	64
756.499	76
757.672	74
758.846	72
760.018	72
761.191	68
762.363	68
763.535	62
764.708	74
765.88	80
767.052	80
768.223	88
769.394	76
770.565	84
771.737	62
772.908	78
774.078	72
775.249	76
776.419	72
777.589	74
778.758	68
779.928	80
781.097	62
782.266	76
783.435	76
784.604	74
785.773	68
786.941	84
788.11	82
789.278	76
790.446	66
791.613	80
792.781	80
793.948	84
795.115	80
796.282	82
797.449	74
798.616	78
799.782	92
800.948	82
802.115	80
803.28	84
804.446	70
805.612	82
806.777	88
807.941	86
809.106	74
810.271	82
811.435	90
812.6	82
813.764	100
814.927	84
816.091	82
817.254	80
818.418	78
819.581	92
820.743	88
821.906	82
823.069	88
824.232	84
825.393	94
826.555	82
827.717	86
828.879	76
830.039	84
831.201	92
832.362	94
833.522	94
834.683	86
835.844	96
837.003	90
838.164	100
839.324	84
840.483	90
841.643	94
842.801	86
843.961	98
845.12	90
846.278	92
847.437	80
848.594	104
849.753	102
850.91	102
852.069	90
853.227	102
854.383	108
855.541	98
856.697	96
857.855	108
859.011	96
860.168	106
861.323	98
862.48	96
863.635	102
864.79	96
865.946	104
867.101	116
868.257	110
869.411	100
870.567	104
871.721	114
872.874	96
874.029	122
875.183	130
876.336	116
877.49	102
878.643	112
879.796	100
880.95	112
882.102	114
883.254	106
884.407	110
885.559	110
886.711	110
887.862	112
889.015	118
890.166	108
891.317	114
892.467	98
893.619	104
894.77	114
895.92	106
897.07	106
898.221	120
899.371	120
900.52	104
901.669	112
902.819	124
903.968	130
905.116	116
906.266	122
907.415	128
908.563	126
909.711	104
910.859	140
912.007	124
913.154	118
914.301	122
915.449	124
916.596	120
917.742	124
918.889	120
920.036	116
921.183	122
922.329	124
923.475	128
924.621	120
925.765	140
926.911	124
928.056	128
929.201	128
930.346	130
931.49	134
932.635	130
933.779	134
934.924	132
936.068	134
937.211	140
938.355	134
939.498	124
940.64	138
941.784	146
942.926	128
944.069	146
945.212	134
946.354	134
947.495	146
948.637	140
949.779	156
950.921	142
952.062	142
953.202	156
954.344	140
955.484	162
956.625	150
957.765	156
958.905	154
960.045	148
961.184	148
962.324	156
963.464	144
964.604	150
965.742	154
966.881	158
968.02	166
969.158	158
970.296	150
971.434	150
972.572	142
973.71	158
974.847	158
975.985	142
977.121	156
978.259	154
979.396	152
980.532	168
981.669	156
982.804	160
983.941	158
985.076	162
986.212	162
987.347	162
988.483	142
989.617	160
990.753	172
991.887	170
993.022	174
994.156	162
995.29	162
996.424	166
997.558	168
998.692	180
999.825	182
1000.96	158
1002.09	190
1003.22	164
1004.36	186
1005.49	178
1006.62	170
1007.75	192
1008.89	182
1010.02	176
1011.15	166
1012.28	176
1013.41	172
1014.54	194
1015.67	170
1016.8	188
1017.93	192
1019.07	192
1020.19	188
1021.32	180
1022.45	198
1023.58	198
1024.71	178
1025.84	178
1026.97	186
1028.1	200
1029.23	196
1030.36	218
1031.49	196
1032.61	198
1033.74	204
1034.87	196
1036	196
1037.12	198
1038.25	196
1039.38	214
1040.5	200
1041.63	196
1042.76	216
1043.88	200
1045.01	204
1046.14	202
1047.26	220
1048.39	202
1049.51	202
1050.64	208
1051.76	208
1052.89	216
1054.01	232
1055.14	212
1056.26	216
1057.38	220
1058.51	224
1059.63	212
1060.75	230
1061.88	227
1063	224
1064.12	210
1065.25	230
1066.37	228
1067.49	230
1068.61	224
1069.73	240
1070.86	226
1071.98	250
1073.1	238
1074.22	218
1075.34	242
1076.46	206
1077.58	224
1078.7	228
1079.82	250
1080.94	232
1082.06	244
1083.18	226
1084.3	238
1085.42	248
1086.54	234
1087.66	252
1088.78	244
1089.9	242
1091.02	238
1092.14	234
1093.25	262
1094.37	234
1095.49	250
1096.61	256
1097.72	238
1098.84	250
1099.96	238
1101.08	256
1102.19	254
1103.31	240
1104.43	232
1105.54	242
1106.66	240
1107.77	248
1108.89	254
1110	260
1111.12	264
1112.23	244
1113.35	256
1114.46	258
1115.58	260
1116.69	252
1117.81	268
1118.92	252
1120.03	272
1121.15	250
1122.26	268
1123.37	250
1124.49	282
1125.6	270
1126.71	288
1127.83	272
1128.94	280
1130.05	262
1131.16	292
1132.27	262
1133.39	260
1134.5	272
1135.61	306
1136.72	274
1137.83	272
1138.94	254
1140.05	286
1141.16	292
1142.27	278
1143.38	286
1144.49	274
1145.6	272
1146.71	268
1147.82	280
1148.93	292
1150.04	302
1151.15	262
1152.26	270
1153.36	266
1154.47	302
1155.58	290
1156.69	314
1157.8	292
1158.9	280
1160.01	284
1161.12	282
1162.22	302
1163.33	282
1164.44	292
1165.54	298
1166.65	296
1167.76	274
1168.86	286
1169.97	282
1171.07	292
1172.18	282
1173.28	304
1174.39	284
1175.49	276
1176.6	296
1177.7	306
1178.81	304
1179.91	298
1181.02	298
1182.12	290
1183.22	284
1184.33	300
1185.43	280
1186.53	306
1187.63	298
1188.74	316
1189.84	274
1190.94	320
1192.04	302
1193.15	286
1194.25	292
1195.35	276
1196.45	286
1197.55	278
1198.65	282
1199.75	296
1200.85	296
1201.95	292
1203.05	286
1204.16	270
1205.25	294
1206.35	282
1207.45	300
1208.55	292
1209.65	302
1210.75	300
1211.85	268
1212.95	280
1214.05	278
1215.15	278
1216.24	286
1217.34	284
1218.44	304
1219.54	274
1220.64	278
1221.73	306
1222.83	288
1223.93	282
1225.02	296
1226.12	288
1227.22	280
1228.31	288
1229.41	284
1230.5	290
1231.6	274
1232.7	290
1233.79	294
1234.89	274
1235.98	280
1237.08	294
1238.17	280
1239.26	252
1240.36	284
1241.45	290
1242.55	284
1243.64	278
1244.73	274
1245.83	268
1246.92	284
1248.01	286
1249.11	278
1250.2	276
1251.29	292
1252.38	272
1253.48	256
1254.57	282
1255.66	244
1256.75	272
1257.84	282
1258.93	268
1260.03	268
1261.12	278
1262.21	258
1263.3	288
1264.39	288
1265.48	278
1266.57	266
1267.66	254
1268.75	262
1269.84	266
1270.93	260
1272.02	254
1273.11	284
1274.19	274
1275.28	278
1276.37	256
1277.46	258
1278.55	238
1279.64	246
1280.72	278
1281.81	260
1282.9	262
1283.98	246.3
1285.07	246.893
1286.16	263.092
1287.25	261.609
1288.33	244.68
1289.42	256.293
1290.5	251.583
1291.59	250.852
1292.68	243.002
1293.76	265.478
1294.85	245.424
1295.93	259.687
1297.02	245.324
1298.1	259.741
1299.19	248.333
1300.27	242.056
1301.36	248.929
1302.44	234.09
1303.53	249.214
1304.61	243.26
1305.69	242.451
1306.78	253.663
1307.86	252.93
1308.94	239.941
1310.03	248.787
1311.11	259.594
1312.19	258.364
1313.27	247.565
1314.36	234.899
1315.44	251.295
1316.52	243.477
1317.6	244.094
1318.68	251.109
1319.77	237.134
1320.85	234.02
1321.93	252.178
1323.01	244.472
1324.09	239.98
1325.17	243.561
1326.25	237.522
1327.33	232.525
1328.41	234.269
1329.49	236.393
1330.57	235.472
1331.65	235.281
1332.73	231.994
1333.81	224.164
1334.89	232.526
1335.97	246.837
1337.04	224.669
1338.12	231.844
1339.2	225.345
1340.28	238.261
1341.36	228.573
1342.44	237.948
1343.51	232.242
1344.59	229.878
1345.67	224.891
1346.75	221.403
1347.82	232.609
1348.9	226.743
1349.98	231.899
1351.05	236.464
1352.13	230.236
1353.2	214.937
1354.28	232.402
1355.36	233.323
1356.43	222.852
1357.51	236.065
1358.58	218.423
1359.66	233.79
1360.73	232.548
1361.81	226.542
1362.88	222.936
1363.96	211.276
1365.03	227.521
1366.1	239.862
1367.18	219.198
1368.25	217.24
1369.33	228.877
1370.4	242.47
1371.47	222.385
1372.54	208.187
1373.62	223.965
1374.69	227.655
1375.76	224.681
1376.83	212.298
1377.91	226.239
1378.98	225.512
1380.05	237.149
1381.12	220.395
1382.19	212.75
1383.26	209.711
1384.34	225.216
1385.41	209.912
1386.48	211.124
1387.55	225.788
1388.62	205.462
1389.69	206.368
1390.76	207.069
1391.83	203.976
1392.9	203.882
1393.02	204
1394.1	222
1395.17	216
1396.25	206
1397.32	210
1398.4	208
1399.47	216
1400.55	188
1401.62	208
1402.69	204
1403.77	218
1404.84	190
1405.91	206
1406.99	210
1408.06	200
1409.13	204
1410.2	212
1411.27	200
1412.35	194
1413.42	210
1414.49	198
1415.56	192
1416.63	202
1417.7	202
1418.78	216
1419.85	202
1420.92	204
1421.99	190
1423.06	190
1424.13	184
1425.2	190
1426.27	190
1427.34	190
1428.41	200
1429.48	208
1430.55	194
1431.61	188
1432.68	188
1433.75	202
1434.82	192
1435.89	194
1436.96	190
1438.02	184
1439.09	180
1440.16	184
1441.23	184
1442.3	190
1443.36	180
1444.43	184
1445.5	196
1446.56	188
1447.63	192
1448.7	188
1449.76	178
1450.83	176
1451.89	184
1452.96	176
1454.02	180
1455.09	170
1456.15	184
1457.22	174
1458.28	188
1459.35	178
1460.41	172
1461.48	176
1462.54	172
1463.61	180
1464.67	170
1465.73	166
1466.8	168
1467.86	178
1468.92	190
1469.98	176
1471.05	156
1472.11	164
1473.17	162
1474.24	178
1475.3	156
1476.36	164
1477.42	158
1478.48	170
1479.54	160
1480.6	170
1481.67	176
1482.73	168
1483.79	196
1484.85	168
1485.91	172
1486.97	170
1488.03	156
1489.09	154
1490.15	168
1491.21	160
1492.27	150
1493.33	154
1494.38	156
1495.44	150
1496.5	166
1497.56	164
1498.62	172
1499.68	166
1500.74	160
1501.79	152
1502.85	164
1503.91	142
1504.97	152
1506.02	152
1507.08	164
1508.14	172
1509.2	166
1510.25	154
1511.31	164
1512.36	154
1513.42	158
1514.48	148
1515.53	158
1516.59	164
1517.64	150
1518.7	164
1519.75	150
1520.81	158
1521.86	152
1522.92	148
1523.97	166
1525.02	150
1526.08	142
1527.13	146
1528.19	148
1529.24	148
1530.29	136
1531.35	150
1532.4	156
1533.45	148
1534.51	160
1535.56	146
1536.61	132
1537.66	148
1538.72	146
1539.77	146
1540.82	136
1541.87	152
1542.92	136
1543.97	144
1545.02	138
1546.08	142
1547.13	138
1548.18	136
1549.23	154
1550.28	148
1551.33	140
1552.38	130
1553.43	146
1554.48	158
1555.53	142
1556.57	144
1557.62	128
1558.67	140
1559.72	136
1560.77	150
1561.82	156
1562.87	134
1563.92	158
1564.96	136
1566.01	138
1567.06	138
1568.11	154
1569.15	132
1570.2	150
1571.25	128
1572.29	134
1573.34	144
1574.39	116
1575.43	130
1576.48	138
1577.53	138
1578.57	132
1579.62	132
1580.66	130
1581.71	132
1582.75	138
1583.8	134
1584.84	134
1585.89	142
1586.93	130
1587.98	138
1589.02	130
1590.06	130
1591.11	134
1592.15	134
1593.2	138
1594.24	134
1595.28	142
1596.33	136
1597.37	132
1598.41	136
1599.45	144
1600.5	146
1601.54	138
1602.58	132
1603.62	134
1604.66	128
1605.7	138
1606.75	128
1607.79	142
1608.83	130
1609.87	136
1610.91	130
1611.95	136
1612.99	136
1614.03	142
1615.07	132
1616.11	132
1617.15	128
1618.19	142
1619.23	130
1620.27	124
1621.31	156
1622.35	128
1623.39	144
1624.43	120
1625.46	132
1626.5	132
1627.54	134
1628.58	128
1629.62	128
1630.65	122
1631.69	110
1632.73	132
1633.77	138
1634.8	142
1635.84	124
1636.88	132
1637.91	120
1638.95	112
1639.99	130
1641.02	128
1642.06	138
1643.09	120
1644.13	126
1645.16	114
1646.2	136
1647.23	140
1648.27	138
1649.3	126
1650.34	128
1651.37	120
1652.41	130
1653.44	126
1654.47	122
1655.51	128
1656.54	122
1657.57	118
1658.61	126
1659.64	126
1660.67	130
1661.71	132
1662.74	122
1663.77	132
1664.81	110
1665.84	124
1666.87	126
1667.9	124
1668.93	118
1669.96	124
1671	132
1672.03	132
1673.06	108
1674.09	126
1675.12	116
1676.15	110
1677.18	118
1678.21	118
1679.24	120
1680.27	126
1681.3	130
1682.33	120
1683.36	130
1684.39	116
1685.42	128
1686.45	132
1687.47	122
1688.5	122
1689.53	114
1690.56	132
1691.59	124
1692.62	124
1693.64	124
1694.67	116
1695.7	112
1696.73	128
1697.75	106
1698.78	116
1699.81	126
1700.83	124
1701.86	114
1702.89	124
1703.91	116
1704.94	108
1705.97	118
1706.99	134
1708.02	124
1709.04	130
1710.07	128
1711.09	118
1712.12	110
1713.14	120
1714.17	106
1715.19	118
1716.22	112
1717.24	122
1718.26	112
1719.29	114
1720.31	118
1721.33	118
1722.36	114
1723.38	132
1724.4	122
1725.43	130
1726.45	112
1727.47	112
1728.49	122
1729.52	104
1730.54	116
1731.56	110
1732.58	128
1733.6	108
1734.63	126
1735.65	116
1736.67	134
1737.69	112
1738.71	116
1739.73	106
1740.75	128
1741.77	104
1742.79	112
1743.81	120
1744.83	116
1745.85	116
1746.87	122
1747.89	126
1748.91	110
1749.93	114
1750.95	116
1751.97	108
1752.98	122
1754	112
1755.02	122
1756.04	114
1757.06	118
1758.07	116
1759.09	128
1760.11	122
1761.13	110
1762.14	124
1763.16	104
1764.18	120
1765.19	122
1766.21	112
1767.23	112
1768.24	126
1769.26	124
1770.28	106
1771.29	108
1772.31	118
1773.32	124
1774.34	106
1775.35	120
1776.37	112
1777.38	108
1778.4	130
1779.41	124
1780.43	118
1781.44	110
1782.45	116
1783.47	104
1784.48	124
1785.49	120
1786.51	110
1787.52	104
1788.53	104
1789.55	118
1790.56	112
1791.57	114
1792.58	114
1793.6	118
1794.61	122
1795.62	112
1796.63	126
1797.64	118
1798.66	120
1799.67	138
1800.68	120
1801.69	118
1802.7	114
1803.71	108
1804.72	132
1805.73	102
1806.74	114
1807.75	112
1808.76	118
1809.77	114
1810.78	112
1811.79	116
1812.8	114
1813.81	110
1814.82	112
1815.83	108
1816.84	106
1817.84	118
1818.85	108
1819.86	132
1820.87	110
1821.88	120
1822.88	120
1823.89	160
1824.9	926
1825.91	364
1826.91	122
1827.92	114
1828.93	116
1829.93	120
1830.94	116
1831.95	120
1832.95	118
1833.96	116
1834.97	118
1835.97	114
1836.98	110
1837.98	122
1838.99	122
1839.99	118
1841	110
1842	108
1843.01	126
1844.01	116
1845.02	116
1846.02	122
1847.02	108
1848.03	124
1849.03	116
1850.03	122
1851.04	130
1852.04	106
1853.04	108
1854.05	118
1855.05	112
1856.05	112
1857.05	132
1858.06	116
1859.06	114
1860.06	134
1861.06	118
1862.06	102
1863.07	108
1864.07	110
1865.07	114
1866.07	114
1867.07	118
1868.07	106
1869.07	110
1870.07	120
1871.07	108
1872.07	106
1873.07	116
1874.07	120
1875.07	102
1876.07	122
1877.07	102
1878.07	120
1879.07	116
1880.07	114
1881.07	104
1882.07	114
1883.06	100
1884.06	108
1885.06	102
1886.06	102
1887.06	110
1888.05	124
1889.05	114
1890.05	122
1891.05	110
1892.04	126
1893.04	122
1894.04	106
1895.03	102
1896.03	104
1897.03	118
1898.02	102
1899.02	104
1900.01	112
1901.01	110
1902	108
1903	124
1903.99	116
1904.99	106
1905.98	98
1906.98	110
1907.97	106
1908.97	100
1909.96	98
1910.96	112
1911.95	106
1912.94	110
1913.94	102
1914.93	114
1915.93	124
1916.92	116
1917.91	106
1918.9	116
1919.9	118
1920.89	118
1921.88	104
1922.87	108
1923.87	114
1924.86	108
1925.85	118
1926.84	110
1927.83	102
1928.82	114
1929.82	104
1930.81	118
1931.8	120
1932.79	118
1933.78	114
1934.77	94
1935.76	118
1936.75	110
1937.74	106
1938.73	128
1939.72	112
1940.71	102
1941.7	114
1942.69	112
1943.68	108
1944.67	120
1945.65	122
1946.64	108
1947.63	116
1948.62	116
1949.61	118
1950.6	124
1951.58	110
1952.57	102
1953.56	116
1954.55	124
1955.53	118
1956.52	110
1957.51	112
1958.5	120
1959.48	98
1960.47	102
1961.45	106
1962.44	106
1963.43	100
1964.41	112
1965.4	110
1966.38	106
1967.37	94
1968.35	116
1969.34	120
1970.32	116
1971.31	108
1972.29	118
1973.28	114
1974.26	114
1975.25	118
1976.23	108
1977.22	114
1978.2	116
1979.18	116
1980.17	104
1981.15	94
1982.13	114
1983.12	106
1984.1	116
1985.08	114
1986.06	118
1987.05	114
1988.03	120
1989.01	112
1989.99	118
1990.97	110
1991.96	114
1992.94	132
1993.92	108
1994.9	104
1995.88	108
1996.86	94
1997.84	98
1998.82	114
1999.8	114
2000.78	112
2001.76	110
2002.74	112
2003.72	100
2004.7	110
2005.68	124
2006.66	102
2007.64	104
2008.62	104
2009.6	116
2010.58	108
2011.56	118
2012.54	108
2013.51	106
2014.49	108
2015.47	94
2016.45	108
2017.43	106
2018.4	118
2019.38	112
2020.36	106
2021.34	108
2022.31	110
2023.29	116
2024.27	102
2025.24	118
2026.22	110
2027.2	104
2028.17	111
2029.15	118
2030.12	116
2031.1	118
2032.07	106
2033.05	104
2034.03	106
2035	102
2035.98	116
2036.95	118
2037.93	112
2038.9	118
2039.87	100
2040.85	114
2041.82	106
2042.8	110
2043.77	114
2044.74	118
2045.72	100
2046.69	114
2047.66	100
2048.64	104
2049.61	104
2050.58	100
2051.55	116
2052.53	100
2053.5	102
2054.47	108
2055.44	108
2056.41	108
2057.39	102
2058.36	106
2059.33	100
2060.3	118
2061.27	108
2062.24	110
2063.21	110
2064.18	116
2065.15	102
2066.12	110
2067.09	104
2068.06	110
2069.03	112
2070	102
2070.97	116
2071.94	104
2072.91	116
2073.88	110
2074.85	110
2075.82	102
2076.79	106
2077.76	108
2078.73	122
2079.69	108
2080.66	106
2081.63	100
2082.6	108
2083.56	108
2084.53	104
2085.5	102
2086.47	110
2087.43	106
2088.4	110
2089.37	114
2090.33	100
2091.3	114
2092.27	110
2093.23	102
2094.2	114
2095.17	106
2096.13	114
2097.1	116
2098.06	114
2099.03	122
2099.99	100
2100.96	116
2101.92	98
2102.89	100
2103.85	110
2104.82	104
2105.78	106
2106.74	110
2107.71	112
2108.67	118
2109.64	104
2110.6	112
2111.56	104
2112.53	116
2113.49	110
2114.45	106
2115.41	92
2116.38	96
2117.34	96
2118.3	114
2119.26	106
2120.23	110
2121.19	104
2122.15	92
2123.11	112
2124.07	100
2125.03	116
2126	108
2126.96	102
2127.92	106
2128.88	106
2129.84	110
2130.8	108
2131.76	94
2132.72	110
2133.68	110
2134.64	106
2135.6	102
2136.56	94
2137.52	114
2138.48	108
2139.44	100
2140.4	100
2141.35	120
2142.31	106
2143.27	104
2144.23	118
2145.19	104
2146.15	104
2147.1	114
2148.06	116
2149.02	110
2149.98	106
2150.94	102
2151.89	110
2152.85	114
2153.81	104
2154.76	106
2155.72	112
2156.68	102
2157.63	102
2158.59	106
2159.55	106
2160.5	108
2161.46	108
2162.41	104
2163.37	110
2164.32	116
2165.28	104
2166.23	114
2167.19	106
2168.14	104
2169.1	106
2170.05	104
2171.01	106
2171.96	98
2172.91	110
2173.87	108
2174.82	104
2175.78	114
2176.73	116
2177.68	94
2178.64	108
2179.59	96
2180.54	108
2181.49	102
2182.45	94
2183.4	112
2184.35	98
2185.3	106
2186.26	96
2187.21	102
2188.16	98
2189.11	98
2190.06	102
2191.01	96
2191.96	102
2192.92	110
2193.87	100
2194.82	110
2195.77	92
2196.72	94
2197.67	100
2198.62	102
2199.57	114
2200.52	104
2201.47	96
2202.42	114
2203.37	114
2204.32	88
2205.27	104
2206.22	98
2207.16	98
2208.11	112
2209.06	98
2210.01	106
2210.96	102
2211.91	110
2212.85	106
2213.8	100
2214.75	102
2215.7	104
2216.64	106
2217.59	94
2218.54	82
2219.49	98
2220.43	96
2221.38	94
2222.33	110
2223.27	98.0917
2224.22	100.322
2225.16	100.314
2226.11	95.0649
2227.06	105.302
2228	98.4582
2228.95	99.1594
2229.89	100.777
2230.84	100.386
2231.78	106.472
2232.73	105.14
2233.67	98.5316
2234.62	113.498
2235.56	105.506
2236.51	102.922
2237.45	98.8395
2238.4	106.675
2239.34	101.46
2240.28	102.216
2241.23	103.332
2242.17	105.582
2243.11	103.891
2244.06	103.624
2245	103.76
2245.94	113.898
2246.89	106.59
2247.83	108.731
2248.77	102.137
2249.71	106.946
2250.66	98.0842
2251.6	101.981
2252.54	115.404
2253.48	103.724
2254.42	107.122
2255.37	104.391
2256.31	97.3095
2257.25	109.206
2258.19	105.025
2259.13	106.411
2260.07	116.939
2261.01	108.522
2261.95	108.854
2262.89	110.536
2263.83	108.37
2264.77	100.827
2265.71	104.862
2266.65	102.206
2267.59	112.468
2268.53	106.184
2269.47	111.522
2270.41	103.27
2271.35	113.959
2272.29	108.935
2273.23	108.117
2274.17	100.957
2275.1	106.138
2276.04	107.037
2276.98	110.523
2277.92	104.82
2278.86	116.41
2279.8	111.31
2280.73	107.68
2281.67	108.222
2282.61	101.823
2283.55	107.884
2284.48	105.294
2285.42	109.443
2286.36	104.725
2287.29	111.423
2288.23	122.028
2289.17	113.293
2290.1	97.6363
2291.04	108.649
2291.98	114.301
2292.91	112.375
2293.85	112.15
2294.78	111.763
2295.72	105.968
2296.65	107.83
2297.59	108.402
2298.52	111.66
2299.46	109.073
2300.39	104.951
2301.33	112.678
2302.26	118.834
2303.2	116.243
2304.13	117.446
2305.06	119.456
2306	119.183
2306.93	116.11
2307.87	114.137
2308.8	108.491
2309.73	102.455
2310.67	104.334
2311.6	109.622
2312.53	116.525
2313.46	114.783
2314.4	114.991
2315.33	110.86
2316.26	108.332
2316.69	112
2317.62	120
2318.56	122
2319.5	120
2320.43	114
2321.37	122
2322.31	100
2323.24	104
2324.18	130
2325.12	112
2326.05	108
2326.99	116
2327.92	104
2328.86	132
2329.79	102
2330.73	110
2331.66	122
2332.6	106
2333.53	116
2334.47	110
2335.4	118
2336.34	124
2337.27	104
2338.2	104
2339.14	106
2340.07	114
2341.01	108
2341.94	110
2342.87	104
2343.81	118
2344.74	110
2345.67	104
2346.6	104
2347.54	114
2348.47	124
2349.4	100
2350.33	110
2351.27	116
2352.2	108
2353.13	110
2354.06	112
2354.99	100
2355.93	108
2356.86	100
2357.79	110
2358.72	106
2359.65	120
2360.58	116
2361.51	100
2362.44	102
2363.37	104
2364.3	100
2365.23	98
2366.16	116
2367.09	106
2368.02	104
2368.95	106
2369.88	110
2370.81	102
2371.74	122
2372.67	112
2373.6	100
2374.52	106
2375.45	110
2376.38	102
2377.31	118
2378.24	106
2379.17	120
2380.09	100
2381.02	116
2381.95	112
2382.88	104
2383.8	112
2384.73	104
2385.66	104
2386.58	112
2387.51	104
2388.44	98
2389.36	110
2390.29	114
2391.22	110
2392.14	102
2393.07	102
2393.99	116
2394.92	98
2395.85	112
2396.77	108
2397.7	104
2398.62	118
2399.55	108
2400.47	104
2401.4	96
2402.32	108
2403.25	98
2404.17	102
2405.09	100
2406.02	112
2406.94	94
2407.86	114
2408.79	106
2409.71	102
2410.63	108
2411.56	110
2412.48	104
2413.4	112
2414.33	104
2415.25	118
2416.17	112
2417.09	102
2418.02	110
2418.94	100
2419.86	98
2420.78	104
2421.7	102
2422.63	104
2423.55	106
2424.47	94
2425.39	100
2426.31	92
2427.23	94
2428.15	100
2429.07	92
2429.99	94
2430.91	100
2431.83	88
2432.75	102
2433.67	102
2434.59	108
2435.51	104
2436.43	98
2437.35	100
2438.27	106
2439.19	94
2440.11	96
2441.03	110
2441.95	98
2442.86	90
2443.78	104
2444.7	98
2445.62	106
2446.54	104
2447.46	104
2448.37	100
2449.29	102
2450.21	98
2451.13	98
2452.04	98
2452.96	96
2453.88	100
2454.79	94
2455.71	92
2456.63	82
2457.54	104
2458.46	100
2459.38	92
2460.29	94
2461.21	96
2462.12	88
2463.04	100
2463.95	94
2464.87	92
2465.78	94
2466.7	98
2467.61	100
2468.53	104
2469.44	96
2470.36	96
2471.27	96
2472.19	102
2473.1	90
2474.01	96
2474.93	102
2475.84	108
2476.76	100
2477.67	98
2478.58	96
2479.5	100
2480.41	90
2481.32	104
2482.23	100
2483.15	102
2484.06	90
2484.97	104
2485.88	98
2486.8	98
2487.71	94
2488.62	94
2489.53	90
2490.44	92
2491.35	98
2492.26	86
2493.18	100
2494.09	96
2495	94
2495.91	88
2496.82	86
2497.73	86
2498.64	90
2499.55	86
2500.46	90
2501.37	110
2502.28	98
2503.19	90
2504.1	96
2505.01	92
2505.92	86
2506.83	88
2507.74	94
2508.65	92
2509.55	90
2510.46	84
2511.37	90
2512.28	96
2513.19	96
2514.09	84
2515	88
2515.91	90
2516.82	82
2517.73	94
2518.63	88
2519.54	88
2520.45	90
2521.35	82
2522.26	86
2523.17	74
2524.07	88
2524.98	100
2525.89	78
2526.79	90
2527.7	94
2528.6	92
2529.51	92
2530.42	86
2531.32	84
2532.23	84
2533.13	88
2534.04	86
2534.94	80
2535.85	82
2536.75	86
2537.66	78
2538.56	90
2539.47	92
2540.37	84
2541.27	88
2542.18	88
2543.08	78
2543.98	96
2544.89	94
2545.79	82
2546.7	84
2547.6	96
2548.5	82
2549.4	70
2550.31	90
2551.21	84
2552.11	82
2553.01	84
2553.92	92
2554.82	92
2555.72	80
2556.62	84
2557.52	78
2558.42	92
2559.33	90
2560.23	86
2561.13	86
2562.03	86
2562.93	80
2563.83	74
2564.73	80
2565.63	78
2566.53	76
2567.43	74
2568.33	84
2569.23	80
2570.13	82
2571.03	84
2571.93	76
2572.83	80
2573.73	80
2574.63	88
2575.53	84
2576.43	82
2577.33	86
2578.22	82
2579.12	82
2580.02	78
2580.92	96
2581.82	64
2582.72	80
2583.61	68
2584.51	86
2585.41	70
2586.31	76
2587.2	74
2588.1	84
2589	80
2589.89	78
2590.79	72
2591.69	76
2592.58	80
2593.48	70
2594.38	80
2595.27	78
2596.17	80
2597.06	76
2597.96	76
2598.86	86
2599.75	86
2600.65	74
2601.54	64
2602.44	72
2603.33	72
2604.23	74
2605.12	86
2606.02	74
2606.91	78
2607.81	82
2608.7	72
2609.59	82
2610.49	72
2611.38	82
2612.27	72
2613.17	64
2614.06	68
2614.95	74
2615.85	78
2616.74	76
2617.63	76
2618.53	82
2619.42	68
2620.31	74
2621.2	90
2622.1	74
2622.99	86
2623.88	66
2624.77	72
2625.66	80
2626.55	80
2627.45	68
2628.34	70
2629.23	74
2630.12	78
2631.01	68
2631.9	88
2632.79	72
2633.68	70
2634.57	72
2635.46	82
2636.35	66
2637.24	78
2638.13	82
2639.02	80
2639.91	64
2640.8	72
2641.69	74
2642.58	74
2643.47	76
2644.36	72
2645.25	72
2646.14	70
2647.02	66
2647.91	64
2648.8	76
2649.69	74
2650.58	70
2651.46	70
2652.35	68
2653.24	76
2654.13	70
2655.01	78
2655.9	74
2656.79	76
2657.68	82
2658.56	68
2659.45	76
2660.34	70
2661.22	74
2662.11	80
2662.99	78
2663.88	82
2664.77	72
2665.65	78
2666.54	68
2667.42	60
2668.31	76
2669.2	70
2670.08	68
2670.96	68
2671.85	66
2672.73	72
2673.62	72
2674.5	76
2675.39	64
2676.27	68
2677.16	70
2678.04	72
2678.93	72
2679.81	68
2680.69	76
2681.58	78
2682.46	76
2683.34	70
2684.23	72
2685.11	70
2685.99	68
2686.87	68
2687.76	64
2688.64	66
2689.52	66
2690.4	74
2691.28	64
2692.17	66
2693.05	64
2693.93	68
2694.81	72
2695.69	64
2696.57	58
2697.46	80
2698.34	66
2699.22	70
2700.1	72
2700.98	68
2701.86	66
2702.74	62
2703.62	68
2704.5	58
2705.38	68
2706.26	66
2707.14	60
2708.02	62
2708.9	66
2709.78	74
2710.66	66
2711.54	68
2712.42	66
2713.3	64
2714.17	66
2715.05	74
2715.93	56
2716.81	66
2717.69	70
2718.57	72
2719.44	60
2720.32	64
2721.2	68
2722.08	64
2722.95	66
2723.83	62
2724.71	66
2725.59	62
2726.46	62
2727.34	64
2728.22	66
2729.09	68
2729.97	64
2730.85	62
2731.72	64
2732.6	64
2733.47	50
2734.35	62
2735.23	62
2736.1	72
2736.98	58
2737.85	60
2738.73	52
2739.6	62
2740.48	62
2741.35	72
2742.23	62
2743.1	58
2743.98	62
2744.85	48
2745.72	62
2746.6	66
2747.47	68
2748.35	70
2749.22	58
2750.09	66
2750.97	58
2751.84	68
2752.71	66
2753.59	62
2754.46	62
2755.33	62
2756.2	62
2757.08	58
2757.95	58
2758.82	66
2759.69	58
2760.57	54
2761.44	66
2762.31	58
2763.18	52
2764.05	54
2764.92	50
2765.79	58
2766.67	70
2767.54	58
2768.41	48
2769.28	46
2770.15	60
2771.02	46
2771.89	62
2772.76	62
2773.63	52
2774.5	52
2775.37	46
2776.24	52
2777.11	52
2777.98	62
2778.85	58
2779.72	52
2780.59	58
2781.46	54
2782.32	60
2783.19	62
2784.06	58
2784.93	52
2785.8	58
2786.67	62
2787.53	56
2788.4	56
2789.27	58
2790.14	50
2791.01	56
2791.87	50
2792.74	60
2793.61	60
2794.47	50
2795.34	54
2796.21	60
2797.07	54
2797.94	58
2798.81	56
2799.67	54
2800.54	60
2801.41	60
2802.27	54
2803.14	52
2804	54
2804.87	54
2805.74	46
2806.6	60
2807.47	48
2808.33	56
2809.2	52
2810.06	58
2810.93	50
2811.79	60
2812.65	56
2813.52	52
2814.38	66
2815.25	56
2816.11	50
2816.98	50
2817.84	48
2818.7	56
2819.56	56
2820.43	58
2821.29	54
2822.16	58
2823.02	50
2823.88	56
2824.74	50
2825.61	50
2826.47	60
2827.33	50
2828.19	54
2829.05	48
2829.92	56
2830.78	56
2831.64	60
2832.5	58
2833.36	48
2834.23	54
2835.09	52
2835.95	50
2836.81	64
2837.67	44
2838.53	62
2839.39	42
2840.25	60
2841.11	54
2841.97	44
2842.83	50
2843.69	54
2844.55	66
2845.41	56
2846.27	46
2847.13	56
2847.99	58
2848.85	50
2849.71	48
2850.57	60
2851.43	58
2852.28	58
2853.14	56
2854	44
2854.86	56
2855.72	52
2856.58	56
2857.43	50
2858.29	40
2859.15	34
2860.01	46
2860.86	48
2861.72	62
2862.58	56
2863.44	56
2864.29	52
2865.15	48
2866.01	52
2866.86	48
2867.72	52
2868.58	48
2869.43	54
2870.29	46
2871.14	50
2872	60
2872.86	42
2873.71	44
2874.57	46
2875.42	60
2876.28	46
2877.13	48
2877.99	44
2878.84	48
2879.7	50
2880.55	54
2881.41	54
2882.26	52
2883.11	54
2883.97	48
2884.82	48
2885.68	52
2886.53	54
2887.39	44
2888.24	56
2889.09	54
2889.94	50
2890.8	32
2891.65	48
2892.5	48
2893.36	44
2894.21	44
2895.06	46
2895.91	44
2896.77	44
2897.62	42
2898.47	46
2899.32	48
2900.17	46
2901.03	44
2901.88	54
2902.73	36
2903.58	44
2904.43	54
2905.28	42
2906.13	52
2906.98	46
2907.84	42
2908.69	52
2909.54	52
2910.39	44
2911.24	52
2912.09	42
2912.94	48
2913.79	38
2914.64	40
2915.49	38
2916.34	52
2917.19	48
2918.03	58
2918.88	40
2919.73	42
2920.58	44
2921.43	50
2922.28	38
2923.13	48
2923.98	46
2924.82	44
2925.67	48
2926.52	46
2927.37	40
2928.22	52
2929.06	42
2929.91	46
2930.76	42
2931.61	46
2932.45	44
2933.3	44
2934.15	40
2934.99	38
2935.84	46
2936.69	42
2937.53	40
2938.38	50
2939.23	50
2940.07	44
2940.92	46
2941.76	48
2942.61	48
2943.46	40
2944.3	48
2945.15	52
2945.99	46
2946.84	44
2947.68	38
2948.53	40
2949.37	42
2950.22	50
2951.06	42
2951.9	42
2952.75	36
2953.59	42
2954.44	36
2955.28	52
2956.12	54
2956.97	40
2957.81	50
2958.65	42
2959.5	44
2960.34	44
2961.18	44
2962.03	40
2962.87	52
2963.71	42
2964.56	46
2965.4	48
2966.24	44
2967.08	50
2967.92	42
2968.77	44
2969.61	44
2970.45	42
2971.29	42
2972.13	48
2972.97	44
2973.82	50
2974.66	42
2975.5	38
2976.34	40
2977.18	44
2978.02	42
2978.86	40
2979.7	48
2980.54	40
2981.38	40
2982.22	44
2983.06	46
2983.9	44
2984.74	44
2985.58	40
2986.42	46
2987.26	52
2988.1	46
2988.94	40
2989.78	36
2990.61	38
2991.45	40
2992.29	46
2993.13	48
2993.97	42
2994.81	44
2995.64	38
2996.48	42
2997.32	38
2998.16	40
2999	44
2999.83	36
