#Acq. time (s)=	10
#Accumulations=	1
#Range (cm-¹)=	200...3000
#Windows=	3
#Autofocus=	Off
#AutoExposure=	Off
#Spike filter=	Off
#Delay time (s)=	0
#Binning=	1
#Readout mode=	Signal
#DeNoise=	Off
#ICS correction=	Off
#Dark correction=	Off
#Inst. Process=	Off
#Instrument=	LabRAM HR Evol
#Detector=	Syncerity OE
#Objective=	x100_VIS
#Grating=	600 (500nm)
#ND Filter=	0.01%
#Laser=	633nm_Edge
#Hole=	30.0125
#Range=	Visible
#Project=	Omar
#Sample=	03-07-23
#Site=	nop
#Title=	inside_prf
#Remark=	
#Date=	03.07.2023 14:43
#Acquired=	03.07.2023 14:43:02
201.713	28
202.98	26
204.247	32
205.513	42
206.778	32
208.045	26
209.311	30
210.576	30
211.84	28
213.106	34
214.371	24
215.636	28
216.899	30
218.164	34
219.428	34
220.692	30
221.955	36
223.219	36
224.482	28
225.744	36
227.007	24
228.27	30
229.531	32
230.794	30
232.055	30
233.317	38
234.579	30
235.839	30
237.1	32
238.362	40
239.621	32
240.882	36
242.141	26
243.402	26
244.661	36
245.921	34
247.179	30
248.439	36
249.698	30
250.956	30
252.215	32
253.473	28
254.731	32
255.988	30
257.246	30
258.503	28
259.761	26
261.017	42
262.273	34
263.53	38
264.786	34
266.042	36
267.298	40
268.554	34
269.809	42
271.063	42
272.319	38
273.573	32
274.828	34
276.082	36
277.336	40
278.591	34
279.844	36
281.097	36
282.351	32
283.603	28
284.855	32
286.109	36
287.361	32
288.613	36
289.866	36
291.117	28
292.368	32
293.62	32
294.871	32
296.121	34
297.372	36
298.623	26
299.873	34
301.123	32
302.372	30
303.622	32
304.872	28
306.121	32
307.37	32
308.618	38
309.866	32
311.116	40
312.364	36
313.611	32
314.859	34
316.106	32
317.353	34
318.6	32
319.848	36
321.095	34
322.341	34
323.587	40
324.833	30
326.079	32
327.324	42
328.569	30
329.814	32
331.059	44
332.304	34
333.548	36
334.792	48
336.037	28
337.28	40
338.524	32
339.767	30
341.011	42
342.254	36
343.497	36
344.739	40
345.982	36
347.224	40
348.466	32
349.708	32
350.95	34
352.191	40
353.432	34
354.673	36
355.914	30
357.155	38
358.394	42
359.634	34
360.874	34
362.114	34
363.354	38
364.593	40
365.832	40
367.07	38
368.309	42
369.548	42
370.786	40
372.024	42
373.261	40
374.499	36
375.736	38
376.974	40
378.211	38
379.447	40
380.684	48
381.92	36
383.157	30
384.392	30
385.628	38
386.864	34
388.098	44
389.333	40
390.569	28
391.802	32
393.037	40
394.272	38
395.505	36
396.739	38
397.973	40
399.206	42
400.44	44
401.673	36
402.905	40
404.138	46
405.37	38
406.602	40
407.835	30
409.066	46
410.298	50
411.528	40
412.76	36
413.99	40
415.221	40
416.451	38
417.682	36
418.911	42
420.142	40
421.371	40
422.601	38
423.83	36
425.059	34
426.288	40
427.517	38
428.745	42
429.974	42
431.201	44
432.43	42
433.657	40
434.883	36
436.111	42
437.338	38
438.565	48
439.791	48
441.017	42
442.244	38
443.469	32
444.695	44
445.921	44
447.146	42
448.37	38
449.596	46
450.821	36
452.045	36
453.27	34
454.493	38
455.717	38
456.94	46
458.165	38
459.387	42
460.61	38
461.833	42
463.056	38
464.278	44
465.5	48
466.722	44
467.945	44
469.166	42
470.387	46
471.608	48
472.829	38
474.049	48
475.271	40
476.491	38
477.711	50
478.931	50
480.15	40
481.37	40
482.589	44
483.808	48
485.027	44
486.247	46
487.465	46
488.683	50
489.901	42
491.119	46
492.337	50
493.554	48
494.771	48
495.988	54
497.205	48
498.422	56
499.638	52
500.854	46
502.07	40
503.286	44
504.502	56
505.717	46
506.933	52
508.148	42
509.363	42
510.577	50
511.792	42
513.005	52
514.219	42
515.433	44
516.647	52
517.86	44
519.073	46
520.287	42
521.5	60
522.711	46
523.924	54
525.136	48
526.348	46
527.56	56
528.772	58
529.982	44
531.194	50
532.405	56
533.616	60
534.825	44
536.036	58
537.246	50
538.457	60
539.665	54
540.875	52
542.085	40
543.294	54
544.502	42
545.712	56
546.92	44
548.128	60
549.336	58
550.545	56
551.751	64
552.959	64
554.167	56
555.373	52
556.581	46
557.788	50
558.994	46
560.2	54
561.406	50
562.612	58
563.817	56
565.023	56
566.229	58
567.433	52
568.639	62
569.843	46
571.048	52
572.251	50
573.456	50
574.659	56
575.863	60
577.066	58
578.27	50
579.472	50
580.676	54
581.878	54
583.081	52
584.283	54
585.484	56
586.687	64
587.888	64
589.09	66
590.291	58
591.493	58
592.693	56
593.893	58
595.094	66
596.294	58
597.494	60
598.694	62
599.894	62
601.093	56
602.293	60
603.491	50
604.69	60
605.889	48
607.087	62
608.285	62
609.483	56
610.682	66
611.879	62
613.076	64
614.273	62
615.471	54
616.667	62
617.864	58
619.06	62
620.256	60
621.453	62
622.648	72
623.844	66
625.039	64
626.234	56
627.429	66
628.625	62
629.819	58
631.013	50
632.208	66
633.401	70
634.595	64
635.789	70
636.982	60
638.175	64
639.369	62
640.562	64
641.755	60
642.947	76
644.139	62
645.331	60
646.523	68
647.715	70
648.906	74
650.097	68
651.288	68
652.479	80
653.67	68
654.86	82
656.051	62
657.241	72
658.429	78
659.619	70
660.808	80
661.998	64
663.187	68
664.376	68
665.565	80
666.753	70
667.942	64
669.13	76
670.317	72
671.505	78
672.692	66
673.88	70
675.067	80
676.254	72
677.44	74
678.627	72
679.813	74
681	76
682.184	80
683.37	86
684.556	76
685.742	66
686.926	82
688.111	82
689.296	84
690.481	76
691.664	78
692.849	82
694.033	84
695.216	80
696.4	70
697.584	68
698.766	78
699.949	88
701.133	76
702.314	78
703.497	90
704.678	84
705.861	82
707.043	84
708.224	92
709.406	94
710.586	90
711.768	90
712.949	80
714.129	88
715.31	82
716.489	96
717.67	102
718.849	90
720.029	80
721.208	94
722.388	100
723.566	100
724.746	92
725.924	104
727.103	92
728.28	94
729.458	94
730.636	94
731.814	94
732.992	84
734.168	102
735.345	92
736.523	94
737.699	104
738.876	92
740.052	88
741.227	102
742.404	100
743.579	104
744.754	106
745.931	102
747.105	96
748.28	110
749.455	94
750.629	108
751.803	108
752.977	104
754.152	106
755.325	102
756.499	110
757.672	106
758.846	114
760.018	116
761.191	106
762.363	100
763.535	104
764.708	110
765.88	122
767.052	110
768.223	116
769.394	114
770.565	116
771.737	118
772.908	114
774.078	108
775.249	120
776.419	100
777.589	122
778.758	124
779.928	108
781.097	104
782.266	118
783.435	98
784.604	124
785.773	122
786.941	124
788.11	122
789.278	124
790.446	116
791.613	124
792.781	122
793.948	122
795.115	112
796.282	120
797.449	120
798.616	144
799.782	126
800.948	126
802.115	126
803.28	128
804.446	126
805.612	128
806.777	128
807.941	136
809.106	140
810.271	130
811.435	148
812.6	138
813.764	146
814.927	130
816.091	130
817.254	140
818.418	142
819.581	126
820.743	172
821.906	138
823.069	150
824.232	134
825.393	150
826.555	158
827.717	140
828.879	154
830.039	138
831.201	172
832.362	158
833.522	160
834.683	166
835.844	152
837.003	154
838.164	160
839.324	166
840.483	164
841.643	172
842.801	162
843.961	174
845.12	156
846.278	156
847.437	178
848.594	154
849.753	154
850.91	166
852.069	164
853.227	180
854.383	160
855.541	162
856.697	176
857.855	162
859.011	178
860.168	178
861.323	180
862.48	172
863.635	180
864.79	178
865.946	190
867.101	192
868.257	176
869.411	180
870.567	198
871.721	166
872.874	188
874.029	172
875.183	176
876.336	180
877.49	186
878.643	184
879.796	208
880.95	184
882.102	200
883.254	194
884.407	188
885.559	194
886.711	196
887.862	210
889.015	200
890.166	194
891.317	192
892.467	212
893.619	188
894.77	202
895.92	184
897.07	198
898.221	212
899.371	202
900.52	232
901.669	212
902.819	196
903.968	210
905.116	220
906.266	214
907.415	196
908.563	216
909.711	208
910.859	216
912.007	210
913.154	220
914.301	212
915.449	226
916.596	228
917.742	218
918.889	226
920.036	230
921.183	230
922.329	242
923.475	230
924.621	234
925.765	228
926.911	236
928.056	226
929.201	226
930.346	244
931.49	246
932.635	238
933.779	226
934.924	244
936.068	254
937.211	260
938.355	228
939.498	252
940.64	230
941.784	250
942.926	254
944.069	232
945.212	246
946.354	244
947.495	258
948.637	254
949.779	254
950.921	274
952.062	252
953.202	242
954.344	266
955.484	282
956.625	276
957.765	250
958.905	260
960.045	266
961.184	280
962.324	300
963.464	282
964.604	276
965.742	288
966.881	272
968.02	292
969.158	286
970.296	278
971.434	306
972.572	282
973.71	312
974.847	296
975.985	300
977.121	306
978.259	308
979.396	294
980.532	300
981.669	306
982.804	310
983.941	304
985.076	310
986.212	302
987.347	322
988.483	330
989.617	328
990.753	306
991.887	314
993.022	322
994.156	326
995.29	334
996.424	332
997.558	338
998.692	340
999.825	326
1000.96	312
1002.09	336
1003.22	340
1004.36	330
1005.49	328
1006.62	346
1007.75	320
1008.89	360
1010.02	336
1011.15	360
1012.28	342
1013.41	336
1014.54	352
1015.67	358
1016.8	354
1017.93	356
1019.07	366
1020.19	338
1021.32	370
1022.45	380
1023.58	364
1024.71	360
1025.84	380
1026.97	372
1028.1	390
1029.23	378
1030.36	368
1031.49	360
1032.61	358
1033.74	382
1034.87	384
1036	394
1037.12	378
1038.25	386
1039.38	406
1040.5	398
1041.63	382
1042.76	416
1043.88	404
1045.01	382
1046.14	394
1047.26	394
1048.39	416
1049.51	428
1050.64	422
1051.76	418
1052.89	422
1054.01	438
1055.14	428
1056.26	432
1057.38	418
1058.51	428
1059.63	430
1060.75	416
1061.88	441
1063	466
1064.12	444
1065.25	428
1066.37	412
1067.49	438
1068.61	446
1069.73	460
1070.86	436
1071.98	468
1073.1	504
1074.22	484
1075.34	436
1076.46	474
1077.58	474
1078.7	488
1079.82	458
1080.94	442
1082.06	462
1083.18	490
1084.3	456
1085.42	478
1086.54	458
1087.66	476
1088.78	484
1089.9	442
1091.02	508
1092.14	474
1093.25	496
1094.37	502
1095.49	504
1096.61	490
1097.72	508
1098.84	484
1099.96	516
1101.08	520
1102.19	504
1103.31	486
1104.43	474
1105.54	494
1106.66	514
1107.77	482
1108.89	498
1110	508
1111.12	500
1112.23	506
1113.35	512
1114.46	524
1115.58	512
1116.69	518
1117.81	524
1118.92	496
1120.03	518
1121.15	500
1122.26	496
1123.37	530
1124.49	516
1125.6	542
1126.71	538
1127.83	534
1128.94	520
1130.05	528
1131.16	502
1132.27	546
1133.39	544
1134.5	528
1135.61	554
1136.72	548
1137.83	546
1138.94	554
1140.05	536
1141.16	546
1142.27	550
1143.38	554
1144.49	552
1145.6	528
1146.71	566
1147.82	550
1148.93	554
1150.04	568
1151.15	536
1152.26	512
1153.36	580
1154.47	566
1155.58	550
1156.69	576
1157.8	562
1158.9	588
1160.01	590
1161.12	572
1162.22	542
1163.33	558
1164.44	576
1165.54	582
1166.65	572
1167.76	572
1168.86	582
1169.97	542
1171.07	558
1172.18	564
1173.28	582
1174.39	558
1175.49	576
1176.6	598
1177.7	566
1178.81	566
1179.91	584
1181.02	576
1182.12	588
1183.22	568
1184.33	574
1185.43	584
1186.53	562
1187.63	570
1188.74	576
1189.84	558
1190.94	572
1192.04	580
1193.15	564
1194.25	584
1195.35	556
1196.45	556
1197.55	578
1198.65	560
1199.75	552
1200.85	564
1201.95	566
1203.05	552
1204.16	546
1205.25	546
1206.35	552
1207.45	534
1208.55	562
1209.65	550
1210.75	552
1211.85	576
1212.95	544
1214.05	550
1215.15	522
1216.24	562
1217.34	550
1218.44	552
1219.54	534
1220.64	566
1221.73	534
1222.83	538
1223.93	576
1225.02	538
1226.12	556
1227.22	538
1228.31	512
1229.41	514
1230.5	544
1231.6	512
1232.7	492
1233.79	498
1234.89	528
1235.98	534
1237.08	492
1238.17	506
1239.26	512
1240.36	518
1241.45	526
1242.55	510
1243.64	504
1244.73	494
1245.83	522
1246.92	502
1248.01	514
1249.11	482
1250.2	524
1251.29	500
1252.38	502
1253.48	478
1254.57	506
1255.66	524
1256.75	504
1257.84	494
1258.93	486
1260.03	470
1261.12	518
1262.21	486
1263.3	496
1264.39	494
1265.48	490
1266.57	480
1267.66	482
1268.75	452
1269.84	498
1270.93	452
1272.02	472
1273.11	490
1274.19	464
1275.28	490
1276.37	490
1277.46	470
1278.55	472
1279.64	448
1280.72	448
1281.81	444
1282.9	450
1283.98	446.263
1285.07	464.568
1286.16	449.474
1287.25	471.109
1288.33	477.406
1289.42	454.425
1290.5	478.824
1291.59	453.619
1292.68	453.783
1293.76	455.606
1294.85	444.798
1295.93	432.479
1297.02	433.09
1298.1	446.449
1299.19	424.006
1300.27	439.598
1301.36	433.673
1302.44	421.362
1303.53	426.716
1304.61	437.87
1305.69	440.562
1306.78	419.423
1307.86	417.335
1308.94	414.53
1310.03	419.536
1311.11	427.744
1312.19	435.635
1313.27	410.386
1314.36	404.235
1315.44	412.018
1316.52	398.545
1317.6	417.145
1318.68	401.607
1319.77	420.225
1320.85	409.027
1321.93	410.298
1323.01	406.589
1324.09	403.619
1325.17	404.412
1326.25	394.301
1327.33	420.149
1328.41	392.286
1329.49	392.44
1330.57	404.837
1331.65	380.992
1332.73	388.293
1333.81	385.878
1334.89	394.247
1335.97	389.645
1337.04	375.932
1338.12	385.025
1339.2	388.665
1340.28	396.051
1341.36	388.238
1342.44	378.085
1343.51	368.89
1344.59	380.821
1345.67	387.872
1346.75	373.749
1347.82	385.064
1348.9	365.457
1349.98	366.698
1351.05	370.21
1352.13	368.852
1353.2	373.435
1354.28	365.062
1355.36	372.557
1356.43	356.811
1357.51	342.834
1358.58	364.899
1359.66	370.29
1360.73	379.719
1361.81	371.183
1362.88	336.107
1363.96	362.279
1365.03	348.154
1366.1	343.127
1367.18	363.892
1368.25	346.53
1369.33	343.176
1370.4	354.016
1371.47	350.391
1372.54	347.194
1373.62	334.018
1374.69	353.452
1375.76	345.194
1376.83	350.362
1377.91	336.491
1378.98	329.868
1380.05	341.394
1381.12	354.895
1382.19	327.991
1383.26	332.867
1384.34	321.665
1385.41	325.194
1386.48	339.506
1387.55	318.24
1388.62	316.941
1389.69	329.035
1390.76	345.279
1391.83	334.767
1392.9	337.266
1393.02	338
1394.1	330
1395.17	316
1396.25	342
1397.32	316
1398.4	308
1399.47	328
1400.55	314
1401.62	320
1402.69	302
1403.77	316
1404.84	298
1405.91	298
1406.99	284
1408.06	304
1409.13	292
1410.2	316
1411.27	320
1412.35	294
1413.42	306
1414.49	302
1415.56	318
1416.63	306
1417.7	296
1418.78	280
1419.85	286
1420.92	306
1421.99	290
1423.06	292
1424.13	286
1425.2	296
1426.27	282
1427.34	302
1428.41	288
1429.48	302
1430.55	288
1431.61	272
1432.68	262
1433.75	280
1434.82	290
1435.89	268
1436.96	260
1438.02	272
1439.09	270
1440.16	292
1441.23	280
1442.3	272
1443.36	266
1444.43	276
1445.5	260
1446.56	254
1447.63	280
1448.7	264
1449.76	272
1450.83	292
1451.89	260
1452.96	258
1454.02	260
1455.09	274
1456.15	274
1457.22	248
1458.28	258
1459.35	266
1460.41	248
1461.48	272
1462.54	258
1463.61	244
1464.67	266
1465.73	260
1466.8	268
1467.86	248
1468.92	266
1469.98	256
1471.05	258
1472.11	238
1473.17	254
1474.24	244
1475.3	258
1476.36	260
1477.42	228
1478.48	246
1479.54	256
1480.6	232
1481.67	262
1482.73	248
1483.79	244
1484.85	246
1485.91	236
1486.97	242
1488.03	248
1489.09	230
1490.15	232
1491.21	248
1492.27	240
1493.33	244
1494.38	236
1495.44	242
1496.5	218
1497.56	242
1498.62	228
1499.68	248
1500.74	234
1501.79	224
1502.85	240
1503.91	244
1504.97	246
1506.02	248
1507.08	230
1508.14	248
1509.2	224
1510.25	244
1511.31	236
1512.36	238
1513.42	224
1514.48	230
1515.53	212
1516.59	226
1517.64	220
1518.7	224
1519.75	220
1520.81	210
1521.86	224
1522.92	226
1523.97	220
1525.02	218
1526.08	230
1527.13	232
1528.19	210
1529.24	234
1530.29	228
1531.35	224
1532.4	218
1533.45	240
1534.51	226
1535.56	218
1536.61	206
1537.66	214
1538.72	218
1539.77	218
1540.82	216
1541.87	226
1542.92	222
1543.97	206
1545.02	194
1546.08	214
1547.13	206
1548.18	206
1549.23	204
1550.28	208
1551.33	214
1552.38	202
1553.43	194
1554.48	214
1555.53	200
1556.57	192
1557.62	202
1558.67	212
1559.72	202
1560.77	208
1561.82	200
1562.87	210
1563.92	200
1564.96	198
1566.01	214
1567.06	198
1568.11	208
1569.15	200
1570.2	194
1571.25	180
1572.29	200
1573.34	192
1574.39	194
1575.43	198
1576.48	194
1577.53	200
1578.57	186
1579.62	196
1580.66	202
1581.71	212
1582.75	202
1583.8	214
1584.84	210
1585.89	210
1586.93	194
1587.98	186
1589.02	190
1590.06	182
1591.11	194
1592.15	206
1593.2	200
1594.24	192
1595.28	200
1596.33	180
1597.37	186
1598.41	198
1599.45	202
1600.5	186
1601.54	198
1602.58	198
1603.62	190
1604.66	194
1605.7	204
1606.75	202
1607.79	208
1608.83	208
1609.87	204
1610.91	182
1611.95	196
1612.99	194
1614.03	194
1615.07	190
1616.11	206
1617.15	188
1618.19	176
1619.23	184
1620.27	188
1621.31	186
1622.35	196
1623.39	188
1624.43	186
1625.46	174
1626.5	194
1627.54	188
1628.58	178
1629.62	190
1630.65	184
1631.69	194
1632.73	186
1633.77	176
1634.8	178
1635.84	194
1636.88	178
1637.91	192
1638.95	188
1639.99	188
1641.02	178
1642.06	182
1643.09	172
1644.13	172
1645.16	192
1646.2	184
1647.23	186
1648.27	188
1649.3	186
1650.34	180
1651.37	180
1652.41	188
1653.44	192
1654.47	178
1655.51	182
1656.54	184
1657.57	166
1658.61	180
1659.64	174
1660.67	190
1661.71	176
1662.74	198
1663.77	168
1664.81	178
1665.84	180
1666.87	188
1667.9	168
1668.93	156
1669.96	194
1671	156
1672.03	186
1673.06	182
1674.09	168
1675.12	190
1676.15	160
1677.18	172
1678.21	180
1679.24	166
1680.27	178
1681.3	174
1682.33	168
1683.36	174
1684.39	176
1685.42	160
1686.45	190
1687.47	182
1688.5	166
1689.53	180
1690.56	164
1691.59	194
1692.62	172
1693.64	180
1694.67	174
1695.7	172
1696.73	170
1697.75	172
1698.78	174
1699.81	170
1700.83	172
1701.86	184
1702.89	170
1703.91	168
1704.94	170
1705.97	162
1706.99	160
1708.02	178
1709.04	162
1710.07	180
1711.09	172
1712.12	158
1713.14	178
1714.17	176
1715.19	182
1716.22	160
1717.24	182
1718.26	166
1719.29	174
1720.31	176
1721.33	170
1722.36	166
1723.38	162
1724.4	176
1725.43	176
1726.45	184
1727.47	174
1728.49	174
1729.52	166
1730.54	160
1731.56	152
1732.58	158
1733.6	178
1734.63	158
1735.65	172
1736.67	146
1737.69	180
1738.71	168
1739.73	172
1740.75	158
1741.77	170
1742.79	160
1743.81	182
1744.83	174
1745.85	164
1746.87	182
1747.89	170
1748.91	168
1749.93	168
1750.95	166
1751.97	168
1752.98	160
1754	168
1755.02	184
1756.04	170
1757.06	174
1758.07	154
1759.09	160
1760.11	172
1761.13	180
1762.14	162
1763.16	170
1764.18	176
1765.19	174
1766.21	160
1767.23	160
1768.24	162
1769.26	168
1770.28	170
1771.29	166
1772.31	174
1773.32	178
1774.34	154
1775.35	164
1776.37	166
1777.38	168
1778.4	176
1779.41	162
1780.43	174
1781.44	168
1782.45	170
1783.47	182
1784.48	172
1785.49	160
1786.51	178
1787.52	172
1788.53	162
1789.55	174
1790.56	166
1791.57	164
1792.58	174
1793.6	158
1794.61	174
1795.62	164
1796.63	170
1797.64	170
1798.66	176
1799.67	152
1800.68	172
1801.69	162
1802.7	166
1803.71	166
1804.72	148
1805.73	172
1806.74	160
1807.75	174
1808.76	170
1809.77	158
1810.78	174
1811.79	158
1812.8	168
1813.81	170
1814.82	168
1815.83	176
1816.84	170
1817.84	154
1818.85	158
1819.86	166
1820.87	152
1821.88	158
1822.88	152
1823.89	172
1824.9	164
1825.91	162
1826.91	182
1827.92	178
1828.93	164
1829.93	166
1830.94	176
1831.95	180
1832.95	164
1833.96	172
1834.97	164
1835.97	174
1836.98	170
1837.98	164
1838.99	166
1839.99	160
1841	152
1842	154
1843.01	158
1844.01	168
1845.02	162
1846.02	156
1847.02	166
1848.03	164
1849.03	184
1850.03	174
1851.04	170
1852.04	168
1853.04	156
1854.05	154
1855.05	162
1856.05	160
1857.05	156
1858.06	140
1859.06	156
1860.06	162
1861.06	162
1862.06	146
1863.07	170
1864.07	164
1865.07	172
1866.07	176
1867.07	160
1868.07	168
1869.07	180
1870.07	174
1871.07	154
1872.07	168
1873.07	168
1874.07	162
1875.07	172
1876.07	174
1877.07	164
1878.07	174
1879.07	168
1880.07	158
1881.07	166
1882.07	162
1883.06	164
1884.06	148
1885.06	174
1886.06	172
1887.06	180
1888.05	158
1889.05	160
1890.05	160
1891.05	164
1892.04	166
1893.04	156
1894.04	178
1895.03	174
1896.03	156
1897.03	156
1898.02	160
1899.02	160
1900.01	168
1901.01	160
1902	144
1903	158
1903.99	162
1904.99	160
1905.98	164
1906.98	148
1907.97	164
1908.97	170
1909.96	154
1910.96	170
1911.95	146
1912.94	170
1913.94	182
1914.93	178
1915.93	146
1916.92	164
1917.91	162
1918.9	170
1919.9	158
1920.89	166
1921.88	166
1922.87	162
1923.87	166
1924.86	170
1925.85	170
1926.84	176
1927.83	172
1928.82	170
1929.82	172
1930.81	160
1931.8	164
1932.79	164
1933.78	162
1934.77	174
1935.76	160
1936.75	180
1937.74	156
1938.73	182
1939.72	174
1940.71	168
1941.7	160
1942.69	164
1943.68	162
1944.67	160
1945.65	170
1946.64	160
1947.63	178
1948.62	146
1949.61	158
1950.6	172
1951.58	170
1952.57	156
1953.56	162
1954.55	166
1955.53	172
1956.52	164
1957.51	168
1958.5	166
1959.48	158
1960.47	174
1961.45	168
1962.44	152
1963.43	172
1964.41	144
1965.4	164
1966.38	168
1967.37	150
1968.35	170
1969.34	158
1970.32	178
1971.31	156
1972.29	162
1973.28	180
1974.26	162
1975.25	172
1976.23	162
1977.22	146
1978.2	170
1979.18	154
1980.17	170
1981.15	160
1982.13	180
1983.12	164
1984.1	168
1985.08	168
1986.06	164
1987.05	152
1988.03	178
1989.01	158
1989.99	162
1990.97	166
1991.96	158
1992.94	168
1993.92	168
1994.9	164
1995.88	166
1996.86	168
1997.84	162
1998.82	158
1999.8	158
2000.78	164
2001.76	144
2002.74	168
2003.72	154
2004.7	164
2005.68	162
2006.66	164
2007.64	176
2008.62	160
2009.6	160
2010.58	158
2011.56	174
2012.54	164
2013.51	158
2014.49	166
2015.47	150
2016.45	182
2017.43	168
2018.4	162
2019.38	168
2020.36	146
2021.34	168
2022.31	166
2023.29	168
2024.27	160
2025.24	160
2026.22	162
2027.2	168
2028.17	170
2029.15	172
2030.12	148
2031.1	156
2032.07	170
2033.05	168
2034.03	156
2035	170
2035.98	168
2036.95	172
2037.93	166
2038.9	142
2039.87	154
2040.85	170
2041.82	172
2042.8	162
2043.77	158
2044.74	162
2045.72	172
2046.69	162
2047.66	166
2048.64	152
2049.61	164
2050.58	170
2051.55	158
2052.53	156
2053.5	150
2054.47	176
2055.44	166
2056.41	160
2057.39	164
2058.36	164
2059.33	156
2060.3	152
2061.27	164
2062.24	152
2063.21	162
2064.18	166
2065.15	156
2066.12	156
2067.09	170
2068.06	154
2069.03	162
2070	162
2070.97	178
2071.94	160
2072.91	154
2073.88	162
2074.85	164
2075.82	164
2076.79	178
2077.76	156
2078.73	164
2079.69	160
2080.66	162
2081.63	176
2082.6	170
2083.56	172
2084.53	166
2085.5	158
2086.47	170
2087.43	154
2088.4	154
2089.37	174
2090.33	158
2091.3	140
2092.27	176
2093.23	158
2094.2	172
2095.17	164
2096.13	148
2097.1	152
2098.06	162
2099.03	158
2099.99	166
2100.96	162
2101.92	162
2102.89	164
2103.85	168
2104.82	160
2105.78	154
2106.74	174
2107.71	162
2108.67	156
2109.64	172
2110.6	162
2111.56	162
2112.53	164
2113.49	154
2114.45	156
2115.41	152
2116.38	152
2117.34	162
2118.3	156
2119.26	158
2120.23	166
2121.19	170
2122.15	142
2123.11	160
2124.07	158
2125.03	160
2126	166
2126.96	156
2127.92	156
2128.88	164
2129.84	162
2130.8	164
2131.76	158
2132.72	162
2133.68	172
2134.64	168
2135.6	158
2136.56	178
2137.52	172
2138.48	164
2139.44	158
2140.4	162
2141.35	154
2142.31	162
2143.27	158
2144.23	180
2145.19	158
2146.15	178
2147.1	162
2148.06	150
2149.02	166
2149.98	168
2150.94	162
2151.89	162
2152.85	156
2153.81	160
2154.76	150
2155.72	166
2156.68	160
2157.63	154
2158.59	152
2159.55	156
2160.5	158
2161.46	156
2162.41	146
2163.37	166
2164.32	154
2165.28	168
2166.23	170
2167.19	168
2168.14	166
2169.1	150
2170.05	144
2171.01	170
2171.96	156
2172.91	172
2173.87	158
2174.82	154
2175.78	160
2176.73	146
2177.68	164
2178.64	162
2179.59	160
2180.54	152
2181.49	154
2182.45	148
2183.4	170
2184.35	146
2185.3	158
2186.26	148
2187.21	168
2188.16	144
2189.11	144
2190.06	176
2191.01	162
2191.96	168
2192.92	158
2193.87	176
2194.82	154
2195.77	162
2196.72	164
2197.67	162
2198.62	158
2199.57	148
2200.52	174
2201.47	148
2202.42	154
2203.37	152
2204.32	156
2205.27	168
2206.22	154
2207.16	158
2208.11	158
2209.06	176
2210.01	140
2210.96	148
2211.91	158
2212.85	150
2213.8	156
2214.75	174
2215.7	148
2216.64	156
2217.59	152
2218.54	152
2219.49	162
2220.43	168
2221.38	162
2222.33	160
2223.27	169.971
2224.22	148.261
2225.16	155.964
2226.11	156.329
2227.06	144.374
2228	154.348
2228.95	162.488
2229.89	153.877
2230.84	149.709
2231.78	159.5
2232.73	163.367
2233.67	159.313
2234.62	155.496
2235.56	156.814
2236.51	160.576
2237.45	147.709
2238.4	148.34
2239.34	151.989
2240.28	171.458
2241.23	154.869
2242.17	163.968
2243.11	162.28
2244.06	160.106
2245	160.111
2245.94	147.92
2246.89	166.37
2247.83	162.604
2248.77	153.719
2249.71	146.704
2250.66	155.515
2251.6	140.919
2252.54	163.605
2253.48	152.786
2254.42	155.791
2255.37	154.76
2256.31	157.966
2257.25	152.186
2258.19	150
2259.13	157.687
2260.07	144.082
2261.01	153.578
2261.95	163.749
2262.89	166.3
2263.83	154.96
2264.77	151.047
2265.71	152.108
2266.65	148.667
2267.59	161.456
2268.53	159.096
2269.47	155.7
2270.41	157.246
2271.35	150.954
2272.29	152.941
2273.23	163.133
2274.17	155.064
2275.1	147.439
2276.04	149.859
2276.98	151.213
2277.92	151.805
2278.86	156.261
2279.8	159.101
2280.73	160.742
2281.67	156.768
2282.61	159.124
2283.55	155.146
2284.48	153.033
2285.42	151.609
2286.36	156.905
2287.29	159.756
2288.23	160.326
2289.17	156.712
2290.1	155.547
2291.04	159.5
2291.98	154.246
2292.91	163.176
2293.85	152.372
2294.78	151.462
2295.72	161.445
2296.65	157.978
2297.59	153.18
2298.52	149.179
2299.46	160.261
2300.39	148.392
2301.33	152.04
2302.26	155.226
2303.2	157.265
2304.13	161.438
2305.06	157.544
2306	163.805
2306.93	156.678
2307.87	157.436
2308.8	159.16
2309.73	156.95
2310.67	165.888
2311.6	166.824
2312.53	156.305
2313.46	161.04
2314.4	163.247
2315.33	161.06
2316.26	155.428
2316.69	150
2317.62	164
2318.56	156
2319.5	164
2320.43	168
2321.37	162
2322.31	146
2323.24	160
2324.18	150
2325.12	158
2326.05	152
2326.99	162
2327.92	158
2328.86	152
2329.79	162
2330.73	148
2331.66	170
2332.6	162
2333.53	160
2334.47	156
2335.4	156
2336.34	156
2337.27	160
2338.2	150
2339.14	156
2340.07	144
2341.01	154
2341.94	158
2342.87	162
2343.81	162
2344.74	162
2345.67	152
2346.6	170
2347.54	160
2348.47	164
2349.4	150
2350.33	162
2351.27	166
2352.2	148
2353.13	164
2354.06	154
2354.99	146
2355.93	140
2356.86	140
2357.79	172
2358.72	142
2359.65	136
2360.58	148
2361.51	142
2362.44	156
2363.37	184
2364.3	140
2365.23	152
2366.16	156
2367.09	140
2368.02	164
2368.95	156
2369.88	150
2370.81	162
2371.74	156
2372.67	138
2373.6	156
2374.52	156
2375.45	162
2376.38	150
2377.31	150
2378.24	140
2379.17	148
2380.09	146
2381.02	164
2381.95	158
2382.88	156
2383.8	148
2384.73	156
2385.66	134
2386.58	154
2387.51	160
2388.44	136
2389.36	144
2390.29	146
2391.22	150
2392.14	128
2393.07	140
2393.99	148
2394.92	134
2395.85	148
2396.77	150
2397.7	138
2398.62	148
2399.55	138
2400.47	150
2401.4	142
2402.32	136
2403.25	138
2404.17	150
2405.09	136
2406.02	156
2406.94	152
2407.86	144
2408.79	146
2409.71	142
2410.63	138
2411.56	138
2412.48	142
2413.4	144
2414.33	136
2415.25	134
2416.17	144
2417.09	158
2418.02	140
2418.94	130
2419.86	152
2420.78	142
2421.7	146
2422.63	140
2423.55	148
2424.47	134
2425.39	136
2426.31	142
2427.23	140
2428.15	140
2429.07	138
2429.99	130
2430.91	138
2431.83	130
2432.75	142
2433.67	138
2434.59	134
2435.51	144
2436.43	148
2437.35	124
2438.27	146
2439.19	134
2440.11	144
2441.03	138
2441.95	146
2442.86	138
2443.78	124
2444.7	134
2445.62	142
2446.54	140
2447.46	152
2448.37	146
2449.29	146
2450.21	144
2451.13	136
2452.04	134
2452.96	136
2453.88	134
2454.79	130
2455.71	124
2456.63	134
2457.54	130
2458.46	134
2459.38	136
2460.29	126
2461.21	124
2462.12	138
2463.04	124
2463.95	140
2464.87	146
2465.78	128
2466.7	128
2467.61	126
2468.53	136
2469.44	132
2470.36	122
2471.27	120
2472.19	124
2473.1	136
2474.01	136
2474.93	126
2475.84	122
2476.76	128
2477.67	134
2478.58	132
2479.5	128
2480.41	132
2481.32	138
2482.23	134
2483.15	138
2484.06	120
2484.97	132
2485.88	128
2486.8	128
2487.71	134
2488.62	136
2489.53	122
2490.44	134
2491.35	136
2492.26	126
2493.18	132
2494.09	124
2495	130
2495.91	126
2496.82	122
2497.73	116
2498.64	126
2499.55	124
2500.46	136
2501.37	128
2502.28	122
2503.19	142
2504.1	126
2505.01	128
2505.92	126
2506.83	126
2507.74	120
2508.65	132
2509.55	116
2510.46	146
2511.37	110
2512.28	116
2513.19	146
2514.09	124
2515	144
2515.91	112
2516.82	120
2517.73	120
2518.63	114
2519.54	138
2520.45	122
2521.35	128
2522.26	134
2523.17	116
2524.07	122
2524.98	122
2525.89	120
2526.79	126
2527.7	126
2528.6	122
2529.51	124
2530.42	128
2531.32	126
2532.23	116
2533.13	126
2534.04	114
2534.94	134
2535.85	116
2536.75	120
2537.66	106
2538.56	112
2539.47	118
2540.37	118
2541.27	120
2542.18	116
2543.08	122
2543.98	118
2544.89	114
2545.79	124
2546.7	102
2547.6	110
2548.5	124
2549.4	130
2550.31	118
2551.21	126
2552.11	130
2553.01	108
2553.92	112
2554.82	112
2555.72	118
2556.62	116
2557.52	122
2558.42	104
2559.33	130
2560.23	114
2561.13	116
2562.03	102
2562.93	106
2563.83	120
2564.73	122
2565.63	114
2566.53	106
2567.43	126
2568.33	114
2569.23	106
2570.13	110
2571.03	114
2571.93	122
2572.83	106
2573.73	114
2574.63	112
2575.53	108
2576.43	104
2577.33	122
2578.22	120
2579.12	110
2580.02	110
2580.92	118
2581.82	112
2582.72	94
2583.61	108
2584.51	110
2585.41	114
2586.31	112
2587.2	120
2588.1	110
2589	108
2589.89	116
2590.79	114
2591.69	100
2592.58	108
2593.48	108
2594.38	92
2595.27	104
2596.17	100
2597.06	100
2597.96	102
2598.86	104
2599.75	106
2600.65	96
2601.54	114
2602.44	106
2603.33	120
2604.23	114
2605.12	94
2606.02	94
2606.91	112
2607.81	110
2608.7	98
2609.59	100
2610.49	94
2611.38	98
2612.27	110
2613.17	106
2614.06	104
2614.95	94
2615.85	98
2616.74	110
2617.63	112
2618.53	106
2619.42	104
2620.31	92
2621.2	106
2622.1	120
2622.99	106
2623.88	110
2624.77	96
2625.66	102
2626.55	104
2627.45	102
2628.34	94
2629.23	90
2630.12	110
2631.01	104
2631.9	98
2632.79	92
2633.68	106
2634.57	96
2635.46	102
2636.35	100
2637.24	102
2638.13	104
2639.02	102
2639.91	98
2640.8	94
2641.69	108
2642.58	102
2643.47	100
2644.36	88
2645.25	86
2646.14	104
2647.02	100
2647.91	98
2648.8	102
2649.69	92
2650.58	94
2651.46	106
2652.35	92
2653.24	102
2654.13	86
2655.01	90
2655.9	90
2656.79	104
2657.68	108
2658.56	94
2659.45	90
2660.34	86
2661.22	100
2662.11	90
2662.99	88
2663.88	96
2664.77	94
2665.65	92
2666.54	96
2667.42	90
2668.31	94
2669.2	92
2670.08	82
2670.96	92
2671.85	82
2672.73	94
2673.62	100
2674.5	100
2675.39	100
2676.27	84
2677.16	94
2678.04	98
2678.93	92
2679.81	90
2680.69	94
2681.58	90
2682.46	94
2683.34	86
2684.23	86
2685.11	88
2685.99	88
2686.87	84
2687.76	90
2688.64	92
2689.52	84
2690.4	86
2691.28	88
2692.17	82
2693.05	88
2693.93	108
2694.81	96
2695.69	86
2696.57	94
2697.46	84
2698.34	92
2699.22	96
2700.1	84
2700.98	88
2701.86	88
2702.74	96
2703.62	86
2704.5	84
2705.38	90
2706.26	86
2707.14	80
2708.02	82
2708.9	88
2709.78	88
2710.66	100
2711.54	92
2712.42	84
2713.3	94
2714.17	90
2715.05	102
2715.93	88
2716.81	84
2717.69	94
2718.57	90
2719.44	86
2720.32	86
2721.2	92
2722.08	76
2722.95	98
2723.83	80
2724.71	84
2725.59	86
2726.46	82
2727.34	74
2728.22	74
2729.09	82
2729.97	82
2730.85	84
2731.72	98
2732.6	86
2733.47	84
2734.35	88
2735.23	90
2736.1	78
2736.98	82
2737.85	74
2738.73	76
2739.6	86
2740.48	74
2741.35	70
2742.23	70
2743.1	78
2743.98	84
2744.85	84
2745.72	82
2746.6	84
2747.47	78
2748.35	100
2749.22	76
2750.09	92
2750.97	90
2751.84	78
2752.71	82
2753.59	72
2754.46	78
2755.33	70
2756.2	84
2757.08	76
2757.95	72
2758.82	78
2759.69	74
2760.57	90
2761.44	86
2762.31	90
2763.18	88
2764.05	82
2764.92	70
2765.79	66
2766.67	82
2767.54	82
2768.41	80
2769.28	70
2770.15	70
2771.02	76
2771.89	80
2772.76	74
2773.63	88
2774.5	86
2775.37	80
2776.24	76
2777.11	78
2777.98	70
2778.85	102
2779.72	80
2780.59	82
2781.46	72
2782.32	90
2783.19	86
2784.06	64
2784.93	62
2785.8	80
2786.67	76
2787.53	72
2788.4	76
2789.27	76
2790.14	80
2791.01	76
2791.87	70
2792.74	74
2793.61	78
2794.47	82
2795.34	70
2796.21	74
2797.07	74
2797.94	62
2798.81	72
2799.67	66
2800.54	74
2801.41	62
2802.27	74
2803.14	78
2804	84
2804.87	62
2805.74	84
2806.6	74
2807.47	70
2808.33	68
2809.2	68
2810.06	58
2810.93	68
2811.79	80
2812.65	74
2813.52	72
2814.38	78
2815.25	66
2816.11	74
2816.98	70
2817.84	68
2818.7	72
2819.56	62
2820.43	62
2821.29	70
2822.16	60
2823.02	68
2823.88	78
2824.74	62
2825.61	72
2826.47	72
2827.33	62
2828.19	74
2829.05	78
2829.92	58
2830.78	66
2831.64	68
2832.5	68
2833.36	70
2834.23	64
2835.09	72
2835.95	68
2836.81	70
2837.67	62
2838.53	68
2839.39	64
2840.25	68
2841.11	74
2841.97	58
2842.83	54
2843.69	68
2844.55	66
2845.41	68
2846.27	68
2847.13	72
2847.99	60
2848.85	68
2849.71	64
2850.57	72
2851.43	66
2852.28	72
2853.14	54
2854	50
2854.86	66
2855.72	76
2856.58	72
2857.43	62
2858.29	64
2859.15	60
2860.01	68
2860.86	66
2861.72	56
2862.58	66
2863.44	62
2864.29	54
2865.15	62
2866.01	60
2866.86	66
2867.72	66
2868.58	52
2869.43	66
2870.29	74
2871.14	52
2872	66
2872.86	68
2873.71	61
2874.57	54
2875.42	54
2876.28	66
2877.13	72
2877.99	64
2878.84	70
2879.7	62
2880.55	54
2881.41	62
2882.26	64
2883.11	64
2883.97	56
2884.82	64
2885.68	62
2886.53	60
2887.39	60
2888.24	58
2889.09	60
2889.94	54
2890.8	58
2891.65	62
2892.5	62
2893.36	68
2894.21	64
2895.06	56
2895.91	50
2896.77	52
2897.62	56
2898.47	66
2899.32	62
2900.17	66
2901.03	56
2901.88	64
2902.73	56
2903.58	66
2904.43	58
2905.28	56
2906.13	56
2906.98	58
2907.84	62
2908.69	62
2909.54	66
2910.39	54
2911.24	58
2912.09	60
2912.94	48
2913.79	60
2914.64	46
2915.49	48
2916.34	60
2917.19	50
2918.03	68
2918.88	54
2919.73	68
2920.58	54
2921.43	54
2922.28	52
2923.13	52
2923.98	62
2924.82	54
2925.67	56
2926.52	62
2927.37	56
2928.22	58
2929.06	54
2929.91	60
2930.76	56
2931.61	56
2932.45	58
2933.3	66
2934.15	54
2934.99	70
2935.84	56
2936.69	52
2937.53	48
2938.38	54
2939.23	60
2940.07	54
2940.92	48
2941.76	50
2942.61	46
2943.46	60
2944.3	60
2945.15	54
2945.99	52
2946.84	50
2947.68	60
2948.53	56
2949.37	58
2950.22	56
2951.06	56
2951.9	60
2952.75	56
2953.59	56
2954.44	60
2955.28	54
2956.12	56
2956.97	56
2957.81	56
2958.65	54
2959.5	60
2960.34	62
2961.18	52
2962.03	50
2962.87	54
2963.71	60
2964.56	56
2965.4	50
2966.24	60
2967.08	58
2967.92	52
2968.77	58
2969.61	54
2970.45	54
2971.29	60
2972.13	54
2972.97	52
2973.82	56
2974.66	58
2975.5	54
2976.34	52
2977.18	50
2978.02	50
2978.86	60
2979.7	52
2980.54	52
2981.38	46
2982.22	54
2983.06	50
2983.9	48
2984.74	56
2985.58	46
2986.42	48
2987.26	52
2988.1	60
2988.94	48
2989.78	44
2990.61	54
2991.45	46
2992.29	58
2993.13	54
2993.97	50
2994.81	54
2995.64	50
2996.48	48
2997.32	48
2998.16	56
2999	46
2999.83	48
