#Acq. time (s)=	10
#Accumulations=	1
#Range (cm-¹)=	100...3000
#Windows=	3
#Autofocus=	Off
#AutoExposure=	Off
#Spike filter=	Off
#Delay time (s)=	0
#Binning=	1
#Readout mode=	Signal
#DeNoise=	Off
#ICS correction=	Off
#Dark correction=	Off
#Inst. Process=	Off
#Instrument=	LabRAM HR Evol
#Detector=	Syncerity OE
#Objective=	x100_VIS
#Grating=	600 (500nm)
#ND Filter=	3.2%
#Laser=	633nm_Edge
#Hole=	100.021
#Range=	Visible
#Project=	Omar
#Sample=	26-06-23
#Site=	2
#Title=	Organic
#Remark=	
#Date=	26.06.2023 16:24
#Acquired=	26.06.2023 16:24:36
101.018	3824
102.302	3816
103.586	3954
104.869	3850
106.152	3836
107.435	3834
108.717	3814
109.999	3894
111.281	3880
112.563	3920
113.845	3830
115.126	3866
116.407	3836
117.688	3882
118.969	3916
120.249	3914
121.53	3942
122.81	3872
124.09	4026
125.369	3976
126.649	3960
127.928	4028
129.207	3952
130.486	3996
131.765	4010
133.043	4034
134.321	3960
135.599	4084
136.877	3994
138.155	4042
139.432	4028
140.708	4028
141.985	4044
143.261	4002
144.538	4034
145.814	4030
147.09	4002
148.366	4038
149.641	4052
150.916	4150
152.191	4096
153.466	4106
154.741	4114
156.016	4086
157.289	4110
158.563	4146
159.837	4034
161.111	4146
162.385	4080
163.657	4136
164.93	4112
166.203	4246
167.476	4158
168.747	4142
170.019	4192
171.291	4118
172.562	4212
173.834	4108
175.105	4166
176.377	4216
177.646	4180
178.917	4120
180.188	4138
181.457	4234
182.727	4202
183.996	4346
185.266	4214
186.536	4238
187.804	4304
189.073	4286
190.342	4246
191.609	4268
192.878	4254
194.145	4254
195.413	4378
196.681	4322
197.948	4364
199.215	4310
200.481	4312
201.749	4264
203.014	4410
204.281	4376
205.546	4426
206.813	4404
208.077	4404
209.343	4378
210.608	4466
211.873	4420
213.137	4482
214.402	4478
215.666	4444
216.93	4438
218.194	4496
219.458	4556
220.721	4486
221.983	4512
223.247	4538
224.509	4550
225.772	4536
227.034	4490
228.295	4596
229.558	4564
230.819	4540
232.081	4620
233.342	4520
234.602	4618
235.864	4672
237.124	4596
238.384	4670
239.645	4760
240.904	4662
242.164	4634
243.423	4720
244.683	4658
245.941	4654
247.2	4760
248.46	4740
249.717	4674
250.975	4674
252.233	4654
253.492	4720
254.749	4774
256.006	4748
257.263	4780
258.519	4698
259.777	4652
261.033	4690
262.289	4814
263.545	4652
264.8	4760
266.057	4738
267.312	4766
268.567	4828
269.822	4804
271.076	4776
272.331	4808
273.585	4882
274.839	4678
276.094	4734
277.347	4702
278.601	4868
279.854	4790
281.107	4880
282.359	4832
283.612	4930
284.864	4870
286.116	4786
287.368	4872
288.62	4902
289.871	4884
291.123	4966
292.374	4992
293.625	4968
294.875	4990
296.126	4976
297.376	4982
298.626	4976
299.876	5014
301.126	5040
302.375	5022
303.625	4924
304.874	5004
306.122	5062
307.371	5140
308.62	5108
309.866	5098
311.114	5086
312.362	5080
313.61	5134
314.857	5124
316.105	5120
317.352	5178
318.599	5082
319.844	5084
321.09	5134
322.337	5200
323.583	5118
324.828	5082
326.073	5176
327.318	5126
328.563	5178
329.808	5198
331.053	5252
332.296	5120
333.541	5208
334.785	5176
336.029	5196
337.272	5246
338.515	5248
339.759	5196
341.001	5216
342.244	5310
343.486	5154
344.728	5220
345.97	5256
347.212	5382
348.453	5364
349.695	5308
350.936	5364
352.176	5316
353.418	5316
354.659	5372
355.898	5392
357.139	5436
358.378	5332
359.618	5428
360.858	5356
362.097	5388
363.336	5432
364.574	5500
365.813	5400
367.051	5466
368.29	5436
369.527	5480
370.766	5480
372.002	5424
373.241	5424
374.477	5462
375.715	5376
376.951	5398
378.188	5474
379.424	5446
380.66	5462
381.896	5492
383.132	5428
384.367	5444
385.603	5498
386.838	5504
388.072	5556
389.307	5506
390.541	5500
391.776	5400
393.01	5476
394.243	5450
395.477	5536
396.71	5502
397.943	5508
399.177	5506
400.409	5622
401.641	5636
402.875	5540
404.106	5658
405.338	5564
406.57	5646
407.802	5654
409.032	5692
410.263	5622
411.495	5664
412.725	5844
413.955	5742
415.185	5786
416.417	5788
417.646	5780
418.875	5906
420.104	5832
421.335	5760
422.564	5946
423.792	5922
425.02	5888
426.249	5886
427.477	5972
428.706	5906
429.933	5966
431.161	5966
432.388	6038
433.615	5936
434.841	5976
436.068	6096
437.294	5984
438.522	6094
439.748	6022
440.974	5970
442.199	6146
443.425	6120
444.65	6054
445.875	6090
447.1	6078
448.324	6124
449.549	6072
450.773	6086
451.997	6186
453.221	6120
454.445	6072
455.668	6154
456.891	6130
458.114	6086
459.337	6066
460.56	6164
461.782	6018
463.005	6112
464.227	6112
465.447	6232
466.669	6074
467.89	6280
469.112	6128
470.333	6128
471.554	6162
472.774	6182
473.995	6208
475.214	6182
476.434	6260
477.654	6232
478.874	6252
480.093	6268
481.312	6214
482.53	6290
483.749	6350
484.968	6360
486.186	6268
487.405	6408
488.622	6474
489.84	6308
491.057	6310
492.275	6486
493.491	6428
494.708	6382
495.925	6532
497.141	6326
498.357	6484
499.574	6446
500.789	6526
502.005	6436
503.221	6592
504.435	6522
505.65	6516
506.866	6528
508.079	6610
509.294	6628
510.509	6570
511.722	6586
512.936	6646
514.149	6560
515.363	6616
516.577	6598
517.789	6512
519.002	6586
520.214	6586
521.427	6568
522.638	6566
523.851	6530
525.062	6606
526.274	6658
527.485	6684
528.697	6644
529.907	6616
531.118	6610
532.328	6598
533.539	6628
534.748	6694
535.959	6664
537.168	6706
538.379	6670
539.587	6666
540.796	6644
542.005	6650
543.214	6786
544.423	6802
545.631	6572
546.838	6818
548.047	6718
549.254	6762
550.461	6754
551.669	6792
552.876	6686
554.082	6852
555.29	6818
556.496	6688
557.701	6754
558.909	6870
560.114	6810
561.319	6774
562.524	6876
563.731	6798
564.935	6942
566.14	6854
567.344	6904
568.549	6952
569.753	7078
570.957	7016
572.161	6888
573.364	7030
574.568	6986
575.771	7064
576.974	7052
578.177	7032
579.379	7046
580.581	7070
581.785	7150
582.987	7156
584.188	7102
585.39	7176
586.591	7102
587.792	7080
588.993	7224
590.193	7210
591.394	7220
592.594	7204
593.796	7234
594.996	7126
596.195	7348
597.395	7270
598.594	7224
599.793	7350
600.992	7346
602.191	7308
603.39	7370
604.588	7334
605.786	7474
606.984	7418
608.181	7368
609.378	7438
610.576	7480
611.773	7464
612.97	7448
614.167	7532
615.364	7568
616.56	7594
617.757	7560
618.953	7594
620.149	7666
621.343	7732
622.539	7614
623.734	7738
624.929	7702
626.124	7900
627.319	7792
628.512	7874
629.707	7774
630.901	7802
632.095	7834
633.289	7910
634.481	7898
635.675	7968
636.868	7998
638.061	8046
639.253	8012
640.446	7966
641.638	8030
642.831	7942
644.021	8054
645.213	7988
646.405	8188
647.595	8118
648.787	8106
649.978	8256
651.168	8154
652.359	8336
653.549	8162
654.738	8314
655.929	8276
657.117	8302
658.307	8260
659.497	8226
660.685	8408
661.875	8398
663.063	8362
664.252	8390
665.439	8344
666.628	8348
667.816	8498
669.003	8460
670.191	8466
671.378	8406
672.565	8418
673.751	8522
674.939	8550
676.124	8444
677.311	8536
678.497	8514
679.682	8558
680.868	8670
682.053	8594
683.239	8646
684.424	8624
685.609	8626
686.793	8738
687.977	8584
689.162	8652
690.346	8758
691.529	8724
692.714	8754
693.897	8840
695.081	8850
696.264	8892
697.446	8804
698.63	8848
699.812	8908
700.993	8950
702.175	8946
703.358	8926
704.539	8986
705.72	9028
706.901	8948
708.083	9096
709.264	9158
710.444	9060
711.625	9038
712.806	9224
713.986	9230
715.165	9100
716.345	9228
717.524	9296
718.705	9274
719.884	9304
721.062	9304
722.241	9400
723.419	9384
724.597	9332
725.775	9448
726.954	9426
728.132	9576
729.31	9550
730.487	9494
731.664	9442
732.841	9638
734.017	9662
735.194	9678
736.37	9724
737.546	9692
738.722	9790
739.898	9640
741.074	9760
742.249	9914
743.424	9888
744.599	9756
745.774	9758
746.949	9912
748.123	9882
749.298	10012
750.472	10050
751.646	9982
752.819	9938
753.993	10036
755.166	10052
756.34	10004
757.511	10120
758.684	10018
759.857	10102
761.029	10034
762.202	10230
763.374	10156
764.546	10212
765.716	10160
766.888	10276
768.059	10358
769.23	10272
770.401	10348
771.571	10292
772.741	10476
773.912	10418
775.082	10540
776.251	10440
777.421	10560
778.59	10516
779.76	10548
780.928	10626
782.097	10598
783.266	10526
784.434	10714
785.602	10624
786.771	10604
787.938	10708
789.106	10790
790.274	10816
791.44	10836
792.608	10780
793.775	10964
794.941	10848
796.108	10940
797.273	10884
798.44	11048
799.606	10934
800.771	11088
801.937	11176
803.102	11182
804.268	11160
805.432	11226
806.597	11298
807.761	11382
808.926	11368
810.09	11308
811.254	11442
812.417	11444
813.582	11638
814.744	11484
815.908	11674
817.071	11554
818.234	11710
819.396	11756
820.558	11672
821.721	11758
822.883	11778
824.045	11750
825.206	11862
826.367	11928
827.529	11810
828.69	11978
829.85	12068
831.012	12102
832.172	12186
833.332	12192
834.493	12386
835.653	12440
836.812	12352
837.972	12364
839.131	12338
840.29	12432
841.449	12456
842.609	12510
843.767	12792
844.925	12456
846.083	12424
847.242	12576
848.399	12804
849.557	12660
850.714	12886
851.871	12766
853.029	12922
854.186	12888
855.342	12870
856.498	12788
857.654	13016
858.81	13076
859.966	13108
861.122	12960
862.278	13120
863.434	13200
864.589	13236
865.744	13322
866.898	13282
868.053	13336
869.207	13380
870.361	13290
871.515	13430
872.669	13424
873.822	13398
874.976	13558
876.129	13614
877.282	13566
878.435	13506
879.588	13670
880.74	13634
881.893	13812
883.045	13726
884.197	13818
885.349	13822
886.5	13810
887.652	13822
888.802	13916
889.953	14044
891.104	13874
892.254	14088
893.405	14018
894.555	13948
895.706	14056
896.854	14040
898.004	14002
899.154	14212
900.303	14066
901.453	14332
902.6	14194
903.749	14326
904.898	14258
906.047	14176
907.194	14366
908.342	14446
909.49	14508
910.638	14476
911.785	14428
912.932	14560
914.08	14700
915.225	14672
916.372	14570
917.519	14772
918.666	14768
919.811	14712
920.957	14744
922.102	14702
923.248	14882
924.394	14918
925.538	15002
926.684	14996
927.828	15096
928.973	15094
930.118	15264
931.261	15192
932.406	15302
933.549	15088
934.693	15402
935.836	15374
936.979	15352
938.122	15492
939.265	15708
940.407	15562
941.55	15512
942.692	15764
943.835	15676
944.976	15620
946.118	15708
947.259	15760
948.401	15804
949.542	15754
950.682	15968
951.824	15982
952.964	16132
954.105	16110
955.245	16086
956.385	16304
957.525	16118
958.664	16396
959.803	16358
960.944	16252
962.082	16398
963.221	16448
964.36	16492
965.498	16548
966.636	16624
967.774	16666
968.913	16738
970.051	16706
971.188	16701
972.325	16696
973.463	16856
974.6	16908
975.736	17010
976.873	17056
978.009	16968
979.146	17010
980.282	17014
981.418	17084
982.554	17140
983.689	17184
984.824	17144
985.959	17158
987.095	17138
988.23	17164
989.364	17366
990.499	17306
991.633	17294
992.767	17382
993.9	17542
995.034	17436
996.167	17486
997.301	17602
998.434	17552
999.567	17702
1000.7	17722
1001.83	17850
1002.96	17846
1004.1	17760
1005.23	17732
1006.36	17774
1007.49	17818
1008.62	17990
1009.76	17882
1010.89	17960
1012.02	18072
1013.15	18042
1014.28	18078
1015.41	18182
1016.54	18222
1017.67	18290
1018.8	18350
1019.93	18322
1021.06	18366
1022.19	18562
1023.32	18428
1024.44	18490
1025.57	18506
1026.7	18482
1027.83	18676
1028.96	18812
1030.09	18780
1031.21	18696
1032.34	18716
1033.47	18954
1034.6	18832
1035.72	18998
1036.85	19228
1037.98	19218
1039.1	19030
1040.23	19158
1041.35	19106
1042.48	19214
1043.61	19328
1044.73	19212
1045.86	19382
1046.98	19552
1048.11	19420
1049.23	19622
1050.36	19526
1051.48	19610
1052.61	19604
1053.73	19770
1054.85	19506
1055.98	19794
1057.1	19770
1058.22	19790
1059.35	19814
1060.47	19864
1061.59	19810
1062.72	19756
1063.84	19992
1064.96	19944
1066.08	19884
1067.2	20164
1068.33	20100
1069.45	20132
1070.57	20082
1071.69	20092
1072.81	20252
1073.93	20100
1075.05	20148
1076.17	20164
1077.29	20264
1078.41	20254
1079.53	20368
1080.65	20190
1081.77	20338
1082.89	20078
1084.01	20196
1085.13	20258
1086.25	20322
1087.37	20370
1088.48	20462
1089.6	20264
1090.72	20450
1091.84	20292
1092.96	20360
1094.07	20512
1095.19	20496
1096.31	20288
1097.43	20358
1098.54	20420
1099.66	20328
1100.78	20408
1101.89	20156
1103.01	20478
1104.12	20460
1105.24	20220
1106.35	20508
1107.47	20304
1108.59	20380
1109.7	20538
1110.81	20302
1111.93	20560
1113.04	20444
1114.16	20572
1115.27	20356
1116.39	20406
1117.5	20588
1118.61	20606
1119.73	20570
1120.84	20598
1121.95	20582
1123.06	20562
1124.18	20506
1125.29	20580
1126.4	20642
1127.51	20576
1128.63	20496
1129.74	20576
1130.85	20620
1131.96	20758
1133.07	20696
1134.18	20574
1135.29	20518
1136.4	20828
1137.51	20696
1138.62	20784
1139.73	20790
1140.84	20732
1141.95	20676
1143.06	20928
1144.17	20720
1145.28	20936
1146.39	20882
1147.5	20844
1148.61	20950
1149.72	20842
1150.82	20826
1151.93	20854
1153.04	21032
1154.15	20888
1155.26	20980
1156.36	20790
1157.47	20846
1158.58	21060
1159.68	20814
1160.79	21054
1161.9	20976
1163	20878
1164.11	21078
1165.22	21254
1166.32	20888
1167.43	20882
1168.53	21058
1169.64	20900
1170.74	21062
1171.85	21056
1172.95	21046
1174.06	20774
1175.16	20832
1176.26	20926
1177.37	20846
1178.47	20902
1179.58	20858
1180.68	20872
1181.78	20906
1182.88	20774
1183.99	20654
1185.09	20590
1186.19	20746
1187.3	20734
1188.4	20636
1189.5	20364
1190.6	20634
1191.7	20436
1192.8	20522
1193.9	20384
1195.01	20536
1196.11	20424
1197.21	20399.3
1198.31	20274.3
1199.41	20332.3
1200.51	20052.6
1201.61	20189.9
1202.71	19980.8
1203.81	20026.2
1204.91	19979.1
1206.01	20064.8
1207.11	20072.9
1208.2	20017.8
1209.3	19999.5
1210.4	19857.3
1211.5	19759.8
1212.6	19806.4
1213.7	19878
1214.8	19700.6
1215.89	19841.4
1216.99	19756
1218.09	19729.9
1219.18	19592.3
1220.28	19658.9
1221.38	19461.7
1222.48	19493.3
1223.57	19471.8
1224.67	19505
1225.76	19433.9
1226.86	19374.7
1227.96	19372.6
1229.05	19375.3
1230.15	19254.6
1231.24	19208.2
1232.34	19363.2
1233.43	19209.7
1234.53	19197.3
1235.62	19231
1236.71	19149.7
1237.81	19126
1238.9	18975.3
1240	19003.9
1241.09	19010.6
1242.18	18980.8
1243.28	18944.8
1244.37	18892.2
1245.46	18935.7
1246.56	18812.1
1247.65	18825.5
1248.74	18852.7
1249.83	18722.2
1250.93	18751.9
1252.02	18694.5
1253.11	18669.3
1254.2	18666.1
1255.29	18646.4
1256.38	18632.7
1257.47	18677.6
1258.56	18597.5
1259.65	18653.2
1260.74	18496
1261.84	18411.9
1262.92	18503.1
1264.01	18476.6
1265.1	18384.2
1266.19	18447.5
1267.28	18417.2
1268.37	18298.2
1269.46	18263.1
1270.55	18289.2
1271.64	18276.2
1272.73	18220.4
1273.82	18237.5
1274.9	18249.5
1275.99	18124.5
1277.08	18118.8
1278.17	18117.2
1279.26	18108
1280.34	17987.9
1281.43	17929.2
1282.52	17845.9
1283.6	17851.3
1284.69	17916.3
1285.78	17890.9
1286.86	17864.7
1287.95	17840.3
1289.03	17866.8
1290.12	17860.4
1291.21	17764.6
1292.29	17680.3
1293.38	17717.5
1294.46	17592.8
1295.55	17638.1
1296.63	17682.9
1297.71	17395.6
1298.8	17433.7
1299.88	17403.7
1300.97	17377.3
1302.05	17335.1
1303.13	17319.7
1304.22	17311.9
1305.3	17158.8
1306.38	17293
1307.34	17184
1308.43	17054
1309.52	17218
1310.61	17158
1311.7	16970
1312.78	16996
1313.87	16994
1314.96	16812
1316.05	17004
1317.13	16846
1318.22	16724
1319.3	16682
1320.39	16590
1321.48	16572
1322.56	16504
1323.65	16334
1324.73	16402
1325.82	16442
1326.9	16320
1327.99	16290
1329.07	16294
1330.16	16200
1331.24	16248
1332.33	16180
1333.41	15956
1334.5	16082
1335.58	16260
1336.66	15920
1337.75	15856
1338.83	15920
1339.91	15768
1341	15704
1342.08	15650
1343.16	15846
1344.25	15590
1345.33	15360
1346.41	15714
1347.49	15550
1348.57	15530
1349.65	15440
1350.74	15394
1351.82	15350
1352.9	15218
1353.98	15408
1355.06	15216
1356.14	15132
1357.22	15198
1358.3	15152
1359.38	15038
1360.46	15088
1361.54	14990
1362.62	15120
1363.7	14968
1364.78	14822
1365.86	14942
1366.94	14880
1368.02	14828
1369.09	14760
1370.17	14770
1371.25	14796
1372.33	14774
1373.41	14630
1374.48	14740
1375.56	14590
1376.64	14542
1377.72	14554
1378.79	14406
1379.87	14410
1380.95	14640
1382.02	14318
1383.1	14176
1384.17	14558
1385.25	14450
1386.33	14262
1387.4	14292
1388.48	14200
1389.55	14124
1390.63	14028
1391.7	14166
1392.78	14108
1393.85	14068
1394.93	14134
1396	14138
1397.07	13896
1398.15	14032
1399.22	13928
1400.3	14020
1401.37	13852
1402.44	13764
1403.52	13644
1404.59	13872
1405.66	13614
1406.73	13748
1407.81	13604
1408.88	13588
1409.95	13610
1411.02	13598
1412.09	13586
1413.17	13554
1414.24	13430
1415.31	13552
1416.38	13560
1417.45	13450
1418.52	13426
1419.59	13454
1420.66	13438
1421.73	13524
1422.8	13276
1423.87	13160
1424.94	13274
1426.01	13236
1427.08	13148
1428.15	13212
1429.22	13170
1430.29	13088
1431.35	13142
1432.42	13154
1433.49	13036
1434.56	12976
1435.63	12920
1436.7	12996
1437.76	12956
1438.83	12914
1439.9	12918
1440.96	12972
1442.03	13030
1443.1	12974
1444.17	12764
1445.23	12958
1446.3	12854
1447.36	12786
1448.43	12736
1449.49	12742
1450.56	12542
1451.63	12580
1452.69	12710
1453.76	12638
1454.82	12656
1455.89	12614
1456.95	12578
1458.01	12570
1459.08	12584
1460.14	12726
1461.21	12592
1462.27	12552
1463.34	12464
1464.4	12610
1465.46	12564
1466.52	12548
1467.59	12456
1468.65	12450
1469.71	12332
1470.77	12452
1471.84	12434
1472.9	12422
1473.96	12274
1475.02	12332
1476.08	12352
1477.15	12232
1478.21	12204
1479.27	12296
1480.33	12120
1481.39	12170
1482.45	12096
1483.51	12072
1484.57	12206
1485.63	12080
1486.69	12154
1487.75	12070
1488.81	12084
1489.87	12046
1490.93	12002
1491.99	12066
1493.05	11922
1494.1	12032
1495.16	12044
1496.22	11822
1497.28	11884
1498.34	11884
1499.4	12048
1500.45	11958
1501.51	11912
1502.57	11836
1503.63	11840
1504.68	11906
1505.74	11818
1506.8	11776
1507.85	11622
1508.91	11786
1509.97	11740
1511.02	11710
1512.08	11634
1513.13	11570
1514.19	11598
1515.24	11616
1516.3	11692
1517.35	11792
1518.41	11680
1519.46	11372
1520.52	11548
1521.57	11510
1522.63	11526
1523.68	11390
1524.73	11428
1525.79	11324
1526.84	11360
1527.9	11324
1528.95	11378
1530	11264
1531.06	11294
1532.11	11242
1533.16	11282
1534.21	11278
1535.26	11198
1536.32	11186
1537.37	11264
1538.42	11224
1539.47	11216
1540.52	11188
1541.57	11176
1542.63	11024
1543.68	11120
1544.73	11046
1545.78	11102
1546.83	10974
1547.88	10964
1548.93	10996
1549.98	11174
1551.03	11102
1552.08	10944
1553.13	10980
1554.18	11010
1555.23	10986
1556.27	10830
1557.32	10856
1558.37	10908
1559.42	10858
1560.47	10780
1561.52	10958
1562.56	10844
1563.61	10776
1564.66	10710
1565.71	10732
1566.75	10604
1567.8	10862
1568.85	10786
1569.9	10680
1570.94	10862
1571.99	10716
1573.03	10578
1574.08	10680
1575.13	10692
1576.17	10660
1577.22	10622
1578.26	10712
1579.31	10560
1580.35	10772
1581.4	10586
1582.44	10746
1583.49	10552
1584.53	10682
1585.58	10450
1586.62	10460
1587.66	10550
1588.71	10474
1589.75	10462
1590.8	10470
1591.84	10462
1592.88	10492
1593.93	10524
1594.97	10504
1596.01	10488
1597.05	10344
1598.1	10504
1599.14	10410
1600.18	10582
1601.22	10496
1602.26	10458
1603.31	10438
1604.35	10424
1605.39	10386
1606.43	10388
1607.47	10386
1608.51	10404
1609.55	10338
1610.59	10422
1611.63	10400
1612.67	10348
1613.71	10354
1614.75	10354
1615.79	10400
1616.83	10408
1617.87	10398
1618.91	10444
1619.95	10278
1620.99	10384
1622.02	10304
1623.06	10260
1624.1	10386
1625.14	10240
1626.18	10320
1627.21	10246
1628.25	10266
1629.29	10122
1630.33	10354
1631.36	10232
1632.4	10122
1633.44	10164
1634.48	10386
1635.51	10232
1636.55	10258
1637.58	10304
1638.62	10186
1639.66	10056
1640.69	10186
1641.73	10240
1642.76	10196
1643.8	10104
1644.83	10074
1645.87	9982
1646.9	10102
1647.94	9976
1648.97	10054
1650	9990
1651.04	10046
1652.07	10038
1653.11	10060
1654.14	10098
1655.17	9934
1656.21	9850
1657.24	9966
1658.27	10012
1659.31	9856
1660.34	9900
1661.37	9968
1662.4	9832
1663.43	9836
1664.47	9824
1665.5	9846
1666.53	9770
1667.56	9818
1668.59	9972
1669.62	9670
1670.66	9864
1671.69	9814
1672.72	9856
1673.75	9682
1674.78	9724
1675.81	9730
1676.84	9802
1677.87	9696
1678.9	9716
1679.93	9688
1680.96	9672
1681.98	9726
1683.01	9748
1684.04	9544
1685.07	9662
1686.1	9480
1687.13	9482
1688.16	9568
1689.19	9718
1690.21	9692
1691.24	9568
1692.27	9458
1693.3	9500
1694.32	9506
1695.35	9482
1696.38	9444
1697.4	9582
1698.43	9396
1699.46	9414
1700.48	9352
1701.51	9478
1702.54	9414
1703.56	9326
1704.59	9412
1705.61	9420
1706.64	9334
1707.66	9318
1708.69	9322
1709.71	9230
1710.74	9400
1711.76	9260
1712.79	9348
1713.81	9424
1714.83	9246
1715.86	9348
1716.88	9238
1717.91	9234
1718.93	9264
1719.95	9238
1720.98	9244
1722	9220
1723.02	9204
1724.04	9196
1725.07	9168
1726.09	9252
1727.11	9112
1728.13	9082
1729.15	9150
1730.18	9218
1731.2	9124
1732.22	9018
1733.24	9122
1734.26	9160
1735.28	9238
1736.3	9120
1737.32	9186
1738.34	9102
1739.36	9186
1740.38	9126
1741.4	9244
1742.42	9066
1743.44	8968
1744.46	9022
1745.48	9146
1746.5	8994
1747.52	9118
1748.54	8990
1749.56	9144
1750.58	9048
1751.6	9036
1752.61	9168
1753.63	8978
1754.65	9000
1755.67	8936
1756.68	8906
1757.7	8974
1758.72	8922
1759.74	9006
1760.75	9048
1761.77	8864
1762.79	8908
1763.8	9064
1764.82	8918
1765.84	8918
1766.85	8968
1767.87	8864
1768.88	8952
1769.9	9038
1770.91	8970
1771.93	8934
1772.94	9020
1773.96	8954
1774.97	8912
1775.99	9008
1777	8774
1778.02	8858
1779.03	8882
1780.04	8880
1781.06	8832
1782.07	8866
1783.09	8886
1784.1	8808
1785.11	8950
1786.13	8972
1787.14	8830
1788.15	8840
1789.16	8848
1790.18	8842
1791.19	8884
1792.2	8776
1793.21	8842
1794.22	8826
1795.23	8850
1796.25	8788
1797.26	8790
1798.27	8866
1799.28	8720
1800.29	8704
1801.3	8908
1802.31	8698
1803.32	8830
1804.33	8802
1805.34	8816
1806.35	8836
1807.36	8770
1808.37	8762
1809.38	8766
1810.39	8564
1811.4	8724
1812.41	8714
1813.42	8710
1814.43	8734
1815.43	8606
1816.44	8800
1817.45	8690
1818.46	8666
1819.47	8666
1820.47	8694
1821.48	8672
1822.49	8698
1823.49	8504
1824.5	8556
1825.51	8568
1826.52	8682
1827.52	8646
1828.53	8660
1829.54	8586
1830.54	8558
1831.55	8572
1832.55	8574
1833.56	8650
1834.56	8550
1835.57	8496
1836.57	8418
1837.58	8498
1838.58	8586
1839.59	8498
1840.59	8494
1841.6	8472
1842.6	8330
1843.61	8444
1844.61	8308
1845.61	8450
1846.62	8296
1847.62	8464
1848.62	8444
1849.63	8438
1850.63	8392
1851.63	8394
1852.64	8284
1853.64	8334
1854.64	8310
1855.64	8352
1856.64	8368
1857.65	8368
1858.65	8418
1859.65	8392
1860.65	8386
1861.65	8274
1862.65	8182
1863.65	8156
1864.66	8264
1865.66	8392
1866.66	8246
1867.66	8302
1868.66	8226
1869.66	8266
1870.66	8298
1871.66	8328
1872.66	8170
1873.66	8198
1874.66	8216
1875.65	8200
1876.65	8220
1877.65	8242
1878.65	8182
1879.65	8144
1880.65	8108
1881.65	8216
1882.64	8186
1883.64	8254
1884.64	8076
1885.64	8244
1886.63	8140
1887.63	8186
1888.63	8118
1889.63	8136
1890.62	8158
1891.62	8230
1892.62	8138
1893.61	8058
1894.61	8172
1895.6	8168
1896.6	8136
1897.6	8050
1898.59	8182
1899.59	8100
1900.58	8264
1901.58	7976
1902.57	8086
1903.57	8132
1904.56	8072
1905.56	7998
1906.55	8164
1907.54	7976
1908.54	8064
1909.53	8074
1910.53	8122
1911.52	8162
1912.51	7996
1913.51	8072
1914.5	8038
1915.49	7988
1916.49	8008
1917.48	8044
1918.47	8182
1919.46	8076
1920.46	8160
1921.45	7926
1922.44	8056
1923.43	7970
1924.42	8048
1925.41	8060
1926.41	8070
1927.4	8000
1928.39	7976
1929.38	8128
1930.37	8126
1931.36	8022
1932.35	7982
1933.34	8076
1934.33	8050
1935.32	7952
1936.31	7922
1937.3	7948
1938.29	7972
1939.28	7884
1940.27	7958
1941.26	7802
1942.24	7962
1943.23	7912
1944.22	7962
1945.21	7966
1946.2	7880
1947.19	7902
1948.17	7954
1949.16	7874
1950.15	7879
1951.14	7884
1952.13	7848
1953.11	7818
1954.1	7892
1955.09	7840
1956.07	7896
1957.06	7888
1958.05	7922
1959.03	7798
1960.02	7866
1961	7800
1961.99	7912
1962.98	7870
1963.96	7772
1964.95	7772
1965.93	7906
1966.92	7794
1967.9	7680
1968.89	7690
1969.87	7788
1970.85	7798
1971.84	7698
1972.82	7620
1973.81	7766
1974.79	7644
1975.78	7762
1976.76	7836
1977.74	7704
1978.73	7788
1979.71	7672
1980.69	7538
1981.67	7688
1982.66	7690
1983.64	7726
1984.62	7778
1985.6	7636
1986.59	7708
1987.57	7678
1988.55	7704
1989.53	7590
1990.51	7700
1991.49	7652
1992.47	7568
1993.45	7626
1994.44	7596
1995.42	7664
1996.4	7726
1997.38	7716
1998.36	7682
1999.34	7688
2000.32	7546
2001.3	7720
2002.28	7558
2003.26	7652
2004.24	7446
2005.22	7592
2006.19	7582
2007.17	7542
2008.15	7598
2009.13	7586
2010.11	7600
2011.09	7632
2012.06	7604
2013.04	7586
2014.02	7528
2015	7590
2015.98	7598
2016.95	7584
2017.93	7554
2018.91	7592
2019.88	7650
2020.86	7616
2021.84	7596
2022.81	7560
2023.79	7502
2024.77	7430
2025.74	7528
2026.72	7516
2027.69	7582
2028.67	7516
2029.65	7558
2030.62	7564
2031.6	7586
2032.57	7522
2033.55	7548
2034.52	7428
2035.5	7460
2036.47	7384
2037.44	7466
2038.42	7396
2039.39	7374
2040.36	7580
2041.34	7480
2042.31	7438
2043.29	7474
2044.26	7416
2045.23	7420
2046.2	7288
2047.18	7388
2048.15	7448
2049.12	7396
2050.09	7372
2051.07	7428
2052.04	7462
2053.01	7326
2053.98	7358
2054.95	7438
2055.93	7374
2056.9	7220
2057.87	7374
2058.84	7360
2059.81	7408
2060.78	7320
2061.75	7410
2062.72	7462
2063.69	7290
2064.66	7270
2065.63	7250
2066.6	7354
2067.57	7270
2068.54	7212
2069.51	7304
2070.48	7284
2071.45	7310
2072.42	7332
2073.38	7314
2074.35	7266
2075.32	7308
2076.29	7268
2077.26	7196
2078.23	7308
2079.19	7346
2080.16	7348
2081.13	7228
2082.1	7278
2083.06	7154
2084.03	7190
2085	7226
2085.96	7194
2086.93	7260
2087.9	7176
2088.86	7180
2089.83	7242
2090.8	7210
2091.76	7162
2092.73	7242
2093.69	7210
2094.66	7144
2095.62	7178
2096.59	7168
2097.55	7228
2098.52	7114
2099.48	7074
2100.45	7214
2101.41	7252
2102.38	7224
2103.34	7162
2104.31	7314
2105.27	7192
2106.23	7114
2107.2	7184
2108.16	7182
2109.12	7106
2110.09	7090
2111.05	7202
2112.01	7146
2112.98	7170
2113.94	7082
2114.9	7198
2115.86	7068
2116.82	7048
2117.79	7062
2118.75	7094
2119.71	7054
2120.67	7046
2121.63	7080
2122.59	7114
2123.55	7112
2124.52	7082
2125.48	7120
2126.44	7110
2127.4	7058
2128.36	7108
2129.32	7102
2130.28	6980
2131.24	7050
2132.2	6936
2133.16	6958
2134.12	7094
2135.08	7034
2136.04	6952
2136.99	7026
2137.95	6980
2138.91	7028
2139.87	7028
2140.83	7018
2141.79	7024
2142.75	6944
2143.7	6912
2144.66	6934
2145.62	6951.85
2146.58	7001.86
2147.53	6987.55
2148.49	6888.82
2149.45	6779.89
2150.41	6883.24
2151.36	6793.4
2152.32	6962.47
2153.28	6923.38
2154.23	6889.14
2155.19	6777.42
2156.14	6821.1
2157.1	6902.49
2158.06	6881.06
2159.01	6876.09
2159.97	6931.55
2160.92	6898.69
2161.88	6808.09
2162.83	6829.85
2163.79	6795.09
2164.74	6805.87
2165.7	6789.22
2166.65	6773.73
2167.61	6834.69
2168.56	6760.94
2169.51	6789.08
2170.47	6769.54
2171.42	6761.7
2172.38	6784.38
2173.33	6815.47
2174.28	6692.17
2175.24	6761.55
2176.19	6734.37
2177.14	6789.93
2178.09	6686.54
2179.05	6675.67
2180	6715.48
2180.95	6644.6
2181.9	6663.01
2182.86	6661.92
2183.81	6606.46
2184.76	6687.28
2185.71	6723.95
2186.66	6700.41
2187.61	6621.06
2188.57	6632.24
2189.52	6634.7
2190.47	6578.89
2191.42	6664.95
2192.37	6656.86
2193.32	6670.86
2194.27	6658.28
2195.22	6671.21
2196.17	6588.34
2197.12	6671.19
2198.07	6628.57
2199.02	6621.91
2199.97	6583.24
2200.92	6570.23
2201.87	6648.45
2202.82	6585.79
2203.76	6578.11
2204.71	6565.01
2205.66	6593.53
2206.61	6529.25
2207.56	6536
2208.51	6573.08
2209.45	6551.67
2210.4	6554.2
2211.35	6573.55
2212.3	6570.28
2213.25	6540.41
2214.19	6557.97
2215.14	6595.06
2216.09	6640.61
2217.03	6615.06
2217.98	6579.9
2218.93	6541.48
2219.87	6551.94
2220.82	6543.08
2221.77	6560.71
2222.71	6600.17
2223.66	6593.04
2224.6	6533.32
2225.55	6508.33
2226.49	6568.77
2227.44	6588.71
2228.38	6562.86
2229.33	6587.3
2230.27	6596.04
2231.22	6546.86
2232.16	6546.1
2233.11	6566.65
2234.05	6544.05
2235	6560.46
2235.94	6566.3
2236.88	6531.57
2237.83	6559.58
2238.77	6558.31
2239.72	6568.86
2240.66	6610.55
2241.6	6565
2242.07	6500
2243.02	6548
2243.97	6520
2244.92	6564
2245.87	6632
2246.81	6634
2247.76	6512
2248.71	6608
2249.65	6622
2250.6	6506
2251.55	6492
2252.49	6592
2253.44	6472
2254.39	6546
2255.33	6542
2256.28	6536
2257.22	6502
2258.17	6532
2259.12	6478
2260.06	6552
2261.01	6566
2261.95	6470
2262.9	6568
2263.84	6532
2264.78	6440
2265.73	6484
2266.67	6496
2267.62	6472
2268.56	6410
2269.51	6472
2270.45	6530
2271.39	6492
2272.34	6440
2273.28	6502
2274.22	6462
2275.17	6444
2276.11	6380
2277.05	6422
2277.99	6438
2278.94	6336
2279.88	6476
2280.82	6438
2281.76	6472
2282.71	6376
2283.65	6450
2284.59	6438
2285.53	6282
2286.47	6364
2287.41	6352
2288.35	6394
2289.3	6360
2290.24	6488
2291.18	6392
2292.12	6316
2293.06	6342
2294	6370
2294.94	6316
2295.88	6400
2296.82	6382
2297.76	6402
2298.7	6378
2299.64	6376
2300.58	6338
2301.52	6372
2302.46	6392
2303.39	6330
2304.33	6382
2305.27	6312
2306.21	6310
2307.15	6200
2308.09	6196
2309.02	6358
2309.96	6392
2310.9	6290
2311.84	6336
2312.77	6338
2313.71	6330
2314.65	6182
2315.59	6292
2316.52	6230
2317.46	6246
2318.4	6300
2319.33	6300
2320.27	6236
2321.21	6238
2322.14	6232
2323.08	6272
2324.01	6312
2324.95	6350
2325.89	6206
2326.82	6268
2327.76	6278
2328.69	6222
2329.63	6244
2330.56	6206
2331.5	6146
2332.43	6176
2333.36	6206
2334.3	6212
2335.23	6192
2336.17	6220
2337.1	6258
2338.03	6210
2338.97	6256
2339.9	6204
2340.83	6090
2341.77	6210
2342.7	6146
2343.63	6302
2344.57	6080
2345.5	6170
2346.43	6100
2347.36	6112
2348.3	6250
2349.23	6092
2350.16	6180
2351.09	6168
2352.02	6018
2352.95	6136
2353.89	6206
2354.82	6196
2355.75	6186
2356.68	6148
2357.61	6194
2358.54	6128
2359.47	6006
2360.4	6088
2361.33	6082
2362.26	6136
2363.19	6172
2364.12	6162
2365.05	6088
2365.98	6222
2366.91	6192
2367.84	5994
2368.77	6088
2369.7	6102
2370.63	6022
2371.56	6030
2372.48	6030
2373.41	6002
2374.34	6048
2375.27	6062
2376.2	6088
2377.12	6064
2378.05	5986
2378.98	6044
2379.91	5990
2380.84	6026
2381.76	6038
2382.69	6062
2383.62	6008
2384.54	6074
2385.47	5998
2386.4	5926
2387.32	6026
2388.25	5998
2389.18	5946
2390.1	5976
2391.03	5912
2391.95	5994
2392.88	6028
2393.8	5946
2394.73	6026
2395.65	6006
2396.58	5912
2397.5	5964
2398.43	5990
2399.35	5940
2400.28	5930
2401.2	5976
2402.13	5856
2403.05	5906
2403.97	5988
2404.9	5978
2405.82	5904
2406.75	5878
2407.67	5946
2408.59	5788
2409.51	5870
2410.44	5850
2411.36	5830
2412.28	5782
2413.21	5858
2414.13	5826
2415.05	5858
2415.97	5842
2416.9	5824
2417.82	5768
2418.74	5740
2419.66	5752
2420.58	5826
2421.5	5786
2422.42	5896
2423.35	5770
2424.27	5876
2425.19	5774
2426.11	5704
2427.03	5850
2427.95	5696
2428.87	5658
2429.79	5742
2430.71	5886
2431.63	5776
2432.55	5734
2433.47	5776
2434.39	5730
2435.31	5734
2436.23	5718
2437.14	5776
2438.06	5618
2438.98	5742
2439.9	5686
2440.82	5734
2441.74	5690
2442.66	5616
2443.57	5690
2444.49	5710
2445.41	5588
2446.33	5600
2447.24	5838
2448.16	5768
2449.08	5678
2450	5666
2450.91	5726
2451.83	5628
2452.75	5682
2453.66	5708
2454.58	5642
2455.5	5674
2456.41	5634
2457.33	5662
2458.24	5510
2459.16	5590
2460.08	5644
2460.99	5620
2461.91	5574
2462.82	5594
2463.74	5542
2464.65	5642
2465.57	5528
2466.48	5580
2467.4	5486
2468.31	5520
2469.22	5592
2470.14	5562
2471.05	5602
2471.97	5556
2472.88	5480
2473.79	5492
2474.71	5494
2475.62	5512
2476.53	5562
2477.45	5500
2478.36	5428
2479.27	5564
2480.19	5508
2481.1	5572
2482.01	5452
2482.92	5530
2483.83	5458
2484.75	5468
2485.66	5468
2486.57	5458
2487.48	5476
2488.39	5484
2489.3	5414
2490.22	5446
2491.13	5444
2492.04	5492
2492.95	5566
2493.86	5326
2494.77	5406
2495.68	5396
2496.59	5410
2497.5	5354
2498.41	5386
2499.32	5430
2500.23	5406
2501.14	5408
2502.05	5424
2502.96	5364
2503.87	5402
2504.78	5416
2505.68	5262
2506.59	5214
2507.5	5404
2508.41	5324
2509.32	5342
2510.23	5336
2511.14	5346
2512.04	5264
2512.95	5340
2513.86	5340
2514.77	5398
2515.67	5292
2516.58	5388
2517.49	5336
2518.39	5220
2519.3	5266
2520.21	5234
2521.11	5350
2522.02	5262
2522.93	5184
2523.83	5192
2524.74	5218
2525.65	5328
2526.55	5274
2527.46	5212
2528.36	5170
2529.27	5206
2530.17	5174
2531.08	5244
2531.98	5140
2532.89	5216
2533.79	5220
2534.7	5202
2535.6	5094
2536.51	5086
2537.41	5122
2538.32	5102
2539.22	5118
2540.12	5182
2541.03	5194
2541.93	5160
2542.83	5180
2543.74	5170
2544.64	5100
2545.54	5042
2546.45	5146
2547.35	5168
2548.25	5038
2549.15	5074
2550.06	5042
2550.96	5054
2551.86	5082
2552.76	4988
2553.66	5094
2554.56	5072
2555.47	4982
2556.37	5120
2557.27	5050
2558.17	4996
2559.07	4994
2559.97	4984
2560.87	4986
2561.77	4966
2562.67	4954
2563.58	5016
2564.47	5064
2565.38	4990
2566.27	4998
2567.18	4938
2568.07	4936
2568.97	4928
2569.87	4924
2570.77	4978
2571.67	4968
2572.57	4956
2573.47	4958
2574.37	4922
2575.27	4962
2576.17	4992
2577.06	5006
2577.96	4968
2578.86	4996
2579.76	4960
2580.66	4902
2581.55	4856
2582.45	4790
2583.35	4890
2584.25	4824
2585.14	4878
2586.04	4896
2586.94	4886
2587.83	4840
2588.73	4912
2589.63	4818
2590.52	4804
2591.42	4844
2592.32	4748
2593.21	4850
2594.11	4792
2595	4900
2595.9	4826
2596.8	4726
2597.69	4784
2598.59	4772
2599.48	4722
2600.38	4686
2601.27	4760
2602.17	4622
2603.06	4720
2603.95	4776
2604.85	4696
2605.74	4690
2606.64	4768
2607.53	4734
2608.42	4718
2609.32	4714
2610.21	4724
2611.1	4684
2612	4716
2612.89	4670
2613.78	4712
2614.68	4592
2615.57	4644
2616.46	4656
2617.36	4594
2618.25	4754
2619.14	4640
2620.03	4650
2620.92	4668
2621.82	4662
2622.71	4628
2623.6	4592
2624.49	4572
2625.38	4664
2626.27	4614
2627.16	4618
2628.05	4616
2628.95	4544
2629.84	4578
2630.73	4586
2631.62	4588
2632.51	4544
2633.4	4580
2634.29	4508
2635.18	4564
2636.07	4512
2636.96	4562
2637.85	4546
2638.74	4444
2639.62	4522
2640.51	4532
2641.4	4536
2642.29	4482
2643.18	4466
2644.07	4472
2644.96	4484
2645.85	4414
2646.73	4380
2647.62	4412
2648.51	4372
2649.4	4332
2650.28	4366
2651.17	4384
2652.06	4440
2652.95	4436
2653.83	4416
2654.72	4422
2655.61	4456
2656.5	4356
2657.38	4432
2658.27	4360
2659.15	4362
2660.04	4402
2660.93	4376
2661.81	4380
2662.7	4372
2663.58	4276
2664.47	4336
2665.35	4330
2666.24	4276
2667.13	4284
2668.01	4334
2668.9	4294
2669.78	4316
2670.66	4296
2671.55	4292
2672.43	4352
2673.32	4272
2674.2	4332
2675.09	4324
2675.97	4356
2676.85	4288
2677.74	4246
2678.62	4302
2679.5	4366
2680.39	4262
2681.27	4292
2682.15	4298
2683.04	4276
2683.92	4294
2684.8	4276
2685.68	4246
2686.57	4368
2687.45	4206
2688.33	4246
2689.21	4248
2690.09	4216
2690.98	4148
2691.86	4156
2692.74	4190
2693.62	4174
2694.5	4164
2695.38	4186
2696.26	4218
2697.15	4150
2698.03	4088
2698.91	4120
2699.79	4186
2700.67	4150
2701.55	4188
2702.43	4204
2703.31	4184
2704.19	4136
2705.07	4136
2705.95	4158
2706.83	4176
2707.7	4040
2708.58	4098
2709.46	4126
2710.34	4134
2711.22	4150
2712.1	4132
2712.98	4146
2713.86	3964
2714.73	4004
2715.61	4018
2716.49	4056
2717.37	4066
2718.25	4090
2719.12	4010
2720	4070
2720.88	4080
2721.76	4026
2722.63	3948
2723.51	4072
2724.39	3990
2725.26	4024
2726.14	4060
2727.02	3978
2727.89	3938
2728.77	4008
2729.64	4016
2730.52	3928
2731.4	3948
2732.27	4004
2733.15	3896
2734.02	3970
2734.9	3938
2735.77	3950
2736.65	3932
2737.52	3934
2738.4	3836
2739.27	3870
2740.15	3874
2741.02	3942
2741.9	3878
2742.77	3902
2743.64	3898
2744.52	3876
2745.39	3882
2746.27	3880
2747.14	3852
2748.01	3814
2748.89	3798
2749.76	3804
2750.63	3980
2751.51	3894
2752.38	3826
2753.25	3840
2754.12	3752
2755	3776
2755.87	3800
2756.74	3868
2757.61	3784
2758.48	3848
2759.35	3748
2760.23	3782
2761.1	3884
2761.97	3830
2762.84	3768
2763.71	3778
2764.58	3790
2765.45	3750
2766.32	3720
2767.19	3684
2768.07	3734
2768.94	3740
2769.81	3730
2770.68	3686
2771.55	3738
2772.42	3676
2773.29	3736
2774.16	3724
2775.02	3678
2775.89	3728
2776.76	3790
2777.63	3622
2778.5	3732
2779.37	3712
2780.24	3578
2781.11	3618
2781.98	3662
2782.84	3672
2783.71	3710
2784.58	3626
2785.45	3628
2786.32	3664
2787.18	3620
2788.05	3610
2788.92	3628
2789.79	3602
2790.65	3622
2791.52	3612
2792.39	3572
2793.25	3516
2794.12	3556
2794.99	3574
2795.85	3632
2796.72	3588
2797.59	3560
2798.45	3644
2799.32	3542
2800.18	3542
2801.05	3590
2801.92	3526
2802.78	3554
2803.65	3541
2804.51	3528
2805.38	3544
2806.24	3596
2807.11	3502
2807.97	3546
2808.84	3528
2809.7	3550
2810.57	3552
2811.43	3488
2812.29	3462
2813.16	3476
2814.02	3478
2814.88	3480
2815.75	3532
2816.61	3468
2817.47	3474
2818.34	3418
2819.2	3446
2820.06	3420
2820.93	3394
2821.79	3436
2822.65	3428
2823.51	3332
2824.38	3418
2825.24	3438
2826.1	3460
2826.96	3440
2827.82	3474
2828.69	3378
2829.55	3388
2830.41	3276
2831.27	3340
2832.13	3454
2832.99	3414
2833.85	3332
2834.71	3350
2835.57	3314
2836.44	3384
2837.3	3352
2838.16	3402
2839.02	3322
2839.88	3352
2840.74	3370
2841.6	3272
2842.46	3288
2843.32	3308
2844.18	3246
2845.03	3348
2845.89	3318
2846.75	3268
2847.61	3290
2848.47	3326
2849.33	3274
2850.19	3246
2851.05	3274
2851.9	3266
2852.76	3184
2853.62	3202
2854.48	3202
2855.34	3236
2856.19	3190
2857.05	3244
2857.91	3218
2858.77	3252
2859.62	3142
2860.48	3248
2861.34	3208
2862.19	3218
2863.05	3128
2863.91	3206
2864.76	3134
2865.62	3158
2866.48	3204
2867.33	3138
2868.19	3166
2869.04	3174
2869.9	3122
2870.76	3152
2871.61	3154
2872.47	3166
2873.32	3138
2874.18	3114
2875.03	3122
2875.89	3158
2876.74	3080
2877.6	3108
2878.45	3126
2879.31	3158
2880.16	3118
2881.01	3096
2881.87	3154
2882.72	3126
2883.58	3072
2884.43	3048
2885.28	3080
2886.14	3056
2886.99	3112
2887.84	3082
2888.7	3096
2889.55	3068
2890.4	3056
2891.25	3082
2892.11	3102
2892.96	3044
2893.81	3054
2894.66	2990
2895.52	3050
2896.37	3024
2897.22	2982
2898.07	2994
2898.92	3016
2899.77	2992
2900.62	2982
2901.48	2992
2902.33	3018
2903.18	3002
2904.03	3018
2904.88	2972
2905.73	3040
2906.58	3014
2907.43	3026
2908.28	3004
2909.13	2960
2909.98	2960
2910.83	2970
2911.68	3024
2912.53	2914
2913.38	2988
2914.23	2960
2915.08	2938
2915.93	2884
2916.78	2914
2917.63	2914
2918.47	2970
2919.32	2914
2920.17	2936
2921.02	2928
2921.87	2926
2922.72	2940
2923.56	2842
2924.41	2922
2925.26	2922
2926.11	2898
2926.95	2934
2927.8	2900
2928.65	2882
2929.5	2900
2930.34	2842
2931.19	2880
2932.04	2880
2932.88	2878
2933.73	2858
2934.58	2894
2935.42	2828
2936.27	2868
2937.11	2882
2937.96	2906
2938.81	2868
2939.65	2890
2940.5	2914
2941.34	2812
2942.19	2826
2943.03	2868
2943.88	2864
2944.72	2826
2945.57	2872
2946.41	2814
2947.26	2842
2948.1	2886
2948.95	2806
2949.79	2800
2950.64	2862
2951.48	2816
2952.32	2894
2953.17	2800
2954.01	2838
2954.85	2816
2955.7	2766
2956.54	2832
2957.38	2748
2958.23	2778
2959.07	2810
2959.91	2676
2960.75	2756
2961.6	2752
2962.44	2736
2963.28	2768
2964.12	2754
2964.97	2684
2965.81	2718
2966.65	2818
2967.49	2782
2968.33	2744
2969.17	2782
2970.02	2688
2970.86	2702
2971.7	2750
2972.54	2698
2973.38	2708
2974.22	2758
2975.06	2662
2975.9	2738
2976.74	2626
2977.58	2608
2978.42	2672
2979.26	2684
2980.1	2704
2980.94	2716
2981.78	2610
2982.62	2556
2983.46	2648
2984.3	2642
2985.14	2646
2985.98	2604
2986.82	2626
2987.66	2654
2988.49	2616
2989.33	2612
2990.17	2628
2991.01	2600
2991.85	2554
2992.69	2548
2993.52	2612
2994.36	2620
2995.2	2598
2996.04	2598
2996.87	2628
2997.71	2540
2998.55	2600
2999.39	2602
