#Acq. time (s)=	10
#Accumulations=	1
#Range (cm-¹)=	100...3000
#Windows=	3
#Autofocus=	Off
#AutoExposure=	Off
#Spike filter=	Off
#Delay time (s)=	0
#Binning=	1
#Readout mode=	Signal
#DeNoise=	Off
#ICS correction=	Off
#Dark correction=	Off
#Inst. Process=	Off
#Instrument=	LabRAM HR Evol
#Detector=	Syncerity OE
#Objective=	x100_VIS
#Grating=	600 (500nm)
#ND Filter=	3.2%
#Laser=	633nm_Edge
#Hole=	100.021
#Range=	Visible
#Project=	Omar
#Sample=	26-06-23
#Site=	2
#Title=	Organic
#Remark=	
#Date=	26.06.2023 16:21
#Acquired=	26.06.2023 16:21:54
101.018	3948
102.302	3946
103.586	3968
104.869	4028
106.152	3948
107.435	4036
108.717	4028
109.999	4118
111.281	4020
112.563	4028
113.845	4202
115.126	4124
116.407	4088
117.688	4036
118.969	4108
120.249	4048
121.53	4124
122.81	4026
124.09	4190
125.369	4118
126.649	4112
127.928	4152
129.207	4260
130.486	4182
131.765	4196
133.043	4098
134.321	4184
135.599	4254
136.877	4274
138.155	4192
139.432	4204
140.708	4226
141.985	4210
143.261	4232
144.538	4196
145.814	4230
147.09	4324
148.366	4248
149.641	4338
150.916	4280
152.191	4272
153.466	4358
154.741	4244
156.016	4324
157.289	4356
158.563	4358
159.837	4318
161.111	4296
162.385	4326
163.657	4326
164.93	4358
166.203	4340
167.476	4392
168.747	4294
170.019	4368
171.291	4364
172.562	4476
173.834	4410
175.105	4432
176.377	4334
177.646	4394
178.917	4380
180.188	4338
181.457	4386
182.727	4422
183.996	4498
185.266	4378
186.536	4426
187.804	4412
189.073	4456
190.342	4392
191.609	4434
192.878	4426
194.145	4458
195.413	4444
196.681	4526
197.948	4562
199.215	4544
200.481	4532
201.749	4500
203.014	4574
204.281	4620
205.546	4598
206.813	4664
208.077	4578
209.343	4582
210.608	4664
211.873	4628
213.137	4704
214.402	4658
215.666	4654
216.93	4736
218.194	4690
219.458	4726
220.721	4680
221.983	4672
223.247	4686
224.509	4698
225.772	4716
227.034	4722
228.295	4772
229.558	4732
230.819	4824
232.081	4872
233.342	4908
234.602	4926
235.864	4852
237.124	4868
238.384	4804
239.645	4888
240.904	4894
242.164	4926
243.423	4968
244.683	4946
245.941	4830
247.2	4900
248.46	4936
249.717	4938
250.975	4930
252.233	4896
253.492	4948
254.749	5014
256.006	5008
257.263	4952
258.519	4982
259.777	4966
261.033	4968
262.289	4888
263.545	4968
264.8	4986
266.057	4872
267.312	5066
268.567	4946
269.822	4966
271.076	4952
272.331	4932
273.585	4930
274.839	5056
276.094	5006
277.347	5054
278.601	5004
279.854	4882
281.107	5014
282.359	5116
283.612	5144
284.864	5170
286.116	5154
287.368	5074
288.62	5174
289.871	5098
291.123	5056
292.374	5148
293.625	5068
294.875	5184
296.126	5178
297.376	5232
298.626	5360
299.876	5198
301.126	5216
302.375	5234
303.625	5234
304.874	5266
306.122	5310
307.371	5226
308.62	5332
309.866	5266
311.114	5294
312.362	5342
313.61	5400
314.857	5354
316.105	5340
317.352	5362
318.599	5332
319.844	5450
321.09	5420
322.337	5474
323.583	5342
324.828	5430
326.073	5426
327.318	5454
328.563	5344
329.808	5442
331.053	5516
332.296	5452
333.541	5366
334.785	5414
336.029	5386
337.272	5392
338.515	5468
339.759	5492
341.001	5510
342.244	5590
343.486	5520
344.728	5514
345.97	5626
347.212	5580
348.453	5512
349.695	5616
350.936	5538
352.176	5624
353.418	5646
354.659	5680
355.898	5644
357.139	5596
358.378	5648
359.618	5698
360.858	5678
362.097	5648
363.336	5674
364.574	5682
365.813	5762
367.051	5588
368.29	5720
369.527	5676
370.766	5716
372.002	5742
373.241	5708
374.477	5784
375.715	5756
376.951	5714
378.188	5588
379.424	5748
380.66	5730
381.896	5650
383.132	5804
384.367	5710
385.603	5740
386.838	5790
388.072	5680
389.307	5720
390.541	5676
391.776	5728
393.01	5878
394.243	5862
395.477	5750
396.71	5788
397.943	5892
399.177	5844
400.409	5844
401.641	5810
402.875	5822
404.106	5830
405.338	5928
406.57	5942
407.802	6070
409.032	5998
410.263	5942
411.495	6076
412.725	6036
413.955	6012
415.185	6114
416.417	6094
417.646	6084
418.875	6100
420.104	6158
421.335	6122
422.564	6162
423.792	6146
425.02	6158
426.249	6248
427.477	6290
428.706	6200
429.933	6238
431.161	6334
432.388	6342
433.615	6342
434.841	6204
436.068	6286
437.294	6216
438.522	6392
439.748	6272
440.974	6228
442.199	6294
443.425	6448
444.65	6402
445.875	6254
447.1	6372
448.324	6402
449.549	6332
450.773	6344
451.997	6418
453.221	6366
454.445	6422
455.668	6380
456.891	6420
458.114	6462
459.337	6368
460.56	6374
461.782	6444
463.005	6440
464.227	6560
465.447	6446
466.669	6394
467.89	6434
469.112	6456
470.333	6546
471.554	6518
472.774	6494
473.995	6568
475.214	6618
476.434	6614
477.654	6596
478.874	6552
480.093	6600
481.312	6718
482.53	6630
483.749	6612
484.968	6590
486.186	6618
487.405	6612
488.622	6754
489.84	6728
491.057	6636
492.275	6728
493.491	6698
494.708	6692
495.925	6716
497.141	6794
498.357	6808
499.574	6874
500.789	6740
502.005	6788
503.221	6848
504.435	6814
505.65	6892
506.866	6852
508.079	6882
509.294	6906
510.509	6944
511.722	7024
512.936	6790
514.149	6934
515.363	6910
516.577	6858
517.789	6942
519.002	6926
520.214	6898
521.427	6944
522.638	6998
523.851	6972
525.062	6958
526.274	7020
527.485	6934
528.697	7054
529.907	6946
531.118	6878
532.328	6932
533.539	6992
534.748	6938
535.959	6992
537.168	7022
538.379	7022
539.587	7034
540.796	6986
542.005	7110
543.214	7078
544.423	7162
545.631	7090
546.838	7042
548.047	7182
549.254	7200
550.461	7168
551.669	7170
552.876	7108
554.082	7102
555.29	7124
556.496	7190
557.701	7268
558.909	7248
560.114	7288
561.319	7140
562.524	7248
563.731	7230
564.935	7304
566.14	7342
567.344	7264
568.549	7316
569.753	7270
570.957	7292
572.161	7256
573.364	7342
574.568	7434
575.771	7348
576.974	7426
578.177	7386
579.379	7452
580.581	7568
581.785	7520
582.987	7472
584.188	7452
585.39	7532
586.591	7606
587.792	7598
588.993	7660
590.193	7640
591.394	7682
592.594	7502
593.796	7570
594.996	7550
596.195	7646
597.395	7768
598.594	7594
599.793	7662
600.992	7802
602.191	7702
603.39	7746
604.588	7850
605.786	7670
606.984	7878
608.181	7894
609.378	7836
610.576	7904
611.773	7850
612.97	8012
614.167	8014
615.364	7878
616.56	8074
617.757	7986
618.953	8086
620.149	8048
621.343	8118
622.539	8078
623.734	8176
624.929	8188
626.124	8198
627.319	8254
628.512	8378
629.707	8234
630.901	8218
632.095	8382
633.289	8282
634.481	8430
635.675	8330
636.868	8432
638.061	8488
639.253	8456
640.446	8446
641.638	8426
642.831	8396
644.021	8646
645.213	8526
646.405	8538
647.595	8728
648.787	8734
649.978	8682
651.168	8612
652.359	8688
653.549	8790
654.738	8766
655.929	8750
657.117	8854
658.307	8792
659.497	8902
660.685	8832
661.875	8830
663.063	8820
664.252	8796
665.439	8912
666.628	8852
667.816	8892
669.003	8992
670.191	8894
671.378	8990
672.565	8932
673.751	9024
674.939	9090
676.124	9132
677.311	8904
678.497	9130
679.682	9098
680.868	9128
682.053	9156
683.239	9196
684.424	9128
685.609	9180
686.793	9200
687.977	9250
689.162	9160
690.346	9200
691.529	9296
692.714	9374
693.897	9396
695.081	9366
696.264	9354
697.446	9454
698.63	9554
699.812	9472
700.993	9492
702.175	9502
703.358	9486
704.539	9456
705.72	9480
706.901	9720
708.083	9700
709.264	9572
710.444	9692
711.625	9652
712.806	9768
713.986	9744
715.165	9698
716.345	9858
717.524	9896
718.705	9960
719.884	10050
721.062	10060
722.241	9956
723.419	9918
724.597	10128
725.775	10028
726.954	10140
728.132	10082
729.31	10214
730.487	10248
731.664	10192
732.841	10258
734.017	10354
735.194	10316
736.37	10288
737.546	10404
738.722	10398
739.898	10376
741.074	10416
742.249	10382
743.424	10388
744.599	10530
745.774	10518
746.949	10554
748.123	10584
749.298	10512
750.472	10650
751.646	10596
752.819	10684
753.993	10632
755.166	10726
756.34	10722
757.511	10778
758.684	10852
759.857	10902
761.029	10774
762.202	10886
763.374	10898
764.546	10966
765.716	11022
766.888	10978
768.059	11098
769.23	10922
770.401	11054
771.571	11214
772.741	11106
773.912	11168
775.082	11160
776.251	11150
777.421	11260
778.59	11182
779.76	11258
780.928	11320
782.097	11328
783.266	11344
784.434	11320
785.602	11450
786.771	11446
787.938	11498
789.106	11402
790.274	11614
791.44	11488
792.608	11544
793.775	11688
794.941	11714
796.108	11752
797.273	11692
798.44	11794
799.606	11714
800.771	11884
801.937	11892
803.102	11896
804.268	11910
805.432	12024
806.597	12204
807.761	12082
808.926	12212
810.09	12162
811.254	12184
812.417	12222
813.582	12216
814.744	12356
815.908	12440
817.071	12446
818.234	12406
819.396	12520
820.558	12538
821.721	12444
822.883	12718
824.045	12630
825.206	12726
826.367	12776
827.529	12778
828.69	12934
829.85	13008
831.012	12918
832.172	13096
833.332	13076
834.493	13078
835.653	13172
836.812	13112
837.972	13268
839.131	13230
840.29	13304
841.449	13344
842.609	13368
843.767	13334
844.925	13526
846.083	13526
847.242	13694
848.399	13636
849.557	13706
850.714	13720
851.871	13626
853.029	13798
854.186	13810
855.342	14024
856.498	13836
857.654	14028
858.81	13862
859.966	13992
861.122	14184
862.278	14102
863.434	14292
864.589	14110
865.744	14262
866.898	14254
868.053	14324
869.207	14464
870.361	14546
871.515	14330
872.669	14368
873.822	14514
874.976	14524
876.129	14590
877.282	14556
878.435	14644
879.588	14692
880.74	14790
881.893	14872
883.045	14546
884.197	14830
885.349	14860
886.5	14838
887.652	14994
888.802	14782
889.953	15106
891.104	14922
892.254	15052
893.405	15044
894.555	15158
895.706	15242
896.854	15036
898.004	15130
899.154	15286
900.303	15306
901.453	15290
902.6	15348
903.749	15382
904.898	15376
906.047	15518
907.194	15268
908.342	15366
909.49	15522
910.638	15484
911.785	15606
912.932	15588
914.08	15650
915.225	15720
916.372	15730
917.519	15834
918.666	15896
919.811	15844
920.957	16054
922.102	16012
923.248	16038
924.394	16078
925.538	16026
926.684	16108
927.828	16154
928.973	16168
930.118	16370
931.261	16246
932.406	16480
933.549	16408
934.693	16438
935.836	16588
936.979	16748
938.122	16660
939.265	16770
940.407	16598
941.55	16758
942.692	16744
943.835	16964
944.976	17002
946.118	17056
947.259	17056
948.401	17048
949.542	17120
950.682	17338
951.824	17388
952.964	17294
954.105	17456
955.245	17506
956.385	17582
957.525	17482
958.664	17444
959.803	17474
960.944	17598
962.082	17796
963.221	17740
964.36	17860
965.498	17742
966.636	17942
967.774	17928
968.913	18016
970.051	18020
971.188	18155
972.325	18290
973.463	18252
974.6	18310
975.736	18296
976.873	18202
978.009	18410
979.146	18318
980.282	18300
981.418	18508
982.554	18568
983.689	18604
984.824	18580
985.959	18556
987.095	18562
988.23	18642
989.364	18620
990.499	18776
991.633	18796
992.767	18800
993.9	18818
995.034	18880
996.167	18762
997.301	19204
998.434	18952
999.567	19104
1000.7	19144
1001.83	19132
1002.96	19082
1004.1	19062
1005.23	19278
1006.36	19198
1007.49	19268
1008.62	19328
1009.76	19406
1010.89	19368
1012.02	19654
1013.15	19542
1014.28	19512
1015.41	19456
1016.54	19798
1017.67	19662
1018.8	19824
1019.93	19754
1021.06	19876
1022.19	19946
1023.32	19964
1024.44	19802
1025.57	19966
1026.7	19886
1027.83	20314
1028.96	20032
1030.09	20208
1031.21	20428
1032.34	20252
1033.47	20104
1034.6	20364
1035.72	20588
1036.85	20522
1037.98	20674
1039.1	20650
1040.23	20630
1041.35	20660
1042.48	20744
1043.61	20788
1044.73	20956
1045.86	20846
1046.98	20970
1048.11	21128
1049.23	21022
1050.36	20988
1051.48	21142
1052.61	21144
1053.73	21266
1054.85	21300
1055.98	21210
1057.1	21262
1058.22	21312
1059.35	21526
1060.47	21424
1061.59	21474
1062.72	21546
1063.84	21458
1064.96	21498
1066.08	21560
1067.2	21636
1068.33	21550
1069.45	21614
1070.57	21702
1071.69	21896
1072.81	21876
1073.93	21772
1075.05	21788
1076.17	21768
1077.29	21860
1078.41	21778
1079.53	22094
1080.65	21734
1081.77	21728
1082.89	21944
1084.01	21972
1085.13	21684
1086.25	21850
1087.37	22024
1088.48	21960
1089.6	22102
1090.72	21928
1091.84	21984
1092.96	21988
1094.07	21926
1095.19	21800
1096.31	21964
1097.43	21948
1098.54	21890
1099.66	22028
1100.78	22022
1101.89	21964
1103.01	22038
1104.12	22160
1105.24	21920
1106.35	22086
1107.47	22182
1108.59	21892
1109.7	22124
1110.81	22018
1111.93	22244
1113.04	22252
1114.16	22122
1115.27	22062
1116.39	22092
1117.5	22188
1118.61	22026
1119.73	22106
1120.84	22396
1121.95	22198
1123.06	22212
1124.18	22174
1125.29	22088
1126.4	22332
1127.51	22270
1128.63	22220
1129.74	22344
1130.85	22408
1131.96	22166
1133.07	22492
1134.18	22306
1135.29	22338
1136.4	22404
1137.51	22554
1138.62	22542
1139.73	22616
1140.84	22242
1141.95	22578
1143.06	22648
1144.17	22428
1145.28	22456
1146.39	22490
1147.5	22432
1148.61	22634
1149.72	22556
1150.82	22304
1151.93	22486
1153.04	22670
1154.15	22462
1155.26	22656
1156.36	22562
1157.47	22744
1158.58	22702
1159.68	22550
1160.79	22664
1161.9	22566
1163	22554
1164.11	22694
1165.22	22628
1166.32	22706
1167.43	22590
1168.53	22820
1169.64	22586
1170.74	22484
1171.85	22590
1172.95	22562
1174.06	22354
1175.16	22566
1176.26	22376
1177.37	22564
1178.47	22372
1179.58	22278
1180.68	22248
1181.78	22258
1182.88	22324
1183.99	22324
1185.09	22302
1186.19	22282
1187.3	22188
1188.4	22200
1189.5	21806
1190.6	22098
1191.7	22090
1192.8	21950
1193.9	22006
1195.01	22016
1196.11	21940.8
1197.21	21942.4
1198.31	21992.4
1199.41	21845.2
1200.51	21661.2
1201.61	21651.1
1202.71	21643.4
1203.81	21825
1204.91	21514.7
1206.01	21708.3
1207.11	21541.5
1208.2	21691.5
1209.3	21635.5
1210.4	21429.4
1211.5	21383.6
1212.6	21249.8
1213.7	21337.2
1214.8	21323.9
1215.89	21239.8
1216.99	21143.5
1218.09	21110
1219.18	21132.3
1220.28	21120.7
1221.38	21069.4
1222.48	20889
1223.57	21029.8
1224.67	20996
1225.76	20872.9
1226.86	20863.9
1227.96	20714.3
1229.05	20751.2
1230.15	20701.5
1231.24	20769.5
1232.34	20810.9
1233.43	20680.8
1234.53	20734.1
1235.62	20542.4
1236.71	20623.1
1237.81	20578.6
1238.9	20607.6
1240	20543.6
1241.09	20458.5
1242.18	20430.6
1243.28	20408.6
1244.37	20349
1245.46	20407.6
1246.56	20332
1247.65	20319
1248.74	20152
1249.83	20220.8
1250.93	20243.6
1252.02	20271.6
1253.11	20199.9
1254.2	20136.3
1255.29	20140.1
1256.38	20077.8
1257.47	20015.2
1258.56	20089.4
1259.65	19952.4
1260.74	19941.4
1261.84	19885.1
1262.92	19941.8
1264.01	19790.1
1265.1	19759.5
1266.19	19765.1
1267.28	19699.7
1268.37	19764.8
1269.46	19703.8
1270.55	19656.8
1271.64	19674.9
1272.73	19532.9
1273.82	19541.4
1274.9	19504.1
1275.99	19518.2
1277.08	19512.3
1278.17	19539.1
1279.26	19345.4
1280.34	19313.7
1281.43	19399.9
1282.52	19318.1
1283.6	19342
1284.69	19230.6
1285.78	19224.4
1286.86	19197.7
1287.95	19134.1
1289.03	19061.6
1290.12	19043.5
1291.21	19127.9
1292.29	19041
1293.38	18936.8
1294.46	18916.8
1295.55	18760.2
1296.63	18917.1
1297.71	18798.6
1298.8	18712.8
1299.88	18733.6
1300.97	18734.8
1302.05	18629.2
1303.13	18636.8
1304.22	18475.7
1305.3	18475.6
1306.38	18409.2
1307.34	18536
1308.43	18326
1309.52	18322
1310.61	18362
1311.7	18170
1312.78	18164
1313.87	18132
1314.96	18060
1316.05	18084
1317.13	17916
1318.22	18066
1319.3	17864
1320.39	17842
1321.48	17872
1322.56	17740
1323.65	17684
1324.73	17510
1325.82	17704
1326.9	17424
1327.99	17524
1329.07	17398
1330.16	17338
1331.24	17278
1332.33	17176
1333.41	17196
1334.5	17282
1335.58	17204
1336.66	17140
1337.75	16952
1338.83	16930
1339.91	16814
1341	16946
1342.08	16780
1343.16	16814
1344.25	16918
1345.33	16652
1346.41	16854
1347.49	16610
1348.57	16550
1349.65	16610
1350.74	16552
1351.82	16464
1352.9	16322
1353.98	16348
1355.06	16462
1356.14	16470
1357.22	16238
1358.3	16224
1359.38	16186
1360.46	15784
1361.54	16090
1362.62	15980
1363.7	16018
1364.78	16166
1365.86	15826
1366.94	15906
1368.02	15892
1369.09	15630
1370.17	15798
1371.25	15772
1372.33	15646
1373.41	15724
1374.48	15664
1375.56	15520
1376.64	15622
1377.72	15632
1378.79	15396
1379.87	15428
1380.95	15550
1382.02	15408
1383.1	15442
1384.17	15472
1385.25	15208
1386.33	15242
1387.4	15228
1388.48	15230
1389.55	15174
1390.63	15158
1391.7	15172
1392.78	15072
1393.85	14940
1394.93	15016
1396	14994
1397.07	14926
1398.15	14952
1399.22	14766
1400.3	14952
1401.37	14868
1402.44	14716
1403.52	14676
1404.59	14690
1405.66	14708
1406.73	14684
1407.81	14764
1408.88	14590
1409.95	14682
1411.02	14526
1412.09	14502
1413.17	14362
1414.24	14492
1415.31	14330
1416.38	14274
1417.45	14234
1418.52	14140
1419.59	14234
1420.66	14176
1421.73	14168
1422.8	14236
1423.87	14100
1424.94	14204
1426.01	13988
1427.08	14140
1428.15	14188
1429.22	13944
1430.29	13908
1431.35	13834
1432.42	13928
1433.49	14018
1434.56	13768
1435.63	13940
1436.7	13758
1437.76	13952
1438.83	13730
1439.9	13798
1440.96	13688
1442.03	13834
1443.1	13608
1444.17	13744
1445.23	13588
1446.3	13472
1447.36	13610
1448.43	13612
1449.49	13472
1450.56	13572
1451.63	13454
1452.69	13498
1453.76	13496
1454.82	13492
1455.89	13426
1456.95	13406
1458.01	13314
1459.08	13450
1460.14	13342
1461.21	13372
1462.27	13408
1463.34	13388
1464.4	13360
1465.46	13222
1466.52	13412
1467.59	13300
1468.65	13228
1469.71	13078
1470.77	13200
1471.84	13124
1472.9	13144
1473.96	13122
1475.02	13096
1476.08	13078
1477.15	13150
1478.21	12950
1479.27	13162
1480.33	13040
1481.39	12996
1482.45	12948
1483.51	13072
1484.57	12924
1485.63	12788
1486.69	12932
1487.75	12880
1488.81	13016
1489.87	12920
1490.93	12900
1491.99	12714
1493.05	12888
1494.1	12742
1495.16	12748
1496.22	12746
1497.28	12684
1498.34	12712
1499.4	12514
1500.45	12632
1501.51	12738
1502.57	12586
1503.63	12540
1504.68	12586
1505.74	12508
1506.8	12542
1507.85	12464
1508.91	12442
1509.97	12422
1511.02	12288
1512.08	12454
1513.13	12356
1514.19	12318
1515.24	12296
1516.3	12362
1517.35	12188
1518.41	12260
1519.46	12226
1520.52	12192
1521.57	12176
1522.63	12302
1523.68	12108
1524.73	12230
1525.79	12178
1526.84	11950
1527.9	12166
1528.95	12006
1530	11982
1531.06	12130
1532.11	11984
1533.16	11866
1534.21	11926
1535.26	11934
1536.32	11970
1537.37	11910
1538.42	11864
1539.47	11860
1540.52	11860
1541.57	11818
1542.63	11822
1543.68	11730
1544.73	11840
1545.78	11806
1546.83	11754
1547.88	11664
1548.93	11734
1549.98	11586
1551.03	11570
1552.08	11678
1553.13	11692
1554.18	11658
1555.23	11680
1556.27	11566
1557.32	11462
1558.37	11450
1559.42	11464
1560.47	11494
1561.52	11504
1562.56	11486
1563.61	11484
1564.66	11322
1565.71	11382
1566.75	11440
1567.8	11434
1568.85	11484
1569.9	11490
1570.94	11254
1571.99	11342
1573.03	11406
1574.08	11342
1575.13	11200
1576.17	11324
1577.22	11298
1578.26	11320
1579.31	11306
1580.35	11396
1581.4	11444
1582.44	11362
1583.49	11214
1584.53	11156
1585.58	11204
1586.62	11200
1587.66	11076
1588.71	11056
1589.75	11186
1590.8	11206
1591.84	10976
1592.88	11198
1593.93	10950
1594.97	11020
1596.01	11166
1597.05	11216
1598.1	10960
1599.14	10972
1600.18	11188
1601.22	11084
1602.26	11024
1603.31	11014
1604.35	11114
1605.39	11126
1606.43	11056
1607.47	11114
1608.51	11040
1609.55	10936
1610.59	10876
1611.63	10918
1612.67	11106
1613.71	11056
1614.75	10990
1615.79	11048
1616.83	11066
1617.87	11018
1618.91	10976
1619.95	10888
1620.99	10928
1622.02	10902
1623.06	10940
1624.1	10898
1625.14	11000
1626.18	10936
1627.21	10852
1628.25	10934
1629.29	10906
1630.33	10828
1631.36	10802
1632.4	10852
1633.44	10818
1634.48	10768
1635.51	10754
1636.55	10828
1637.58	10646
1638.62	10818
1639.66	10772
1640.69	10578
1641.73	10718
1642.76	10610
1643.8	10686
1644.83	10656
1645.87	10592
1646.9	10590
1647.94	10626
1648.97	10754
1650	10614
1651.04	10610
1652.07	10428
1653.11	10580
1654.14	10568
1655.17	10582
1656.21	10496
1657.24	10468
1658.27	10604
1659.31	10422
1660.34	10490
1661.37	10442
1662.4	10384
1663.43	10606
1664.47	10396
1665.5	10510
1666.53	10440
1667.56	10366
1668.59	10250
1669.62	10390
1670.66	10316
1671.69	10408
1672.72	10280
1673.75	10308
1674.78	10308
1675.81	10376
1676.84	10300
1677.87	10200
1678.9	10224
1679.93	10248
1680.96	10324
1681.98	10194
1683.01	10066
1684.04	10176
1685.07	10180
1686.1	10186
1687.13	10088
1688.16	10160
1689.19	10104
1690.21	10122
1691.24	10066
1692.27	9978
1693.3	10020
1694.32	10136
1695.35	9986
1696.38	10052
1697.4	10012
1698.43	9998
1699.46	9976
1700.48	10142
1701.51	10008
1702.54	9932
1703.56	9754
1704.59	9892
1705.61	9814
1706.64	9970
1707.66	9918
1708.69	9866
1709.71	9880
1710.74	9982
1711.76	9890
1712.79	9922
1713.81	9912
1714.83	9820
1715.86	9862
1716.88	9882
1717.91	9882
1718.93	9756
1719.95	9770
1720.98	9810
1722	9692
1723.02	9612
1724.04	9806
1725.07	9606
1726.09	9544
1727.11	9782
1728.13	9618
1729.15	9642
1730.18	9696
1731.2	9666
1732.22	9608
1733.24	9518
1734.26	9650
1735.28	9594
1736.3	9694
1737.32	9644
1738.34	9546
1739.36	9534
1740.38	9774
1741.4	9496
1742.42	9554
1743.44	9526
1744.46	9636
1745.48	9660
1746.5	9596
1747.52	9576
1748.54	9552
1749.56	9536
1750.58	9598
1751.6	9534
1752.61	9438
1753.63	9506
1754.65	9638
1755.67	9498
1756.68	9486
1757.7	9480
1758.72	9508
1759.74	9472
1760.75	9496
1761.77	9470
1762.79	9550
1763.8	9522
1764.82	9610
1765.84	9482
1766.85	9526
1767.87	9504
1768.88	9532
1769.9	9352
1770.91	9454
1771.93	9382
1772.94	9380
1773.96	9316
1774.97	9520
1775.99	9384
1777	9382
1778.02	9440
1779.03	9366
1780.04	9464
1781.06	9366
1782.07	9362
1783.09	9368
1784.1	9388
1785.11	9472
1786.13	9428
1787.14	9456
1788.15	9442
1789.16	9518
1790.18	9420
1791.19	9366
1792.2	9246
1793.21	9228
1794.22	9174
1795.23	9276
1796.25	9378
1797.26	9446
1798.27	9384
1799.28	9232
1800.29	9280
1801.3	9194
1802.31	9372
1803.32	9262
1804.33	9256
1805.34	9252
1806.35	9262
1807.36	9296
1808.37	9236
1809.38	9206
1810.39	9150
1811.4	9174
1812.41	9144
1813.42	9222
1814.43	9176
1815.43	9142
1816.44	9188
1817.45	9046
1818.46	9152
1819.47	9034
1820.47	9030
1821.48	9084
1822.49	9150
1823.49	8956
1824.5	9124
1825.51	9116
1826.52	9106
1827.52	9104
1828.53	9014
1829.54	9048
1830.54	8938
1831.55	8936
1832.55	9042
1833.56	9014
1834.56	8952
1835.57	8906
1836.57	9026
1837.58	9002
1838.58	8890
1839.59	9004
1840.59	8960
1841.6	8986
1842.6	8914
1843.61	8914
1844.61	8802
1845.61	8874
1846.62	8846
1847.62	8866
1848.62	8836
1849.63	8850
1850.63	8882
1851.63	8916
1852.64	8842
1853.64	8858
1854.64	8866
1855.64	8704
1856.64	8882
1857.65	8736
1858.65	8660
1859.65	8696
1860.65	8780
1861.65	8834
1862.65	8778
1863.65	8764
1864.66	8672
1865.66	8734
1866.66	8638
1867.66	8828
1868.66	8558
1869.66	8582
1870.66	8710
1871.66	8688
1872.66	8740
1873.66	8668
1874.66	8560
1875.65	8674
1876.65	8596
1877.65	8662
1878.65	8646
1879.65	8614
1880.65	8714
1881.65	8618
1882.64	8638
1883.64	8644
1884.64	8574
1885.64	8646
1886.63	8598
1887.63	8692
1888.63	8594
1889.63	8624
1890.62	8662
1891.62	8482
1892.62	8514
1893.61	8718
1894.61	8580
1895.6	8606
1896.6	8550
1897.6	8490
1898.59	8598
1899.59	8512
1900.58	8636
1901.58	8482
1902.57	8606
1903.57	8568
1904.56	8646
1905.56	8596
1906.55	8592
1907.54	8566
1908.54	8482
1909.53	8594
1910.53	8482
1911.52	8594
1912.51	8520
1913.51	8562
1914.5	8528
1915.49	8480
1916.49	8530
1917.48	8464
1918.47	8368
1919.46	8554
1920.46	8518
1921.45	8548
1922.44	8506
1923.43	8418
1924.42	8540
1925.41	8406
1926.41	8426
1927.4	8366
1928.39	8452
1929.38	8470
1930.37	8436
1931.36	8544
1932.35	8352
1933.34	8480
1934.33	8526
1935.32	8494
1936.31	8502
1937.3	8410
1938.29	8476
1939.28	8510
1940.27	8446
1941.26	8312
1942.24	8380
1943.23	8290
1944.22	8358
1945.21	8404
1946.2	8428
1947.19	8334
1948.17	8452
1949.16	8266
1950.15	8304
1951.14	8342
1952.13	8272
1953.11	8396
1954.1	8302
1955.09	8316
1956.07	8358
1957.06	8296
1958.05	8288
1959.03	8334
1960.02	8304
1961	8202
1961.99	8290
1962.98	8240
1963.96	8214
1964.95	8254
1965.93	8190
1966.92	8222
1967.9	8218
1968.89	8220
1969.87	8094
1970.85	8270
1971.84	8174
1972.82	8118
1973.81	8270
1974.79	8048
1975.78	8202
1976.76	8218
1977.74	8176
1978.73	8222
1979.71	8114
1980.69	8148
1981.67	8216
1982.66	7976
1983.64	8138
1984.62	8214
1985.6	8170
1986.59	8200
1987.57	8194
1988.55	8192
1989.53	8114
1990.51	8146
1991.49	8114
1992.47	8118
1993.45	8060
1994.44	7980
1995.42	8186
1996.4	8000
1997.38	8190
1998.36	8042
1999.34	8066
2000.32	8106
2001.3	7964
2002.28	7996
2003.26	8092
2004.24	8048
2005.22	8036
2006.19	8026
2007.17	8044
2008.15	7950
2009.13	8038
2010.11	8070
2011.09	8004
2012.06	8114
2013.04	7964
2014.02	8014
2015	8058
2015.98	8040
2016.95	8008
2017.93	8002
2018.91	7888
2019.88	8078
2020.86	7948
2021.84	7974
2022.81	8020
2023.79	7952
2024.77	7972
2025.74	7936
2026.72	7966
2027.69	7854
2028.67	7938
2029.65	7972
2030.62	7904
2031.6	7890
2032.57	7838
2033.55	7912
2034.52	7898
2035.5	7858
2036.47	7844
2037.44	7832
2038.42	7956
2039.39	7870
2040.36	7786
2041.34	8016
2042.31	7750
2043.29	7746
2044.26	7776
2045.23	7848
2046.2	7808
2047.18	7686
2048.15	7828
2049.12	7896
2050.09	7774
2051.07	7866
2052.04	7828
2053.01	7866
2053.98	7804
2054.95	7816
2055.93	7746
2056.9	7756
2057.87	7722
2058.84	7748
2059.81	7832
2060.78	7824
2061.75	7774
2062.72	7740
2063.69	7672
2064.66	7698
2065.63	7672
2066.6	7748
2067.57	7792
2068.54	7830
2069.51	7650
2070.48	7810
2071.45	7726
2072.42	7662
2073.38	7670
2074.35	7592
2075.32	7700
2076.29	7612
2077.26	7692
2078.23	7772
2079.19	7694
2080.16	7678
2081.13	7700
2082.1	7526
2083.06	7648
2084.03	7648
2085	7590
2085.96	7718
2086.93	7588
2087.9	7632
2088.86	7614
2089.83	7556
2090.8	7720
2091.76	7570
2092.73	7612
2093.69	7610
2094.66	7708
2095.62	7630
2096.59	7470
2097.55	7556
2098.52	7556
2099.48	7600
2100.45	7548
2101.41	7552
2102.38	7530
2103.34	7492
2104.31	7508
2105.27	7624
2106.23	7536
2107.2	7594
2108.16	7524
2109.12	7514
2110.09	7556
2111.05	7484
2112.01	7602
2112.98	7478
2113.94	7460
2114.9	7514
2115.86	7600
2116.82	7438
2117.79	7562
2118.75	7400
2119.71	7474
2120.67	7390
2121.63	7498
2122.59	7354
2123.55	7406
2124.52	7442
2125.48	7432
2126.44	7390
2127.4	7394
2128.36	7508
2129.32	7440
2130.28	7426
2131.24	7348
2132.2	7592
2133.16	7354
2134.12	7400
2135.08	7300
2136.04	7406
2136.99	7388
2137.95	7346
2138.91	7426
2139.87	7356
2140.83	7366
2141.79	7364
2142.75	7338
2143.7	7400
2144.66	7326
2145.62	7343.81
2146.58	7316.78
2147.53	7352.48
2148.49	7204.35
2149.45	7351.32
2150.41	7182.06
2151.36	7293.75
2152.32	7278.72
2153.28	7317.75
2154.23	7309.15
2155.19	7240.15
2156.14	7253.1
2157.1	7169.18
2158.06	7144.78
2159.01	7169.35
2159.97	7179.22
2160.92	7234
2161.88	7267.49
2162.83	7203.17
2163.79	7163.59
2164.74	7133.46
2165.7	7145.47
2166.65	7076.47
2167.61	7118.59
2168.56	7122.77
2169.51	7176.36
2170.47	7107.52
2171.42	7090.13
2172.38	7159.79
2173.33	7172.59
2174.28	7150.47
2175.24	7146.21
2176.19	7077.36
2177.14	7098.97
2178.09	7020.44
2179.05	7085.49
2180	7075.41
2180.95	7026.77
2181.9	7100.21
2182.86	7113.46
2183.81	7047.68
2184.76	7049.47
2185.71	7013.09
2186.66	7034.33
2187.61	7014.04
2188.57	7007.12
2189.52	7037.21
2190.47	7055.59
2191.42	6995.43
2192.37	6978.1
2193.32	7048.58
2194.27	6956.04
2195.22	7000.94
2196.17	6989.53
2197.12	7013.63
2198.07	6940.84
2199.02	6989.07
2199.97	6939.75
2200.92	6938.86
2201.87	6924.33
2202.82	6981.15
2203.76	6890.38
2204.71	6933.11
2205.66	6965.57
2206.61	6885.87
2207.56	6965.19
2208.51	6965.21
2209.45	6967.18
2210.4	6966.55
2211.35	6939.88
2212.3	6911.52
2213.25	6899.84
2214.19	6957.69
2215.14	6955.09
2216.09	6909.01
2217.03	6906.11
2217.98	6903.57
2218.93	6922.05
2219.87	6905.72
2220.82	6926.3
2221.77	6977.7
2222.71	6932.97
2223.66	6962.33
2224.6	6920.74
2225.55	6934.95
2226.49	6963.7
2227.44	6959.56
2228.38	6949.29
2229.33	6935.85
2230.27	6904.46
2231.22	6902.46
2232.16	6971.94
2233.11	6946.97
2234.05	6927.08
2235	6967.83
2235.94	7032.87
2236.88	6950.19
2237.83	6910.79
2238.77	6965.43
2239.72	6989.28
2240.66	6987.83
2241.6	6919.3
2242.07	6868
2243.02	6944
2243.97	6864
2244.92	6908
2245.87	7000
2246.81	6914
2247.76	6964
2248.71	6866
2249.65	6958
2250.6	7018
2251.55	6846
2252.49	6960
2253.44	6934
2254.39	6934
2255.33	6818
2256.28	6904
2257.22	6812
2258.17	6892
2259.12	6922
2260.06	6920
2261.01	6872
2261.95	6848
2262.9	6856
2263.84	6812
2264.78	6922
2265.73	6928
2266.67	6848
2267.62	6856
2268.56	6750
2269.51	6814
2270.45	6764
2271.39	6830
2272.34	6874
2273.28	6880
2274.22	6750
2275.17	6848
2276.11	6814
2277.05	6916
2277.99	6824
2278.94	6750
2279.88	6804
2280.82	6802
2281.76	6704
2282.71	6750
2283.65	6778
2284.59	6762
2285.53	6788
2286.47	6776
2287.41	6838
2288.35	6764
2289.3	6692
2290.24	6822
2291.18	6804
2292.12	6762
2293.06	6762
2294	6714
2294.94	6690
2295.88	6682
2296.82	6674
2297.76	6636
2298.7	6704
2299.64	6668
2300.58	6622
2301.52	6648
2302.46	6728
2303.39	6668
2304.33	6592
2305.27	6706
2306.21	6664
2307.15	6564
2308.09	6616
2309.02	6660
2309.96	6612
2310.9	6674
2311.84	6580
2312.77	6662
2313.71	6628
2314.65	6588
2315.59	6532
2316.52	6590
2317.46	6548
2318.4	6644
2319.33	6556
2320.27	6646
2321.21	6588
2322.14	6610
2323.08	6576
2324.01	6520
2324.95	6430
2325.89	6528
2326.82	6538
2327.76	6488
2328.69	6506
2329.63	6632
2330.56	6486
2331.5	6564
2332.43	6418
2333.36	6524
2334.3	6600
2335.23	6534
2336.17	6600
2337.1	6516
2338.03	6536
2338.97	6500
2339.9	6484
2340.83	6538
2341.77	6494
2342.7	6450
2343.63	6512
2344.57	6540
2345.5	6528
2346.43	6434
2347.36	6604
2348.3	6492
2349.23	6424
2350.16	6460
2351.09	6492
2352.02	6458
2352.95	6548
2353.89	6502
2354.82	6472
2355.75	6440
2356.68	6448
2357.61	6434
2358.54	6460
2359.47	6412
2360.4	6502
2361.33	6318
2362.26	6494
2363.19	6402
2364.12	6472
2365.05	6516
2365.98	6382
2366.91	6360
2367.84	6392
2368.77	6418
2369.7	6458
2370.63	6342
2371.56	6390
2372.48	6398
2373.41	6426
2374.34	6444
2375.27	6354
2376.2	6348
2377.12	6354
2378.05	6342
2378.98	6304
2379.91	6332
2380.84	6324
2381.76	6380
2382.69	6390
2383.62	6376
2384.54	6364
2385.47	6352
2386.4	6232
2387.32	6314
2388.25	6326
2389.18	6294
2390.1	6324
2391.03	6354
2391.95	6302
2392.88	6352
2393.8	6278
2394.73	6212
2395.65	6258
2396.58	6218
2397.5	6252
2398.43	6382
2399.35	6260
2400.28	6250
2401.2	6268
2402.13	6236
2403.05	6138
2403.97	6152
2404.9	6220
2405.82	6142
2406.75	6182
2407.67	6154
2408.59	6154
2409.51	6226
2410.44	6204
2411.36	6116
2412.28	6102
2413.21	6198
2414.13	6150
2415.05	6136
2415.97	6186
2416.9	6020
2417.82	6126
2418.74	6178
2419.66	6128
2420.58	6262
2421.5	6180
2422.42	6116
2423.35	6090
2424.27	6120
2425.19	6152
2426.11	6108
2427.03	6064
2427.95	6144
2428.87	6162
2429.79	6050
2430.71	6086
2431.63	6130
2432.55	5952
2433.47	6042
2434.39	6014
2435.31	6060
2436.23	6058
2437.14	6016
2438.06	6038
2438.98	6038
2439.9	6050
2440.82	6036
2441.74	6020
2442.66	6064
2443.57	6036
2444.49	6038
2445.41	6000
2446.33	5994
2447.24	6128
2448.16	6052
2449.08	5948
2450	6026
2450.91	5912
2451.83	6004
2452.75	6016
2453.66	5944
2454.58	5930
2455.5	6004
2456.41	5950
2457.33	5926
2458.24	5870
2459.16	6016
2460.08	5906
2460.99	5982
2461.91	5852
2462.82	5818
2463.74	5834
2464.65	5940
2465.57	5908
2466.48	5924
2467.4	5836
2468.31	5840
2469.22	5824
2470.14	5854
2471.05	5764
2471.97	5926
2472.88	5866
2473.79	5768
2474.71	5804
2475.62	5844
2476.53	5808
2477.45	5790
2478.36	5894
2479.27	5836
2480.19	5830
2481.1	5890
2482.01	5868
2482.92	5832
2483.83	5826
2484.75	5696
2485.66	5756
2486.57	5710
2487.48	5736
2488.39	5820
2489.3	5744
2490.22	5680
2491.13	5704
2492.04	5704
2492.95	5676
2493.86	5658
2494.77	5688
2495.68	5788
2496.59	5668
2497.5	5704
2498.41	5664
2499.32	5654
2500.23	5654
2501.14	5642
2502.05	5600
2502.96	5646
2503.87	5676
2504.78	5554
2505.68	5560
2506.59	5596
2507.5	5574
2508.41	5714
2509.32	5664
2510.23	5616
2511.14	5620
2512.04	5680
2512.95	5676
2513.86	5548
2514.77	5564
2515.67	5522
2516.58	5626
2517.49	5578
2518.39	5586
2519.3	5576
2520.21	5596
2521.11	5540
2522.02	5438
2522.93	5576
2523.83	5554
2524.74	5472
2525.65	5528
2526.55	5506
2527.46	5550
2528.36	5520
2529.27	5528
2530.17	5520
2531.08	5432
2531.98	5438
2532.89	5482
2533.79	5528
2534.7	5488
2535.6	5392
2536.51	5412
2537.41	5418
2538.32	5350
2539.22	5430
2540.12	5482
2541.03	5360
2541.93	5468
2542.83	5402
2543.74	5414
2544.64	5366
2545.54	5430
2546.45	5262
2547.35	5420
2548.25	5392
2549.15	5368
2550.06	5348
2550.96	5358
2551.86	5390
2552.76	5334
2553.66	5356
2554.56	5296
2555.47	5282
2556.37	5302
2557.27	5318
2558.17	5320
2559.07	5302
2559.97	5274
2560.87	5310
2561.77	5272
2562.67	5302
2563.58	5272
2564.47	5290
2565.38	5226
2566.27	5246
2567.18	5246
2568.07	5230
2568.97	5234
2569.87	5280
2570.77	5200
2571.67	5252
2572.57	5244
2573.47	5232
2574.37	5114
2575.27	5158
2576.17	5222
2577.06	5152
2577.96	5146
2578.86	5188
2579.76	5116
2580.66	5170
2581.55	5140
2582.45	5180
2583.35	5136
2584.25	5036
2585.14	5106
2586.04	5174
2586.94	5052
2587.83	5146
2588.73	5026
2589.63	5030
2590.52	5052
2591.42	5068
2592.32	5054
2593.21	5090
2594.11	5112
2595	5034
2595.9	5020
2596.8	5080
2597.69	5044
2598.59	5078
2599.48	5040
2600.38	5014
2601.27	5060
2602.17	4914
2603.06	5022
2603.95	5004
2604.85	4958
2605.74	5030
2606.64	5084
2607.53	4996
2608.42	4944
2609.32	5030
2610.21	4924
2611.1	4956
2612	4948
2612.89	4880
2613.78	4958
2614.68	4918
2615.57	4922
2616.46	4986
2617.36	4900
2618.25	4948
2619.14	4928
2620.03	4868
2620.92	4900
2621.82	4990
2622.71	4884
2623.6	4850
2624.49	4890
2625.38	4822
2626.27	4826
2627.16	4938
2628.05	4840
2628.95	4752
2629.84	4814
2630.73	4786
2631.62	4798
2632.51	4848
2633.4	4716
2634.29	4760
2635.18	4790
2636.07	4760
2636.96	4772
2637.85	4790
2638.74	4712
2639.62	4766
2640.51	4722
2641.4	4750
2642.29	4668
2643.18	4740
2644.07	4744
2644.96	4696
2645.85	4616
2646.73	4704
2647.62	4674
2648.51	4704
2649.4	4668
2650.28	4742
2651.17	4640
2652.06	4700
2652.95	4686
2653.83	4714
2654.72	4584
2655.61	4692
2656.5	4590
2657.38	4622
2658.27	4634
2659.15	4596
2660.04	4684
2660.93	4636
2661.81	4606
2662.7	4614
2663.58	4588
2664.47	4598
2665.35	4554
2666.24	4530
2667.13	4508
2668.01	4586
2668.9	4556
2669.78	4600
2670.66	4560
2671.55	4640
2672.43	4546
2673.32	4602
2674.2	4656
2675.09	4594
2675.97	4534
2676.85	4550
2677.74	4514
2678.62	4506
2679.5	4458
2680.39	4486
2681.27	4442
2682.15	4518
2683.04	4538
2683.92	4544
2684.8	4508
2685.68	4516
2686.57	4414
2687.45	4496
2688.33	4438
2689.21	4494
2690.09	4412
2690.98	4468
2691.86	4420
2692.74	4370
2693.62	4378
2694.5	4432
2695.38	4410
2696.26	4390
2697.15	4390
2698.03	4446
2698.91	4406
2699.79	4354
2700.67	4360
2701.55	4484
2702.43	4342
2703.31	4392
2704.19	4362
2705.07	4350
2705.95	4428
2706.83	4310
2707.7	4356
2708.58	4412
2709.46	4294
2710.34	4322
2711.22	4360
2712.1	4336
2712.98	4228
2713.86	4320
2714.73	4288
2715.61	4242
2716.49	4296
2717.37	4220
2718.25	4230
2719.12	4218
2720	4286
2720.88	4220
2721.76	4318
2722.63	4164
2723.51	4198
2724.39	4288
2725.26	4194
2726.14	4206
2727.02	4204
2727.89	4234
2728.77	4128
2729.64	4126
2730.52	4188
2731.4	4134
2732.27	4128
2733.15	4148
2734.02	4228
2734.9	4226
2735.77	4134
2736.65	4200
2737.52	4110
2738.4	4042
2739.27	4118
2740.15	4042
2741.02	4108
2741.9	4088
2742.77	4070
2743.64	4048
2744.52	4138
2745.39	4114
2746.27	4110
2747.14	4100
2748.01	4086
2748.89	4114
2749.76	4014
2750.63	4048
2751.51	4096
2752.38	4042
2753.25	4030
2754.12	4032
2755	4006
2755.87	4050
2756.74	3960
2757.61	4016
2758.48	3980
2759.35	3994
2760.23	3958
2761.1	4014
2761.97	3964
2762.84	3920
2763.71	3952
2764.58	4002
2765.45	3964
2766.32	3974
2767.19	3994
2768.07	4042
2768.94	3930
2769.81	3910
2770.68	4000
2771.55	3910
2772.42	3804
2773.29	3922
2774.16	3862
2775.02	3894
2775.89	3938
2776.76	3910
2777.63	3888
2778.5	3866
2779.37	3844
2780.24	3878
2781.11	3870
2781.98	3858
2782.84	3848
2783.71	3886
2784.58	3778
2785.45	3720
2786.32	3822
2787.18	3830
2788.05	3872
2788.92	3846
2789.79	3754
2790.65	3764
2791.52	3884
2792.39	3754
2793.25	3752
2794.12	3720
2794.99	3852
2795.85	3706
2796.72	3738
2797.59	3790
2798.45	3740
2799.32	3758
2800.18	3760
2801.05	3786
2801.92	3794
2802.78	3730
2803.65	3766
2804.51	3802
2805.38	3712
2806.24	3652
2807.11	3750
2807.97	3650
2808.84	3706
2809.7	3748
2810.57	3770
2811.43	3650
2812.29	3724
2813.16	3736
2814.02	3646
2814.88	3680
2815.75	3660
2816.61	3568
2817.47	3602
2818.34	3664
2819.2	3662
2820.06	3606
2820.93	3580
2821.79	3628
2822.65	3662
2823.51	3714
2824.38	3610
2825.24	3612
2826.1	3572
2826.96	3588
2827.82	3660
2828.69	3614
2829.55	3584
2830.41	3526
2831.27	3532
2832.13	3530
2832.99	3554
2833.85	3582
2834.71	3532
2835.57	3414
2836.44	3568
2837.3	3518
2838.16	3518
2839.02	3502
2839.88	3524
2840.74	3550
2841.6	3522
2842.46	3444
2843.32	3488
2844.18	3534
2845.03	3504
2845.89	3524
2846.75	3440
2847.61	3534
2848.47	3496
2849.33	3482
2850.19	3454
2851.05	3448
2851.9	3430
2852.76	3426
2853.62	3330
2854.48	3400
2855.34	3320
2856.19	3400
2857.05	3404
2857.91	3406
2858.77	3312
2859.62	3388
2860.48	3390
2861.34	3436
2862.19	3446
2863.05	3348
2863.91	3352
2864.76	3448
2865.62	3282
2866.48	3352
2867.33	3352
2868.19	3376
2869.04	3292
2869.9	3276
2870.76	3330
2871.61	3276
2872.47	3388
2873.32	3292
2874.18	3308
2875.03	3230
2875.89	3354
2876.74	3296
2877.6	3326
2878.45	3300
2879.31	3286
2880.16	3208
2881.01	3278
2881.87	3274
2882.72	3290
2883.58	3266
2884.43	3258
2885.28	3238
2886.14	3232
2886.99	3308
2887.84	3208
2888.7	3232
2889.55	3182
2890.4	3232
2891.25	3216
2892.11	3208
2892.96	3186
2893.81	3154
2894.66	3158
2895.52	3214
2896.37	3178
2897.22	3182
2898.07	3166
2898.92	3112
2899.77	3068
2900.62	3216
2901.48	3138
2902.33	3202
2903.18	3110
2904.03	3206
2904.88	3168
2905.73	3182
2906.58	3204
2907.43	3124
2908.28	3182
2909.13	3082
2909.98	3220
2910.83	3156
2911.68	3126
2912.53	3134
2913.38	3084
2914.23	3160
2915.08	3092
2915.93	3122
2916.78	3154
2917.63	3108
2918.47	3076
2919.32	3138
2920.17	3088
2921.02	3072
2921.87	3076
2922.72	3130
2923.56	3054
2924.41	3060
2925.26	3072
2926.11	3054
2926.95	3092
2927.8	3056
2928.65	3106
2929.5	3064
2930.34	3056
2931.19	3082
2932.04	3032
2932.88	3042
2933.73	3062
2934.58	3030
2935.42	2962
2936.27	2936
2937.11	3042
2937.96	3070
2938.81	3056
2939.65	2948
2940.5	2946
2941.34	2984
2942.19	2958
2943.03	2960
2943.88	3018
2944.72	2936
2945.57	2934
2946.41	2992
2947.26	2984
2948.1	2984
2948.95	2992
2949.79	2896
2950.64	2956
2951.48	2960
2952.32	2942
2953.17	2906
2954.01	2970
2954.85	2950
2955.7	2976
2956.54	2970
2957.38	2956
2958.23	2980
2959.07	2966
2959.91	2994
2960.75	2906
2961.6	2912
2962.44	2934
2963.28	2906
2964.12	2898
2964.97	2856
2965.81	2914
2966.65	2884
2967.49	2826
2968.33	2936
2969.17	2844
2970.02	2896
2970.86	2816
2971.7	2864
2972.54	2864
2973.38	2828
2974.22	2850
2975.06	2864
2975.9	2830
2976.74	2838
2977.58	2786
2978.42	2778
2979.26	2826
2980.1	2798
2980.94	2834
2981.78	2790
2982.62	2822
2983.46	2802
2984.3	2834
2985.14	2738
2985.98	2838
2986.82	2830
2987.66	2706
2988.49	2748
2989.33	2762
2990.17	2712
2991.01	2814
2991.85	2784
2992.69	2758
2993.52	2714
2994.36	2722
2995.2	2694
2996.04	2698
2996.87	2694
2997.71	2736
2998.55	2736
2999.39	2750
