#Acq. time (s)=	10
#Accumulations=	1
#Range (cm-¹)=	100...3000
#Windows=	3
#Autofocus=	Off
#AutoExposure=	Off
#Spike filter=	Off
#Delay time (s)=	0
#Binning=	1
#Readout mode=	Signal
#DeNoise=	Off
#ICS correction=	Off
#Dark correction=	Off
#Inst. Process=	Off
#Instrument=	LabRAM HR Evol
#Detector=	Syncerity OE
#Objective=	x100_VIS
#Grating=	600 (500nm)
#ND Filter=	3.2%
#Laser=	633nm_Edge
#Hole=	100.021
#Range=	Visible
#Project=	Omar
#Sample=	26-06-23
#Site=	2
#Title=	Organic
#Remark=	
#Date=	26.06.2023 16:33
#Acquired=	26.06.2023 16:33:25
101.018	3476
102.302	3528
103.586	3498
104.869	3560
106.152	3542
107.435	3610
108.717	3582
109.999	3608
111.281	3600
112.563	3618
113.845	3618
115.126	3610
116.407	3528
117.688	3634
118.969	3644
120.249	3702
121.53	3622
122.81	3590
124.09	3652
125.369	3656
126.649	3696
127.928	3714
129.207	3702
130.486	3696
131.765	3648
133.043	3692
134.321	3646
135.599	3722
136.877	3708
138.155	3760
139.432	3680
140.708	3680
141.985	3714
143.261	3680
144.538	3734
145.814	3752
147.09	3632
148.366	3660
149.641	3802
150.916	3858
152.191	3730
153.466	3726
154.741	3854
156.016	3770
157.289	3812
158.563	3746
159.837	3812
161.111	3760
162.385	3812
163.657	3846
164.93	3856
166.203	3820
167.476	3876
168.747	3890
170.019	3854
171.291	3838
172.562	3836
173.834	3834
175.105	3928
176.377	3852
177.646	3894
178.917	3880
180.188	3808
181.457	3888
182.727	3892
183.996	3790
185.266	3916
186.536	3924
187.804	3908
189.073	3906
190.342	3870
191.609	3906
192.878	4004
194.145	3898
195.413	3952
196.681	3990
197.948	4020
199.215	3978
200.481	4054
201.749	4000
203.014	4034
204.281	3974
205.546	4038
206.813	3992
208.077	4012
209.343	4030
210.608	4004
211.873	4050
213.137	4064
214.402	4054
215.666	4088
216.93	4070
218.194	4086
219.458	4078
220.721	4162
221.983	4116
223.247	4154
224.509	4142
225.772	4082
227.034	4172
228.295	4158
229.558	4174
230.819	4304
232.081	4196
233.342	4206
234.602	4276
235.864	4292
237.124	4262
238.384	4288
239.645	4328
240.904	4270
242.164	4304
243.423	4234
244.683	4408
245.941	4306
247.2	4412
248.46	4338
249.717	4332
250.975	4274
252.233	4352
253.492	4342
254.749	4320
256.006	4424
257.263	4384
258.519	4410
259.777	4370
261.033	4312
262.289	4366
263.545	4332
264.8	4334
266.057	4316
267.312	4376
268.567	4354
269.822	4346
271.076	4388
272.331	4342
273.585	4360
274.839	4336
276.094	4314
277.347	4366
278.601	4308
279.854	4336
281.107	4424
282.359	4450
283.612	4408
284.864	4420
286.116	4462
287.368	4448
288.62	4494
289.871	4450
291.123	4516
292.374	4418
293.625	4564
294.875	4468
296.126	4632
297.376	4590
298.626	4518
299.876	4566
301.126	4614
302.375	4594
303.625	4590
304.874	4652
306.122	4648
307.371	4702
308.62	4718
309.866	4778
311.114	4704
312.362	4652
313.61	4682
314.857	4612
316.105	4666
317.352	4684
318.599	4616
319.844	4632
321.09	4660
322.337	4604
323.583	4702
324.828	4686
326.073	4684
327.318	4722
328.563	4774
329.808	4796
331.053	4746
332.296	4772
333.541	4654
334.785	4758
336.029	4762
337.272	4748
338.515	4766
339.759	4762
341.001	4796
342.244	4778
343.486	4736
344.728	4900
345.97	4782
347.212	4874
348.453	4794
349.695	4870
350.936	4822
352.176	4868
353.418	4834
354.659	4880
355.898	4838
357.139	4956
358.378	4914
359.618	4902
360.858	4976
362.097	4966
363.336	4900
364.574	4972
365.813	4958
367.051	4906
368.29	4880
369.527	4984
370.766	4936
372.002	4950
373.241	4896
374.477	5004
375.715	4938
376.951	5020
378.188	4960
379.424	4898
380.66	4932
381.896	4988
383.132	4982
384.367	4966
385.603	5020
386.838	4990
388.072	4934
389.307	4936
390.541	4982
391.776	5000
393.01	4976
394.243	4978
395.477	5080
396.71	5092
397.943	5048
399.177	5068
400.409	5034
401.641	5080
402.875	5194
404.106	5188
405.338	5080
406.57	5136
407.802	5062
409.032	5200
410.263	5134
411.495	5170
412.725	5166
413.955	5286
415.185	5246
416.417	5216
417.646	5278
418.875	5218
420.104	5360
421.335	5328
422.564	5300
423.792	5336
425.02	5334
426.249	5396
427.477	5452
428.706	5332
429.933	5474
431.161	5452
432.388	5418
433.615	5342
434.841	5460
436.068	5392
437.294	5468
438.522	5460
439.748	5450
440.974	5498
442.199	5394
443.425	5472
444.65	5496
445.875	5432
447.1	5552
448.324	5424
449.549	5484
450.773	5578
451.997	5468
453.221	5500
454.445	5530
455.668	5460
456.891	5454
458.114	5506
459.337	5600
460.56	5492
461.782	5608
463.005	5546
464.227	5556
465.447	5622
466.669	5640
467.89	5452
469.112	5574
470.333	5536
471.554	5596
472.774	5616
473.995	5582
475.214	5628
476.434	5628
477.654	5664
478.874	5698
480.093	5676
481.312	5690
482.53	5648
483.749	5668
484.968	5700
486.186	5720
487.405	5688
488.622	5714
489.84	5634
491.057	5796
492.275	5794
493.491	5800
494.708	5668
495.925	5764
497.141	5780
498.357	5832
499.574	5900
500.789	5718
502.005	5864
503.221	5892
504.435	5786
505.65	5820
506.866	5838
508.079	5852
509.294	5888
510.509	5774
511.722	5740
512.936	5906
514.149	5912
515.363	5920
516.577	5940
517.789	5892
519.002	5946
520.214	5920
521.427	5852
522.638	5948
523.851	5916
525.062	5914
526.274	5944
527.485	5960
528.697	6000
529.907	5894
531.118	5900
532.328	6016
533.539	6032
534.748	5970
535.959	5934
537.168	5994
538.379	5964
539.587	6004
540.796	5996
542.005	6072
543.214	5990
544.423	5926
545.631	5870
546.838	6076
548.047	6000
549.254	6036
550.461	6010
551.669	6120
552.876	6068
554.082	6054
555.29	6046
556.496	6046
557.701	6102
558.909	6004
560.114	6122
561.319	6170
562.524	6222
563.731	6198
564.935	6254
566.14	6216
567.344	6238
568.549	6138
569.753	6236
570.957	6162
572.161	6230
573.364	6210
574.568	6254
575.771	6302
576.974	6206
578.177	6182
579.379	6204
580.581	6304
581.785	6280
582.987	6354
584.188	6324
585.39	6274
586.591	6370
587.792	6382
588.993	6268
590.193	6308
591.394	6378
592.594	6356
593.796	6400
594.996	6366
596.195	6418
597.395	6508
598.594	6466
599.793	6570
600.992	6416
602.191	6374
603.39	6522
604.588	6552
605.786	6532
606.984	6598
608.181	6652
609.378	6590
610.576	6624
611.773	6566
612.97	6562
614.167	6608
615.364	6630
616.56	6730
617.757	6774
618.953	6718
620.149	6776
621.343	6786
622.539	6704
623.734	6782
624.929	6786
626.124	6818
627.319	6856
628.512	6918
629.707	6890
630.901	6952
632.095	7006
633.289	6894
634.481	6988
635.675	6888
636.868	7010
638.061	6980
639.253	6980
640.446	7146
641.638	7004
642.831	7032
644.021	7018
645.213	7162
646.405	7088
647.595	7178
648.787	7140
649.978	7244
651.168	7116
652.359	7190
653.549	7322
654.738	7184
655.929	7320
657.117	7250
658.307	7264
659.497	7290
660.685	7312
661.875	7360
663.063	7358
664.252	7378
665.439	7328
666.628	7362
667.816	7282
669.003	7344
670.191	7376
671.378	7422
672.565	7378
673.751	7336
674.939	7464
676.124	7270
677.311	7452
678.497	7456
679.682	7476
680.868	7488
682.053	7588
683.239	7482
684.424	7514
685.609	7520
686.793	7562
687.977	7592
689.162	7578
690.346	7638
691.529	7568
692.714	7650
693.897	7664
695.081	7516
696.264	7592
697.446	7654
698.63	7716
699.812	7598
700.993	7734
702.175	7770
703.358	7876
704.539	7768
705.72	7820
706.901	7836
708.083	7794
709.264	7798
710.444	7862
711.625	7824
712.806	7966
713.986	7940
715.165	7886
716.345	7968
717.524	8064
718.705	7956
719.884	8042
721.062	8150
722.241	8116
723.419	8120
724.597	8110
725.775	8250
726.954	8044
728.132	8278
729.31	8200
730.487	8244
731.664	8232
732.841	8246
734.017	8302
735.194	8210
736.37	8390
737.546	8362
738.722	8358
739.898	8380
741.074	8408
742.249	8346
743.424	8386
744.599	8514
745.774	8370
746.949	8600
748.123	8556
749.298	8538
750.472	8502
751.646	8542
752.819	8562
753.993	8540
755.166	8636
756.34	8670
757.511	8634
758.684	8672
759.857	8660
761.029	8610
762.202	8720
763.374	8748
764.546	8770
765.716	8748
766.888	8892
768.059	8684
769.23	8774
770.401	8794
771.571	8784
772.741	8800
773.912	8854
775.082	8838
776.251	9014
777.421	8920
778.59	9086
779.76	9004
780.928	9012
782.097	9012
783.266	9000
784.434	8994
785.602	9070
786.771	9140
787.938	9132
789.106	9060
790.274	9232
791.44	9108
792.608	9182
793.775	9280
794.941	9212
796.108	9442
797.273	9356
798.44	9346
799.606	9424
800.771	9396
801.937	9440
803.102	9414
804.268	9522
805.432	9472
806.597	9590
807.761	9544
808.926	9618
810.09	9574
811.254	9694
812.417	9670
813.582	9698
814.744	9824
815.908	9712
817.071	9744
818.234	9804
819.396	9704
820.558	9934
821.721	9938
822.883	9868
824.045	9930
825.206	9972
826.367	9954
827.529	10120
828.69	10082
829.85	10108
831.012	10142
832.172	10284
833.332	10276
834.493	10208
835.653	10282
836.812	10312
837.972	10488
839.131	10240
840.29	10498
841.449	10416
842.609	10516
843.767	10356
844.925	10498
846.083	10590
847.242	10698
848.399	10672
849.557	10610
850.714	10608
851.871	10724
853.029	10788
854.186	10866
855.342	10696
856.498	10836
857.654	10818
858.81	10844
859.966	10970
861.122	10898
862.278	10924
863.434	10934
864.589	11120
865.744	11102
866.898	11218
868.053	10964
869.207	11162
870.361	11172
871.515	11308
872.669	11254
873.822	11224
874.976	11212
876.129	11224
877.282	11362
878.435	11282
879.588	11194
880.74	11234
881.893	11432
883.045	11412
884.197	11320
885.349	11388
886.5	11544
887.652	11474
888.802	11544
889.953	11492
891.104	11542
892.254	11744
893.405	11574
894.555	11558
895.706	11724
896.854	11590
898.004	11690
899.154	11692
900.303	11812
901.453	11688
902.6	11868
903.749	11890
904.898	11830
906.047	11846
907.194	11876
908.342	12056
909.49	11950
910.638	11886
911.785	12040
912.932	12066
914.08	11916
915.225	11908
916.372	12178
917.519	12198
918.666	12202
919.811	12136
920.957	12106
922.102	12260
923.248	12272
924.394	12160
925.538	12310
926.684	12416
927.828	12344
928.973	12448
930.118	12460
931.261	12384
932.406	12586
933.549	12446
934.693	12552
935.836	12680
936.979	12674
938.122	12766
939.265	12648
940.407	12828
941.55	12804
942.692	12772
943.835	12926
944.976	12794
946.118	12996
947.259	12980
948.401	13062
949.542	13026
950.682	13126
951.824	13126
952.964	13262
954.105	13136
955.245	13300
956.385	13362
957.525	13308
958.664	13166
959.803	13470
960.944	13372
962.082	13402
963.221	13470
964.36	13376
965.498	13574
966.636	13498
967.774	13632
968.913	13558
970.051	13632
971.188	13722
972.325	13812
973.463	13700
974.6	13974
975.736	13922
976.873	13886
978.009	13874
979.146	13852
980.282	13994
981.418	13920
982.554	13934
983.689	14052
984.824	13954
985.959	14072
987.095	13944
988.23	14122
989.364	14104
990.499	14206
991.633	14292
992.767	14080
993.9	14240
995.034	14216
996.167	14250
997.301	14268
998.434	14420
999.567	14302
1000.7	14374
1001.83	14440
1002.96	14460
1004.1	14464
1005.23	14548
1006.36	14648
1007.49	14646
1008.62	14586
1009.76	14560
1010.89	14608
1012.02	14778
1013.15	14682
1014.28	14732
1015.41	14710
1016.54	14838
1017.67	14866
1018.8	14884
1019.93	14926
1021.06	14932
1022.19	14934
1023.32	14976
1024.44	14990
1025.57	15044
1026.7	15174
1027.83	15180
1028.96	15014
1030.09	15098
1031.21	15344
1032.34	15210
1033.47	15434
1034.6	15326
1035.72	15396
1036.85	15270
1037.98	15388
1039.1	15390
1040.23	15606
1041.35	15548
1042.48	15728
1043.61	15622
1044.73	15670
1045.86	15670
1046.98	15736
1048.11	15792
1049.23	15782
1050.36	15712
1051.48	15926
1052.61	15900
1053.73	15780
1054.85	16072
1055.98	15934
1057.1	15854
1058.22	15992
1059.35	16176
1060.47	16086
1061.59	15826
1062.72	16076
1063.84	16066
1064.96	16314
1066.08	16222
1067.2	16180
1068.33	16080
1069.45	16338
1070.57	16272
1071.69	16188
1072.81	16340
1073.93	16394
1075.05	16408
1076.17	16432
1077.29	16358
1078.41	16338
1079.53	16534
1080.65	16240
1081.77	16488
1082.89	16328
1084.01	16354
1085.13	16388
1086.25	16428
1087.37	16486
1088.48	16480
1089.6	16418
1090.72	16316
1091.84	16466
1092.96	16338
1094.07	16332
1095.19	16408
1096.31	16634
1097.43	16514
1098.54	16318
1099.66	16478
1100.78	16542
1101.89	16378
1103.01	16520
1104.12	16438
1105.24	16504
1106.35	16460
1107.47	16340
1108.59	16466
1109.7	16496
1110.81	16520
1111.93	16552
1113.04	16588
1114.16	16642
1115.27	16544
1116.39	16558
1117.5	16512
1118.61	16604
1119.73	16476
1120.84	16594
1121.95	16596
1123.06	16728
1124.18	16572
1125.29	16588
1126.4	16596
1127.51	16696
1128.63	16676
1129.74	16660
1130.85	16648
1131.96	16852
1133.07	16740
1134.18	16592
1135.29	16710
1136.4	16758
1137.51	16782
1138.62	16710
1139.73	16682
1140.84	16734
1141.95	16856
1143.06	16730
1144.17	16682
1145.28	16744
1146.39	16842
1147.5	16936
1148.61	16882
1149.72	16764
1150.82	16862
1151.93	17018
1153.04	16806
1154.15	16902
1155.26	16982
1156.36	17006
1157.47	16814
1158.58	16912
1159.68	16952
1160.79	16762
1161.9	16994
1163	16892
1164.11	16978
1165.22	16990
1166.32	16888
1167.43	16870
1168.53	16858
1169.64	17092
1170.74	16922
1171.85	16910
1172.95	16988
1174.06	16774
1175.16	16650
1176.26	16848
1177.37	16830
1178.47	16764
1179.58	16826
1180.68	16726
1181.78	16788
1182.88	16800
1183.99	16590
1185.09	16672
1186.19	16590
1187.3	16642
1188.4	16498
1189.5	16802
1190.6	16590
1191.7	16594
1192.8	16408
1193.9	16480
1195.01	16556
1196.11	16447.8
1197.21	16382.5
1198.31	16277.1
1199.41	16430.1
1200.51	16252.1
1201.61	16280.4
1202.71	16303.1
1203.81	16409.5
1204.91	16263.2
1206.01	16169.5
1207.11	15893.7
1208.2	16137.5
1209.3	16207.5
1210.4	16114.4
1211.5	15982.8
1212.6	16060.3
1213.7	16064.4
1214.8	15946
1215.89	16016.1
1216.99	15891.4
1218.09	15988.8
1219.18	15897.6
1220.28	15756.1
1221.38	15795.6
1222.48	15929.6
1223.57	15748
1224.67	15862.3
1225.76	15616.8
1226.86	15699.9
1227.96	15683.3
1229.05	15714.4
1230.15	15582.5
1231.24	15590.8
1232.34	15585.6
1233.43	15625.6
1234.53	15578.3
1235.62	15500.4
1236.71	15605.5
1237.81	15499.2
1238.9	15474.6
1240	15427.1
1241.09	15444.5
1242.18	15469.3
1243.28	15424.8
1244.37	15368.7
1245.46	15373.4
1246.56	15301.5
1247.65	15332.1
1248.74	15262.1
1249.83	15322.3
1250.93	15247.2
1252.02	15292.1
1253.11	15260.3
1254.2	15262.1
1255.29	15161.1
1256.38	15130.4
1257.47	15155.5
1258.56	15181.8
1259.65	15181.1
1260.74	15085.9
1261.84	15152
1262.92	15099.2
1264.01	15049.2
1265.1	15014.3
1266.19	15065.5
1267.28	15050
1268.37	15028.7
1269.46	15013.6
1270.55	14949.6
1271.64	15011.8
1272.73	14939.1
1273.82	14920.1
1274.9	14861.5
1275.99	14877.6
1277.08	14872.2
1278.17	14776.2
1279.26	14795.9
1280.34	14677.3
1281.43	14804.2
1282.52	14737.9
1283.6	14724.6
1284.69	14696.9
1285.78	14608.6
1286.86	14593.1
1287.95	14616.5
1289.03	14530.3
1290.12	14548.3
1291.21	14523.3
1292.29	14491.2
1293.38	14471.9
1294.46	14455.2
1295.55	14421.8
1296.63	14289.6
1297.71	14383
1298.8	14258
1299.88	14387
1300.97	14320.7
1302.05	14162.7
1303.13	14184.1
1304.22	14231.1
1305.3	14216.3
1306.38	14235
1307.34	14182
1308.43	14200
1309.52	14026
1310.61	14040
1311.7	13994
1312.78	13970
1313.87	13914
1314.96	13840
1316.05	13872
1317.13	13844
1318.22	13800
1319.3	13802
1320.39	13758
1321.48	13718
1322.56	13678
1323.65	13496
1324.73	13588
1325.82	13548
1326.9	13396
1327.99	13266
1329.07	13400
1330.16	13394
1331.24	13458
1332.33	13332
1333.41	13212
1334.5	13182
1335.58	13384
1336.66	13212
1337.75	13240
1338.83	13132
1339.91	13022
1341	13004
1342.08	12930
1343.16	12988
1344.25	12870
1345.33	13084
1346.41	12836
1347.49	12920
1348.57	12822
1349.65	12790
1350.74	12748
1351.82	12780
1352.9	12796
1353.98	12734
1355.06	12618
1356.14	12748
1357.22	12554
1358.3	12720
1359.38	12672
1360.46	12518
1361.54	12520
1362.62	12638
1363.7	12384
1364.78	12366
1365.86	12436
1366.94	12336
1368.02	12396
1369.09	12324
1370.17	12360
1371.25	12294
1372.33	12294
1373.41	12220
1374.48	12258
1375.56	12192
1376.64	12216
1377.72	12200
1378.79	12146
1379.87	12030
1380.95	12060
1382.02	11972
1383.1	12070
1384.17	11976
1385.25	11992
1386.33	11970
1387.4	11884
1388.48	11996
1389.55	11840
1390.63	11828
1391.7	11774
1392.78	11820
1393.85	11808
1394.93	11690
1396	11812
1397.07	11726
1398.15	11572
1399.22	11598
1400.3	11640
1401.37	11626
1402.44	11586
1403.52	11604
1404.59	11532
1405.66	11532
1406.73	11498
1407.81	11330
1408.88	11428
1409.95	11552
1411.02	11458
1412.09	11422
1413.17	11436
1414.24	11348
1415.31	11416
1416.38	11220
1417.45	11412
1418.52	11150
1419.59	11292
1420.66	11262
1421.73	11200
1422.8	11176
1423.87	11186
1424.94	11312
1426.01	11134
1427.08	11110
1428.15	11172
1429.22	10986
1430.29	11150
1431.35	11030
1432.42	10920
1433.49	10892
1434.56	11066
1435.63	10882
1436.7	10972
1437.76	11014
1438.83	11044
1439.9	11030
1440.96	10898
1442.03	10854
1443.1	10888
1444.17	10822
1445.23	10898
1446.3	10744
1447.36	10720
1448.43	10898
1449.49	10796
1450.56	10736
1451.63	10784
1452.69	10628
1453.76	10718
1454.82	10742
1455.89	10602
1456.95	10738
1458.01	10696
1459.08	10746
1460.14	10588
1461.21	10626
1462.27	10682
1463.34	10734
1464.4	10612
1465.46	10672
1466.52	10576
1467.59	10592
1468.65	10626
1469.71	10478
1470.77	10490
1471.84	10544
1472.9	10592
1473.96	10406
1475.02	10550
1476.08	10538
1477.15	10502
1478.21	10400
1479.27	10560
1480.33	10430
1481.39	10482
1482.45	10390
1483.51	10288
1484.57	10464
1485.63	10452
1486.69	10478
1487.75	10312
1488.81	10422
1489.87	10340
1490.93	10148
1491.99	10224
1493.05	10292
1494.1	10176
1495.16	10250
1496.22	10150
1497.28	10244
1498.34	10202
1499.4	10178
1500.45	10160
1501.51	10148
1502.57	10170
1503.63	10090
1504.68	9990
1505.74	10082
1506.8	10076
1507.85	9988
1508.91	9954
1509.97	10008
1511.02	10058
1512.08	9928
1513.13	9982
1514.19	10064
1515.24	9942
1516.3	9912
1517.35	9994
1518.41	9926
1519.46	9832
1520.52	9938
1521.57	9890
1522.63	9896
1523.68	9888
1524.73	9840
1525.79	9852
1526.84	9726
1527.9	9846
1528.95	9714
1530	9734
1531.06	9708
1532.11	9626
1533.16	9676
1534.21	9602
1535.26	9662
1536.32	9580
1537.37	9550
1538.42	9520
1539.47	9568
1540.52	9502
1541.57	9628
1542.63	9506
1543.68	9716
1544.73	9512
1545.78	9516
1546.83	9416
1547.88	9442
1548.93	9294
1549.98	9422
1551.03	9402
1552.08	9374
1553.13	9408
1554.18	9434
1555.23	9442
1556.27	9336
1557.32	9416
1558.37	9238
1559.42	9406
1560.47	9286
1561.52	9412
1562.56	9350
1563.61	9286
1564.66	9250
1565.71	9146
1566.75	9400
1567.8	9318
1568.85	9246
1569.9	9226
1570.94	9190
1571.99	9206
1573.03	9106
1574.08	9222
1575.13	9142
1576.17	9198
1577.22	9166
1578.26	9166
1579.31	9154
1580.35	9138
1581.4	9214
1582.44	9270
1583.49	9080
1584.53	9156
1585.58	9170
1586.62	9138
1587.66	9098
1588.71	9164
1589.75	9024
1590.8	9076
1591.84	9130
1592.88	9024
1593.93	9106
1594.97	9058
1596.01	9040
1597.05	9036
1598.1	9016
1599.14	9074
1600.18	8968
1601.22	9012
1602.26	9084
1603.31	9038
1604.35	9008
1605.39	8960
1606.43	8934
1607.47	9002
1608.51	8938
1609.55	8996
1610.59	8932
1611.63	8966
1612.67	8976
1613.71	8914
1614.75	8956
1615.79	9028
1616.83	9006
1617.87	9028
1618.91	8954
1619.95	8962
1620.99	8868
1622.02	8908
1623.06	8870
1624.1	8928
1625.14	9018
1626.18	8804
1627.21	8830
1628.25	8840
1629.29	8878
1630.33	8926
1631.36	8806
1632.4	8792
1633.44	8988
1634.48	8766
1635.51	8948
1636.55	8796
1637.58	8828
1638.62	8842
1639.66	8816
1640.69	8768
1641.73	8810
1642.76	8738
1643.8	8824
1644.83	8664
1645.87	8816
1646.9	8778
1647.94	8770
1648.97	8766
1650	8786
1651.04	8782
1652.07	8686
1653.11	8766
1654.14	8722
1655.17	8644
1656.21	8746
1657.24	8620
1658.27	8610
1659.31	8624
1660.34	8682
1661.37	8692
1662.4	8638
1663.43	8600
1664.47	8582
1665.5	8650
1666.53	8644
1667.56	8606
1668.59	8686
1669.62	8486
1670.66	8594
1671.69	8420
1672.72	8404
1673.75	8456
1674.78	8528
1675.81	8480
1676.84	8480
1677.87	8462
1678.9	8372
1679.93	8460
1680.96	8450
1681.98	8348
1683.01	8338
1684.04	8332
1685.07	8314
1686.1	8402
1687.13	8380
1688.16	8256
1689.19	8386
1690.21	8342
1691.24	8346
1692.27	8314
1693.3	8192
1694.32	8278
1695.35	8248
1696.38	8138
1697.4	8262
1698.43	8214
1699.46	8146
1700.48	8164
1701.51	8164
1702.54	8154
1703.56	8182
1704.59	8154
1705.61	8080
1706.64	8144
1707.66	8150
1708.69	8170
1709.71	8206
1710.74	8188
1711.76	8104
1712.79	8174
1713.81	8134
1714.83	8110
1715.86	8080
1716.88	8054
1717.91	7960
1718.93	8034
1719.95	8002
1720.98	8066
1722	7986
1723.02	8078
1724.04	8044
1725.07	8078
1726.09	8112
1727.11	7868
1728.13	7942
1729.15	8044
1730.18	7956
1731.2	8092
1732.22	7958
1733.24	7936
1734.26	7948
1735.28	8026
1736.3	7884
1737.32	7966
1738.34	7924
1739.36	8046
1740.38	7874
1741.4	7898
1742.42	7932
1743.44	7890
1744.46	7894
1745.48	7896
1746.5	7844
1747.52	7984
1748.54	7856
1749.56	7880
1750.58	7896
1751.6	7888
1752.61	7866
1753.63	7888
1754.65	7860
1755.67	7752
1756.68	7798
1757.7	7850
1758.72	7886
1759.74	7786
1760.75	7786
1761.77	7820
1762.79	7760
1763.8	7826
1764.82	7790
1765.84	7788
1766.85	7814
1767.87	7640
1768.88	7856
1769.9	7780
1770.91	7826
1771.93	7674
1772.94	7840
1773.96	7778
1774.97	7790
1775.99	7756
1777	7792
1778.02	7796
1779.03	7668
1780.04	7820
1781.06	7766
1782.07	7754
1783.09	7782
1784.1	7762
1785.11	7740
1786.13	7756
1787.14	7662
1788.15	7644
1789.16	7782
1790.18	7700
1791.19	7674
1792.2	7756
1793.21	7636
1794.22	7718
1795.23	7630
1796.25	7754
1797.26	7624
1798.27	7712
1799.28	7666
1800.29	7644
1801.3	7640
1802.31	7644
1803.32	7644
1804.33	7700
1805.34	7674
1806.35	7614
1807.36	7686
1808.37	7642
1809.38	7630
1810.39	7628
1811.4	7548
1812.41	7654
1813.42	7646
1814.43	7516
1815.43	7606
1816.44	7486
1817.45	7584
1818.46	7460
1819.47	7588
1820.47	7564
1821.48	7564
1822.49	7484
1823.49	7522
1824.5	7538
1825.51	7580
1826.52	7452
1827.52	7452
1828.53	7600
1829.54	7354
1830.54	7454
1831.55	7504
1832.55	7496
1833.56	7370
1834.56	7414
1835.57	7358
1836.57	7476
1837.58	7378
1838.58	7376
1839.59	7312
1840.59	7404
1841.6	7364
1842.6	7404
1843.61	7318
1844.61	7314
1845.61	7272
1846.62	7428
1847.62	7404
1848.62	7358
1849.63	7350
1850.63	7244
1851.63	7354
1852.64	7350
1853.64	7228
1854.64	7264
1855.64	7256
1856.64	7168
1857.65	7344
1858.65	7198
1859.65	7322
1860.65	7180
1861.65	7240
1862.65	7234
1863.65	7170
1864.66	7240
1865.66	7220
1866.66	7246
1867.66	7210
1868.66	7094
1869.66	7214
1870.66	7196
1871.66	7110
1872.66	7276
1873.66	7144
1874.66	7114
1875.65	7202
1876.65	7204
1877.65	7120
1878.65	7244
1879.65	7148
1880.65	7200
1881.65	7094
1882.64	7078
1883.64	7200
1884.64	7200
1885.64	7090
1886.63	7014
1887.63	7128
1888.63	7086
1889.63	7018
1890.62	7098
1891.62	7128
1892.62	7140
1893.61	7110
1894.61	7078
1895.6	7016
1896.6	7132
1897.6	7056
1898.59	7094
1899.59	7222
1900.58	7122
1901.58	7014
1902.57	7048
1903.57	7012
1904.56	7114
1905.56	7058
1906.55	6998
1907.54	7064
1908.54	6986
1909.53	7084
1910.53	7042
1911.52	7052
1912.51	7092
1913.51	7000
1914.5	7006
1915.49	6924
1916.49	7126
1917.48	7054
1918.47	7096
1919.46	6954
1920.46	6940
1921.45	6956
1922.44	7046
1923.43	7054
1924.42	6926
1925.41	6958
1926.41	7024
1927.4	6964
1928.39	6970
1929.38	7034
1930.37	7014
1931.36	6922
1932.35	7034
1933.34	6948
1934.33	6896
1935.32	6876
1936.31	7016
1937.3	6948
1938.29	6954
1939.28	6806
1940.27	7018
1941.26	6992
1942.24	6826
1943.23	6940
1944.22	7010
1945.21	6942
1946.2	6886
1947.19	6892
1948.17	6870
1949.16	6936
1950.15	6902
1951.14	6868
1952.13	6768
1953.11	6834
1954.1	6768
1955.09	6876
1956.07	6866
1957.06	6794
1958.05	6882
1959.03	6758
1960.02	6850
1961	6804
1961.99	6840
1962.98	6862
1963.96	6828
1964.95	6812
1965.93	6706
1966.92	6874
1967.9	6764
1968.89	6750
1969.87	6764
1970.85	6764
1971.84	6798
1972.82	6782
1973.81	6854
1974.79	6788
1975.78	6744
1976.76	6688
1977.74	6814
1978.73	6628
1979.71	6748
1980.69	6732
1981.67	6640
1982.66	6730
1983.64	6744
1984.62	6756
1985.6	6764
1986.59	6672
1987.57	6794
1988.55	6680
1989.53	6640
1990.51	6664
1991.49	6638
1992.47	6674
1993.45	6516
1994.44	6674
1995.42	6644
1996.4	6476
1997.38	6740
1998.36	6650
1999.34	6642
2000.32	6636
2001.3	6676
2002.28	6564
2003.26	6680
2004.24	6636
2005.22	6572
2006.19	6644
2007.17	6618
2008.15	6530
2009.13	6576
2010.11	6580
2011.09	6600
2012.06	6564
2013.04	6530
2014.02	6648
2015	6602
2015.98	6540
2016.95	6600
2017.93	6558
2018.91	6558
2019.88	6516
2020.86	6544
2021.84	6538
2022.81	6552
2023.79	6548
2024.77	6506
2025.74	6524
2026.72	6534
2027.69	6458
2028.67	6480
2029.65	6434
2030.62	6588
2031.6	6508
2032.57	6490
2033.55	6548
2034.52	6514
2035.5	6552
2036.47	6564
2037.44	6542
2038.42	6366
2039.39	6494
2040.36	6534
2041.34	6450
2042.31	6476
2043.29	6436
2044.26	6466
2045.23	6464
2046.2	6488
2047.18	6352
2048.15	6426
2049.12	6460
2050.09	6534
2051.07	6396
2052.04	6386
2053.01	6396
2053.98	6420
2054.95	6468
2055.93	6446
2056.9	6450
2057.87	6388
2058.84	6324
2059.81	6354
2060.78	6362
2061.75	6454
2062.72	6372
2063.69	6386
2064.66	6356
2065.63	6320
2066.6	6342
2067.57	6360
2068.54	6324
2069.51	6200
2070.48	6360
2071.45	6292
2072.42	6338
2073.38	6320
2074.35	6334
2075.32	6268
2076.29	6364
2077.26	6238
2078.23	6340
2079.19	6286
2080.16	6308
2081.13	6254
2082.1	6222
2083.06	6220
2084.03	6278
2085	6214
2085.96	6258
2086.93	6250
2087.9	6232
2088.86	6342
2089.83	6304
2090.8	6164
2091.76	6162
2092.73	6210
2093.69	6316
2094.66	6236
2095.62	6186
2096.59	6282
2097.55	6140
2098.52	6352
2099.48	6250
2100.45	6244
2101.41	6202
2102.38	6116
2103.34	6160
2104.31	6226
2105.27	6160
2106.23	6180
2107.2	6094
2108.16	6086
2109.12	6224
2110.09	6112
2111.05	6090
2112.01	6058
2112.98	6128
2113.94	6232
2114.9	6246
2115.86	6116
2116.82	6198
2117.79	6046
2118.75	6134
2119.71	6094
2120.67	6074
2121.63	6088
2122.59	6178
2123.55	6122
2124.52	6140
2125.48	6050
2126.44	6046
2127.4	6082
2128.36	6020
2129.32	6118
2130.28	6100
2131.24	6130
2132.2	6058
2133.16	6064
2134.12	6070
2135.08	5972
2136.04	6042
2136.99	6154
2137.95	6048
2138.91	6038
2139.87	6052
2140.83	6052
2141.79	5998
2142.75	6056
2143.7	5976
2144.66	6026
2145.62	6045.6
2146.58	5958.11
2147.53	6000.38
2148.49	6004.92
2149.45	5977.64
2150.41	5959.68
2151.36	5968.36
2152.32	5941.47
2153.28	5887.47
2154.23	5932.17
2155.19	5950.61
2156.14	5988.08
2157.1	5920.37
2158.06	5853.46
2159.01	5875.16
2159.97	5911.71
2160.92	5918.96
2161.88	5905.38
2162.83	5853.89
2163.79	5918.03
2164.74	5875.94
2165.7	5833.56
2166.65	5789.02
2167.61	5897.9
2168.56	5810.13
2169.51	5894.07
2170.47	5764.66
2171.42	5897.87
2172.38	5855.51
2173.33	5885.29
2174.28	5879
2175.24	5879.14
2176.19	5773.92
2177.14	5806.6
2178.09	5781.93
2179.05	5820.08
2180	5784.46
2180.95	5837.68
2181.9	5778.52
2182.86	5686.44
2183.81	5791.47
2184.76	5759.16
2185.71	5842.69
2186.66	5747.01
2187.61	5723.27
2188.57	5736.86
2189.52	5793.44
2190.47	5762.29
2191.42	5733.14
2192.37	5737.23
2193.32	5698.43
2194.27	5731.26
2195.22	5738.51
2196.17	5711.58
2197.12	5768.8
2198.07	5742.41
2199.02	5725.82
2199.97	5728.86
2200.92	5733.38
2201.87	5743.47
2202.82	5689.73
2203.76	5701.4
2204.71	5733.8
2205.66	5694.22
2206.61	5696.78
2207.56	5692.84
2208.51	5702.92
2209.45	5723.35
2210.4	5668.9
2211.35	5660.64
2212.3	5658.77
2213.25	5652.4
2214.19	5703.04
2215.14	5718.19
2216.09	5666.3
2217.03	5686.6
2217.98	5689.44
2218.93	5702.74
2219.87	5682.87
2220.82	5689.27
2221.77	5701.96
2222.71	5696.46
2223.66	5717.07
2224.6	5688.23
2225.55	5755.16
2226.49	5735.39
2227.44	5692.67
2228.38	5721.68
2229.33	5695.89
2230.27	5706.9
2231.22	5674.89
2232.16	5658.49
2233.11	5679.49
2234.05	5697.83
2235	5677.15
2235.94	5728.78
2236.88	5701.29
2237.83	5664.44
2238.77	5693.77
2239.72	5677.47
2240.66	5687.66
2241.6	5672.07
2242.07	5646
2243.02	5724
2243.97	5696
2244.92	5682
2245.87	5658
2246.81	5648
2247.76	5770
2248.71	5652
2249.65	5756
2250.6	5622
2251.55	5684
2252.49	5694
2253.44	5674
2254.39	5672
2255.33	5608
2256.28	5760
2257.22	5612
2258.17	5642
2259.12	5624
2260.06	5614
2261.01	5686
2261.95	5630
2262.9	5656
2263.84	5488
2264.78	5612
2265.73	5564
2266.67	5554
2267.62	5542
2268.56	5600
2269.51	5630
2270.45	5634
2271.39	5562
2272.34	5620
2273.28	5608
2274.22	5628
2275.17	5584
2276.11	5586
2277.05	5528
2277.99	5560
2278.94	5438
2279.88	5550
2280.82	5520
2281.76	5612
2282.71	5498
2283.65	5514
2284.59	5476
2285.53	5414
2286.47	5532
2287.41	5546
2288.35	5566
2289.3	5508
2290.24	5626
2291.18	5500
2292.12	5568
2293.06	5498
2294	5486
2294.94	5532
2295.88	5450
2296.82	5478
2297.76	5412
2298.7	5476
2299.64	5452
2300.58	5460
2301.52	5556
2302.46	5432
2303.39	5418
2304.33	5500
2305.27	5470
2306.21	5468
2307.15	5538
2308.09	5390
2309.02	5540
2309.96	5418
2310.9	5490
2311.84	5466
2312.77	5374
2313.71	5476
2314.65	5440
2315.59	5418
2316.52	5366
2317.46	5460
2318.4	5290
2319.33	5374
2320.27	5316
2321.21	5378
2322.14	5318
2323.08	5440
2324.01	5362
2324.95	5364
2325.89	5372
2326.82	5426
2327.76	5370
2328.69	5360
2329.63	5404
2330.56	5328
2331.5	5298
2332.43	5398
2333.36	5340
2334.3	5324
2335.23	5308
2336.17	5374
2337.1	5332
2338.03	5292
2338.97	5294
2339.9	5402
2340.83	5332
2341.77	5296
2342.7	5368
2343.63	5348
2344.57	5358
2345.5	5296
2346.43	5348
2347.36	5414
2348.3	5292
2349.23	5278
2350.16	5238
2351.09	5326
2352.02	5222
2352.95	5264
2353.89	5344
2354.82	5262
2355.75	5256
2356.68	5338
2357.61	5290
2358.54	5312
2359.47	5318
2360.4	5296
2361.33	5184
2362.26	5244
2363.19	5238
2364.12	5278
2365.05	5256
2365.98	5230
2366.91	5224
2367.84	5182
2368.77	5186
2369.7	5298
2370.63	5270
2371.56	5232
2372.48	5172
2373.41	5258
2374.34	5202
2375.27	5256
2376.2	5176
2377.12	5218
2378.05	5226
2378.98	5204
2379.91	5226
2380.84	5258
2381.76	5192
2382.69	5254
2383.62	5192
2384.54	5254
2385.47	5194
2386.4	5156
2387.32	5118
2388.25	5118
2389.18	5160
2390.1	5208
2391.03	5048
2391.95	5236
2392.88	5048
2393.8	5144
2394.73	5096
2395.65	5106
2396.58	5152
2397.5	5136
2398.43	5214
2399.35	5114
2400.28	5180
2401.2	5082
2402.13	5142
2403.05	5022
2403.97	5152
2404.9	5076
2405.82	5160
2406.75	5034
2407.67	5218
2408.59	5048
2409.51	5092
2410.44	5114
2411.36	5044
2412.28	5034
2413.21	5002
2414.13	5028
2415.05	5012
2415.97	5048
2416.9	4984
2417.82	4962
2418.74	5026
2419.66	5032
2420.58	5000
2421.5	4996
2422.42	4980
2423.35	5062
2424.27	5012
2425.19	4992
2426.11	5000
2427.03	4914
2427.95	4958
2428.87	4932
2429.79	4960
2430.71	4904
2431.63	4906
2432.55	4962
2433.47	4944
2434.39	4928
2435.31	4902
2436.23	4998
2437.14	4938
2438.06	4924
2438.98	4960
2439.9	5018
2440.82	4938
2441.74	4870
2442.66	4984
2443.57	4928
2444.49	4880
2445.41	4918
2446.33	4892
2447.24	4956
2448.16	4840
2449.08	4944
2450	4894
2450.91	4904
2451.83	4842
2452.75	4912
2453.66	4912
2454.58	4850
2455.5	4802
2456.41	4858
2457.33	4836
2458.24	4880
2459.16	4866
2460.08	4794
2460.99	4822
2461.91	4902
2462.82	4836
2463.74	4780
2464.65	4780
2465.57	4794
2466.48	4874
2467.4	4842
2468.31	4796
2469.22	4736
2470.14	4842
2471.05	4826
2471.97	4822
2472.88	4776
2473.79	4898
2474.71	4746
2475.62	4792
2476.53	4768
2477.45	4782
2478.36	4740
2479.27	4820
2480.19	4770
2481.1	4790
2482.01	4816
2482.92	4764
2483.83	4702
2484.75	4684
2485.66	4724
2486.57	4700
2487.48	4750
2488.39	4726
2489.3	4714
2490.22	4716
2491.13	4664
2492.04	4658
2492.95	4668
2493.86	4666
2494.77	4590
2495.68	4700
2496.59	4724
2497.5	4670
2498.41	4644
2499.32	4662
2500.23	4604
2501.14	4658
2502.05	4692
2502.96	4656
2503.87	4606
2504.78	4592
2505.68	4646
2506.59	4610
2507.5	4640
2508.41	4512
2509.32	4574
2510.23	4624
2511.14	4548
2512.04	4444
2512.95	4610
2513.86	4550
2514.77	4560
2515.67	4560
2516.58	4616
2517.49	4538
2518.39	4624
2519.3	4556
2520.21	4498
2521.11	4440
2522.02	4456
2522.93	4572
2523.83	4546
2524.74	4546
2525.65	4534
2526.55	4484
2527.46	4520
2528.36	4442
2529.27	4512
2530.17	4402
2531.08	4470
2531.98	4502
2532.89	4434
2533.79	4514
2534.7	4392
2535.6	4480
2536.51	4432
2537.41	4454
2538.32	4492
2539.22	4458
2540.12	4420
2541.03	4410
2541.93	4444
2542.83	4390
2543.74	4436
2544.64	4438
2545.54	4376
2546.45	4410
2547.35	4424
2548.25	4372
2549.15	4402
2550.06	4400
2550.96	4386
2551.86	4342
2552.76	4308
2553.66	4384
2554.56	4336
2555.47	4348
2556.37	4288
2557.27	4266
2558.17	4408
2559.07	4322
2559.97	4328
2560.87	4282
2561.77	4332
2562.67	4352
2563.58	4308
2564.47	4314
2565.38	4380
2566.27	4304
2567.18	4292
2568.07	4162
2568.97	4222
2569.87	4310
2570.77	4310
2571.67	4306
2572.57	4244
2573.47	4228
2574.37	4266
2575.27	4236
2576.17	4200
2577.06	4310
2577.96	4224
2578.86	4196
2579.76	4178
2580.66	4236
2581.55	4190
2582.45	4204
2583.35	4146
2584.25	4232
2585.14	4124
2586.04	4198
2586.94	4206
2587.83	4178
2588.73	4110
2589.63	4180
2590.52	4134
2591.42	4072
2592.32	4182
2593.21	4052
2594.11	4092
2595	4064
2595.9	4140
2596.8	4092
2597.69	4170
2598.59	4184
2599.48	4068
2600.38	4098
2601.27	4100
2602.17	4114
2603.06	4126
2603.95	4128
2604.85	4146
2605.74	4084
2606.64	3984
2607.53	4106
2608.42	4032
2609.32	4022
2610.21	3968
2611.1	4008
2612	4042
2612.89	4014
2613.78	3986
2614.68	4026
2615.57	3988
2616.46	3996
2617.36	4006
2618.25	4062
2619.14	4090
2620.03	4018
2620.92	3992
2621.82	4046
2622.71	4006
2623.6	3974
2624.49	3942
2625.38	3948
2626.27	3938
2627.16	3946
2628.05	3982
2628.95	4004
2629.84	3908
2630.73	3996
2631.62	3968
2632.51	3926
2633.4	3892
2634.29	3884
2635.18	3874
2636.07	3942
2636.96	3968
2637.85	3916
2638.74	3930
2639.62	3806
2640.51	3832
2641.4	3804
2642.29	3818
2643.18	3904
2644.07	3900
2644.96	3862
2645.85	3944
2646.73	3794
2647.62	3842
2648.51	3830
2649.4	3862
2650.28	3862
2651.17	3782
2652.06	3814
2652.95	3788
2653.83	3872
2654.72	3750
2655.61	3814
2656.5	3726
2657.38	3814
2658.27	3806
2659.15	3792
2660.04	3836
2660.93	3760
2661.81	3762
2662.7	3754
2663.58	3768
2664.47	3740
2665.35	3800
2666.24	3710
2667.13	3764
2668.01	3798
2668.9	3760
2669.78	3778
2670.66	3718
2671.55	3672
2672.43	3756
2673.32	3676
2674.2	3722
2675.09	3652
2675.97	3726
2676.85	3638
2677.74	3678
2678.62	3678
2679.5	3660
2680.39	3686
2681.27	3684
2682.15	3668
2683.04	3602
2683.92	3702
2684.8	3686
2685.68	3630
2686.57	3678
2687.45	3638
2688.33	3704
2689.21	3684
2690.09	3740
2690.98	3652
2691.86	3654
2692.74	3586
2693.62	3580
2694.5	3628
2695.38	3648
2696.26	3658
2697.15	3500
2698.03	3610
2698.91	3636
2699.79	3596
2700.67	3564
2701.55	3562
2702.43	3594
2703.31	3560
2704.19	3618
2705.07	3552
2705.95	3518
2706.83	3526
2707.7	3572
2708.58	3502
2709.46	3514
2710.34	3488
2711.22	3500
2712.1	3518
2712.98	3488
2713.86	3530
2714.73	3482
2715.61	3512
2716.49	3472
2717.37	3512
2718.25	3562
2719.12	3544
2720	3438
2720.88	3418
2721.76	3434
2722.63	3544
2723.51	3520
2724.39	3502
2725.26	3418
2726.14	3454
2727.02	3408
2727.89	3384
2728.77	3414
2729.64	3360
2730.52	3344
2731.4	3368
2732.27	3440
2733.15	3408
2734.02	3352
2734.9	3434
2735.77	3400
2736.65	3404
2737.52	3338
2738.4	3360
2739.27	3408
2740.15	3318
2741.02	3400
2741.9	3312
2742.77	3378
2743.64	3418
2744.52	3410
2745.39	3392
2746.27	3348
2747.14	3244
2748.01	3264
2748.89	3280
2749.76	3334
2750.63	3390
2751.51	3354
2752.38	3358
2753.25	3282
2754.12	3326
2755	3304
2755.87	3252
2756.74	3286
2757.61	3246
2758.48	3298
2759.35	3284
2760.23	3222
2761.1	3268
2761.97	3250
2762.84	3306
2763.71	3218
2764.58	3214
2765.45	3284
2766.32	3244
2767.19	3258
2768.07	3166
2768.94	3232
2769.81	3220
2770.68	3204
2771.55	3252
2772.42	3218
2773.29	3198
2774.16	3168
2775.02	3190
2775.89	3226
2776.76	3190
2777.63	3212
2778.5	3186
2779.37	3138
2780.24	3176
2781.11	3196
2781.98	3162
2782.84	3128
2783.71	3146
2784.58	3182
2785.45	3070
2786.32	3144
2787.18	3232
2788.05	3136
2788.92	3086
2789.79	3176
2790.65	3142
2791.52	3170
2792.39	3166
2793.25	3108
2794.12	3178
2794.99	3118
2795.85	3148
2796.72	3112
2797.59	3050
2798.45	3090
2799.32	3040
2800.18	3050
2801.05	3114
2801.92	3140
2802.78	3102
2803.65	3073
2804.51	3044
2805.38	3046
2806.24	3066
2807.11	3094
2807.97	3114
2808.84	3076
2809.7	3000
2810.57	3062
2811.43	3068
2812.29	3022
2813.16	3064
2814.02	3074
2814.88	3042
2815.75	3042
2816.61	2992
2817.47	3012
2818.34	3026
2819.2	2976
2820.06	3052
2820.93	3006
2821.79	2992
2822.65	3002
2823.51	2982
2824.38	2978
2825.24	2956
2826.1	3004
2826.96	2880
2827.82	2926
2828.69	2956
2829.55	2892
2830.41	2968
2831.27	2888
2832.13	2994
2832.99	2928
2833.85	2964
2834.71	2892
2835.57	2908
2836.44	2934
2837.3	2964
2838.16	2958
2839.02	2868
2839.88	2852
2840.74	2888
2841.6	2904
2842.46	2888
2843.32	2868
2844.18	2860
2845.03	2934
2845.89	2924
2846.75	2858
2847.61	2808
2848.47	2870
2849.33	2862
2850.19	2806
2851.05	2890
2851.9	2754
2852.76	2772
2853.62	2832
2854.48	2868
2855.34	2842
2856.19	2808
2857.05	2780
2857.91	2858
2858.77	2834
2859.62	2774
2860.48	2694
2861.34	2784
2862.19	2730
2863.05	2768
2863.91	2710
2864.76	2808
2865.62	2720
2866.48	2700
2867.33	2720
2868.19	2714
2869.04	2776
2869.9	2778
2870.76	2742
2871.61	2686
2872.47	2760
2873.32	2766
2874.18	2696
2875.03	2666
2875.89	2676
2876.74	2738
2877.6	2782
2878.45	2698
2879.31	2708
2880.16	2680
2881.01	2706
2881.87	2732
2882.72	2688
2883.58	2682
2884.43	2654
2885.28	2592
2886.14	2692
2886.99	2742
2887.84	2630
2888.7	2662
2889.55	2672
2890.4	2664
2891.25	2654
2892.11	2666
2892.96	2662
2893.81	2632
2894.66	2576
2895.52	2662
2896.37	2622
2897.22	2630
2898.07	2692
2898.92	2626
2899.77	2574
2900.62	2604
2901.48	2560
2902.33	2580
2903.18	2610
2904.03	2576
2904.88	2532
2905.73	2552
2906.58	2612
2907.43	2598
2908.28	2608
2909.13	2546
2909.98	2604
2910.83	2566
2911.68	2568
2912.53	2586
2913.38	2534
2914.23	2574
2915.08	2608
2915.93	2568
2916.78	2558
2917.63	2492
2918.47	2544
2919.32	2560
2920.17	2572
2921.02	2564
2921.87	2548
2922.72	2500
2923.56	2492
2924.41	2508
2925.26	2554
2926.11	2590
2926.95	2570
2927.8	2506
2928.65	2492
2929.5	2536
2930.34	2528
2931.19	2538
2932.04	2524
2932.88	2500
2933.73	2522
2934.58	2524
2935.42	2488
2936.27	2466
2937.11	2482
2937.96	2520
2938.81	2428
2939.65	2500
2940.5	2454
2941.34	2496
2942.19	2462
2943.03	2494
2943.88	2474
2944.72	2478
2945.57	2520
2946.41	2468
2947.26	2440
2948.1	2418
2948.95	2444
2949.79	2420
2950.64	2420
2951.48	2406
2952.32	2430
2953.17	2404
2954.01	2438
2954.85	2406
2955.7	2442
2956.54	2420
2957.38	2436
2958.23	2444
2959.07	2502
2959.91	2416
2960.75	2428
2961.6	2398
2962.44	2338
2963.28	2412
2964.12	2388
2964.97	2356
2965.81	2410
2966.65	2368
2967.49	2394
2968.33	2326
2969.17	2398
2970.02	2414
2970.86	2324
2971.7	2324
2972.54	2346
2973.38	2420
2974.22	2350
2975.06	2312
2975.9	2378
2976.74	2346
2977.58	2350
2978.42	2356
2979.26	2312
2980.1	2362
2980.94	2346
2981.78	2296
2982.62	2316
2983.46	2308
2984.3	2304
2985.14	2318
2985.98	2314
2986.82	2230
2987.66	2246
2988.49	2294
2989.33	2344
2990.17	2318
2991.01	2242
2991.85	2272
2992.69	2254
2993.52	2314
2994.36	2266
2995.2	2216
2996.04	2172
2996.87	2270
2997.71	2302
2998.55	2230
2999.39	2282
