#Acq. time (s)=	10
#Accumulations=	1
#Range (cm-¹)=	100...3000
#Windows=	3
#Autofocus=	Off
#AutoExposure=	Off
#Spike filter=	Off
#Delay time (s)=	0
#Binning=	1
#Readout mode=	Signal
#DeNoise=	Off
#ICS correction=	Off
#Dark correction=	Off
#Inst. Process=	Off
#Instrument=	LabRAM HR Evol
#Detector=	Syncerity OE
#Objective=	x100_VIS
#Grating=	600 (500nm)
#ND Filter=	3.2%
#Laser=	633nm_Edge
#Hole=	100.021
#Range=	Visible
#Project=	Omar
#Sample=	26-06-23
#Site=	2
#Title=	Organic
#Remark=	
#Date=	26.06.2023 16:31
#Acquired=	26.06.2023 16:31:30
101.018	3610
102.302	3548
103.586	3506
104.869	3580
106.152	3652
107.435	3680
108.717	3592
109.999	3638
111.281	3688
112.563	3620
113.845	3680
115.126	3584
116.407	3770
117.688	3738
118.969	3652
120.249	3630
121.53	3620
122.81	3640
124.09	3666
125.369	3712
126.649	3742
127.928	3750
129.207	3780
130.486	3664
131.765	3680
133.043	3796
134.321	3754
135.599	3744
136.877	3754
138.155	3808
139.432	3774
140.708	3814
141.985	3704
143.261	3812
144.538	3774
145.814	3778
147.09	3762
148.366	3808
149.641	3760
150.916	3848
152.191	3824
153.466	3880
154.741	3832
156.016	3918
157.289	3830
158.563	3850
159.837	3836
161.111	3774
162.385	3802
163.657	3792
164.93	3898
166.203	3924
167.476	3904
168.747	3872
170.019	3896
171.291	3870
172.562	3982
173.834	3924
175.105	3900
176.377	3946
177.646	3892
178.917	3816
180.188	3948
181.457	4008
182.727	3896
183.996	3948
185.266	4004
186.536	3946
187.804	3996
189.073	4018
190.342	3984
191.609	3974
192.878	3986
194.145	3998
195.413	4000
196.681	3948
197.948	3952
199.215	4002
200.481	3998
201.749	4018
203.014	4032
204.281	4002
205.546	4070
206.813	4144
208.077	4116
209.343	4098
210.608	4090
211.873	4068
213.137	4136
214.402	4166
215.666	4128
216.93	4138
218.194	4104
219.458	4180
220.721	4118
221.983	4162
223.247	4258
224.509	4150
225.772	4194
227.034	4182
228.295	4270
229.558	4176
230.819	4290
232.081	4262
233.342	4296
234.602	4326
235.864	4294
237.124	4346
238.384	4270
239.645	4330
240.904	4334
242.164	4306
243.423	4314
244.683	4428
245.941	4352
247.2	4342
248.46	4340
249.717	4372
250.975	4338
252.233	4364
253.492	4392
254.749	4442
256.006	4322
257.263	4372
258.519	4416
259.777	4426
261.033	4466
262.289	4326
263.545	4400
264.8	4394
266.057	4352
267.312	4456
268.567	4416
269.822	4402
271.076	4482
272.331	4432
273.585	4430
274.839	4402
276.094	4448
277.347	4390
278.601	4468
279.854	4474
281.107	4534
282.359	4484
283.612	4474
284.864	4510
286.116	4504
287.368	4518
288.62	4540
289.871	4542
291.123	4542
292.374	4522
293.625	4582
294.875	4672
296.126	4674
297.376	4614
298.626	4700
299.876	4600
301.126	4738
302.375	4730
303.625	4678
304.874	4652
306.122	4642
307.371	4696
308.62	4702
309.866	4706
311.114	4692
312.362	4740
313.61	4734
314.857	4790
316.105	4716
317.352	4744
318.599	4754
319.844	4708
321.09	4792
322.337	4720
323.583	4708
324.828	4774
326.073	4802
327.318	4728
328.563	4794
329.808	4772
331.053	4734
332.296	4684
333.541	4756
334.785	4760
336.029	4764
337.272	4738
338.515	4886
339.759	4896
341.001	4816
342.244	4988
343.486	4898
344.728	4830
345.97	4880
347.212	4892
348.453	4934
349.695	4978
350.936	4970
352.176	5058
353.418	4920
354.659	4920
355.898	5050
357.139	4982
358.378	4948
359.618	5040
360.858	4998
362.097	4958
363.336	5042
364.574	4980
365.813	5016
367.051	5016
368.29	5090
369.527	4948
370.766	4968
372.002	5000
373.241	4962
374.477	5120
375.715	5088
376.951	5004
378.188	5100
379.424	5066
380.66	5018
381.896	5018
383.132	4990
384.367	5080
385.603	5108
386.838	5014
388.072	5098
389.307	5096
390.541	5110
391.776	5036
393.01	5038
394.243	5126
395.477	5096
396.71	5104
397.943	5120
399.177	5076
400.409	5198
401.641	5190
402.875	5170
404.106	5130
405.338	5200
406.57	5200
407.802	5272
409.032	5270
410.263	5324
411.495	5266
412.725	5280
413.955	5286
415.185	5244
416.417	5406
417.646	5328
418.875	5352
420.104	5408
421.335	5530
422.564	5420
423.792	5438
425.02	5522
426.249	5526
427.477	5476
428.706	5504
429.933	5474
431.161	5566
432.388	5484
433.615	5452
434.841	5444
436.068	5472
437.294	5534
438.522	5540
439.748	5540
440.974	5578
442.199	5654
443.425	5546
444.65	5558
445.875	5634
447.1	5484
448.324	5602
449.549	5632
450.773	5568
451.997	5554
453.221	5566
454.445	5614
455.668	5616
456.891	5638
458.114	5636
459.337	5602
460.56	5600
461.782	5672
463.005	5662
464.227	5628
465.447	5560
466.669	5624
467.89	5758
469.112	5654
470.333	5662
471.554	5682
472.774	5698
473.995	5664
475.214	5708
476.434	5762
477.654	5762
478.874	5720
480.093	5848
481.312	5730
482.53	5828
483.749	5832
484.968	5726
486.186	5766
487.405	5844
488.622	5864
489.84	5828
491.057	5864
492.275	5902
493.491	5808
494.708	5830
495.925	5878
497.141	5884
498.357	5940
499.574	5992
500.789	5988
502.005	5950
503.221	5900
504.435	5922
505.65	5970
506.866	5964
508.079	5966
509.294	5962
510.509	5846
511.722	5926
512.936	6002
514.149	5958
515.363	6008
516.577	6070
517.789	6098
519.002	6004
520.214	6062
521.427	6076
522.638	6030
523.851	5992
525.062	6066
526.274	6024
527.485	6026
528.697	6014
529.907	6084
531.118	6066
532.328	6124
533.539	6068
534.748	6098
535.959	6052
537.168	6112
538.379	6046
539.587	6060
540.796	6138
542.005	6146
543.214	6092
544.423	6072
545.631	5992
546.838	6056
548.047	6126
549.254	6252
550.461	6146
551.669	6190
552.876	6116
554.082	6130
555.29	6128
556.496	6256
557.701	6196
558.909	6182
560.114	6334
561.319	6250
562.524	6262
563.731	6274
564.935	6342
566.14	6284
567.344	6280
568.549	6232
569.753	6256
570.957	6396
572.161	6306
573.364	6360
574.568	6290
575.771	6376
576.974	6410
578.177	6426
579.379	6442
580.581	6400
581.785	6368
582.987	6392
584.188	6482
585.39	6450
586.591	6520
587.792	6468
588.993	6468
590.193	6484
591.394	6544
592.594	6454
593.796	6624
594.996	6600
596.195	6606
597.395	6614
598.594	6638
599.793	6528
600.992	6528
602.191	6530
603.39	6614
604.588	6632
605.786	6678
606.984	6682
608.181	6652
609.378	6674
610.576	6760
611.773	6784
612.97	6726
614.167	6794
615.364	6818
616.56	6796
617.757	6896
618.953	6888
620.149	6874
621.343	6914
622.539	7004
623.734	6924
624.929	6992
626.124	7104
627.319	6948
628.512	7028
629.707	7132
630.901	7012
632.095	7170
633.289	7100
634.481	7108
635.675	7134
636.868	7186
638.061	7194
639.253	7124
640.446	7264
641.638	7356
642.831	7332
644.021	7222
645.213	7298
646.405	7282
647.595	7366
648.787	7380
649.978	7344
651.168	7374
652.359	7406
653.549	7384
654.738	7430
655.929	7462
657.117	7396
658.307	7416
659.497	7508
660.685	7406
661.875	7402
663.063	7572
664.252	7512
665.439	7610
666.628	7494
667.816	7512
669.003	7478
670.191	7574
671.378	7616
672.565	7558
673.751	7666
674.939	7560
676.124	7660
677.311	7694
678.497	7676
679.682	7490
680.868	7720
682.053	7674
683.239	7584
684.424	7682
685.609	7670
686.793	7694
687.977	7666
689.162	7838
690.346	7794
691.529	7722
692.714	7912
693.897	7736
695.081	7816
696.264	7756
697.446	7898
698.63	7858
699.812	7896
700.993	7912
702.175	7932
703.358	8068
704.539	8076
705.72	8058
706.901	8090
708.083	8074
709.264	8060
710.444	8032
711.625	8046
712.806	8136
713.986	8138
715.165	8140
716.345	8264
717.524	8120
718.705	8232
719.884	8196
721.062	8326
722.241	8326
723.419	8256
724.597	8256
725.775	8380
726.954	8282
728.132	8440
729.31	8368
730.487	8474
731.664	8466
732.841	8468
734.017	8462
735.194	8550
736.37	8596
737.546	8530
738.722	8568
739.898	8668
741.074	8678
742.249	8736
743.424	8638
744.599	8724
745.774	8766
746.949	8796
748.123	8798
749.298	8742
750.472	8810
751.646	8752
752.819	8880
753.993	8772
755.166	8852
756.34	8842
757.511	8946
758.684	8908
759.857	8910
761.029	8936
762.202	8946
763.374	9052
764.546	8970
765.716	8982
766.888	8996
768.059	9090
769.23	9010
770.401	9084
771.571	9104
772.741	9146
773.912	9010
775.082	9156
776.251	9270
777.421	9196
778.59	9226
779.76	9216
780.928	9348
782.097	9406
783.266	9332
784.434	9314
785.602	9340
786.771	9372
787.938	9436
789.106	9440
790.274	9378
791.44	9490
792.608	9514
793.775	9586
794.941	9602
796.108	9668
797.273	9720
798.44	9676
799.606	9730
800.771	9676
801.937	9650
803.102	9766
804.268	9864
805.432	9736
806.597	9900
807.761	9752
808.926	9936
810.09	9912
811.254	9804
812.417	9970
813.582	9992
814.744	10040
815.908	9986
817.071	10160
818.234	10284
819.396	10180
820.558	10142
821.721	10136
822.883	10354
824.045	10382
825.206	10390
826.367	10328
827.529	10376
828.69	10504
829.85	10400
831.012	10512
832.172	10630
833.332	10596
834.493	10658
835.653	10696
836.812	10604
837.972	10756
839.131	10666
840.29	10898
841.449	10800
842.609	10840
843.767	10832
844.925	10832
846.083	10964
847.242	10992
848.399	11084
849.557	11034
850.714	11148
851.871	11206
853.029	11138
854.186	11132
855.342	11274
856.498	11202
857.654	11142
858.81	11320
859.966	11452
861.122	11316
862.278	11444
863.434	11410
864.589	11430
865.744	11548
866.898	11382
868.053	11510
869.207	11624
870.361	11512
871.515	11620
872.669	11604
873.822	11640
874.976	11670
876.129	11614
877.282	11776
878.435	11802
879.588	11692
880.74	11876
881.893	11782
883.045	11802
884.197	11900
885.349	11900
886.5	11884
887.652	11962
888.802	11946
889.953	11868
891.104	12106
892.254	12010
893.405	11956
894.555	12080
895.706	12258
896.854	12160
898.004	12198
899.154	12158
900.303	12308
901.453	12216
902.6	12218
903.749	12094
904.898	12334
906.047	12392
907.194	12418
908.342	12302
909.49	12236
910.638	12320
911.785	12462
912.932	12452
914.08	12508
915.225	12618
916.372	12612
917.519	12672
918.666	12602
919.811	12614
920.957	12560
922.102	12852
923.248	12782
924.394	12880
925.538	12760
926.684	12736
927.828	12848
928.973	12862
930.118	12954
931.261	12914
932.406	13004
933.549	12996
934.693	13130
935.836	13218
936.979	13210
938.122	13162
939.265	13286
940.407	13104
941.55	13292
942.692	13178
943.835	13354
944.976	13508
946.118	13342
947.259	13564
948.401	13580
949.542	13478
950.682	13670
951.824	13664
952.964	13686
954.105	13766
955.245	13678
956.385	13768
957.525	13754
958.664	13720
959.803	13928
960.944	13922
962.082	14036
963.221	13950
964.36	14232
965.498	14132
966.636	14040
967.774	14212
968.913	14162
970.051	14198
971.188	14264
972.325	14330
973.463	14472
974.6	14228
975.736	14510
976.873	14384
978.009	14420
979.146	14460
980.282	14462
981.418	14538
982.554	14622
983.689	14586
984.824	14486
985.959	14662
987.095	14768
988.23	14714
989.364	14712
990.499	14762
991.633	14844
992.767	15042
993.9	14840
995.034	14838
996.167	15004
997.301	14846
998.434	14830
999.567	14984
1000.7	15056
1001.83	14926
1002.96	15076
1004.1	15054
1005.23	15282
1006.36	15090
1007.49	15266
1008.62	15284
1009.76	15306
1010.89	15298
1012.02	15292
1013.15	15350
1014.28	15290
1015.41	15342
1016.54	15444
1017.67	15420
1018.8	15548
1019.93	15668
1021.06	15564
1022.19	15560
1023.32	15550
1024.44	15674
1025.57	15682
1026.7	15698
1027.83	15786
1028.96	15822
1030.09	15942
1031.21	15844
1032.34	16022
1033.47	16134
1034.6	15930
1035.72	16200
1036.85	16080
1037.98	16264
1039.1	16130
1040.23	16266
1041.35	16208
1042.48	16328
1043.61	16350
1044.73	16388
1045.86	16314
1046.98	16418
1048.11	16466
1049.23	16468
1050.36	16468
1051.48	16668
1052.61	16566
1053.73	16726
1054.85	16594
1055.98	16728
1057.1	16680
1058.22	16672
1059.35	16788
1060.47	16778
1061.59	16784
1062.72	16922
1063.84	16880
1064.96	16964
1066.08	17026
1067.2	16932
1068.33	17044
1069.45	17020
1070.57	17128
1071.69	17010
1072.81	16902
1073.93	17250
1075.05	16908
1076.17	17028
1077.29	17098
1078.41	17038
1079.53	17178
1080.65	17284
1081.77	16998
1082.89	17044
1084.01	17060
1085.13	17146
1086.25	17342
1087.37	17024
1088.48	17086
1089.6	17200
1090.72	17068
1091.84	17418
1092.96	17212
1094.07	16992
1095.19	17142
1096.31	17158
1097.43	17092
1098.54	17042
1099.66	17182
1100.78	17324
1101.89	17038
1103.01	17248
1104.12	17250
1105.24	17264
1106.35	17188
1107.47	17178
1108.59	17350
1109.7	17202
1110.81	17262
1111.93	17138
1113.04	17444
1114.16	17308
1115.27	17126
1116.39	17150
1117.5	17556
1118.61	17322
1119.73	17240
1120.84	17432
1121.95	17308
1123.06	17402
1124.18	17432
1125.29	17514
1126.4	17288
1127.51	17484
1128.63	17502
1129.74	17596
1130.85	17344
1131.96	17398
1133.07	17400
1134.18	17526
1135.29	17442
1136.4	17440
1137.51	17630
1138.62	17532
1139.73	17554
1140.84	17696
1141.95	17596
1143.06	17434
1144.17	17520
1145.28	17646
1146.39	17556
1147.5	17496
1148.61	17556
1149.72	17576
1150.82	17482
1151.93	17580
1153.04	17652
1154.15	17684
1155.26	17778
1156.36	17526
1157.47	17544
1158.58	17664
1159.68	17628
1160.79	17702
1161.9	17640
1163	17720
1164.11	17520
1165.22	17846
1166.32	17660
1167.43	17762
1168.53	17656
1169.64	17778
1170.74	17700
1171.85	17686
1172.95	17744
1174.06	17590
1175.16	17480
1176.26	17542
1177.37	17342
1178.47	17576
1179.58	17480
1180.68	17608
1181.78	17494
1182.88	17690
1183.99	17508
1185.09	17340
1186.19	17378
1187.3	17350
1188.4	17386
1189.5	17250
1190.6	17156
1191.7	17266
1192.8	17238
1193.9	17260
1195.01	17070
1196.11	17044.4
1197.21	17154.8
1198.31	17030.7
1199.41	17129.7
1200.51	17051.8
1201.61	17133.6
1202.71	16997.3
1203.81	17015.7
1204.91	17023.9
1206.01	16864.6
1207.11	16858.4
1208.2	16953.4
1209.3	16738.4
1210.4	16739
1211.5	16680
1212.6	16820.6
1213.7	16724.3
1214.8	16747.3
1215.89	16718.8
1216.99	16637.1
1218.09	16705.1
1219.18	16674
1220.28	16589.3
1221.38	16422.3
1222.48	16420.1
1223.57	16481.1
1224.67	16487.5
1225.76	16441.6
1226.86	16362.9
1227.96	16475.8
1229.05	16394.1
1230.15	16391.7
1231.24	16299.3
1232.34	16284
1233.43	16302.6
1234.53	16378.4
1235.62	16287
1236.71	16188.1
1237.81	16154.4
1238.9	16142.3
1240	16147.7
1241.09	16176.4
1242.18	16052.9
1243.28	16100.5
1244.37	16033.5
1245.46	16134.9
1246.56	16058.2
1247.65	16054.7
1248.74	15921
1249.83	15933.7
1250.93	15963.9
1252.02	15956.8
1253.11	15935.8
1254.2	15891.1
1255.29	15912.8
1256.38	15928.3
1257.47	15908.2
1258.56	15834.9
1259.65	15681
1260.74	15679.4
1261.84	15716.9
1262.92	15737.6
1264.01	15706.2
1265.1	15663.4
1266.19	15709.7
1267.28	15743.9
1268.37	15613.8
1269.46	15634.5
1270.55	15565.8
1271.64	15610.9
1272.73	15567.4
1273.82	15515
1274.9	15405.5
1275.99	15422.3
1277.08	15521.1
1278.17	15386.2
1279.26	15399
1280.34	15429.6
1281.43	15443.4
1282.52	15216.2
1283.6	15225.6
1284.69	15301
1285.78	15346.4
1286.86	15182.2
1287.95	15198.9
1289.03	15128.8
1290.12	15122.6
1291.21	15050.5
1292.29	15034.4
1293.38	15039.6
1294.46	15071.3
1295.55	15079.4
1296.63	15092.3
1297.71	14962.4
1298.8	14982.4
1299.88	14905.5
1300.97	14984.8
1302.05	14877.5
1303.13	14725.6
1304.22	14713.3
1305.3	14734.6
1306.38	14765.7
1307.34	14732
1308.43	14674
1309.52	14536
1310.61	14582
1311.7	14500
1312.78	14638
1313.87	14608
1314.96	14442
1316.05	14456
1317.13	14332
1318.22	14256
1319.3	14256
1320.39	14350
1321.48	14232
1322.56	14208
1323.65	14124
1324.73	14020
1325.82	14084
1326.9	13950
1327.99	14042
1329.07	13986
1330.16	13920
1331.24	13856
1332.33	13868
1333.41	13912
1334.5	13948
1335.58	13702
1336.66	13832
1337.75	13782
1338.83	13620
1339.91	13606
1341	13528
1342.08	13624
1343.16	13536
1344.25	13468
1345.33	13446
1346.41	13502
1347.49	13404
1348.57	13358
1349.65	13388
1350.74	13368
1351.82	13260
1352.9	13276
1353.98	13244
1355.06	13290
1356.14	12948
1357.22	13096
1358.3	13054
1359.38	12924
1360.46	12920
1361.54	13004
1362.62	13002
1363.7	12922
1364.78	12904
1365.86	12846
1366.94	12840
1368.02	12878
1369.09	12764
1370.17	12832
1371.25	12816
1372.33	12676
1373.41	12658
1374.48	12754
1375.56	12620
1376.64	12656
1377.72	12644
1378.79	12550
1379.87	12414
1380.95	12446
1382.02	12570
1383.1	12398
1384.17	12450
1385.25	12494
1386.33	12466
1387.4	12274
1388.48	12358
1389.55	12332
1390.63	12306
1391.7	12206
1392.78	12326
1393.85	12280
1394.93	12140
1396	12282
1397.07	12240
1398.15	12064
1399.22	12172
1400.3	12068
1401.37	12082
1402.44	11932
1403.52	11914
1404.59	11974
1405.66	12090
1406.73	12062
1407.81	11956
1408.88	12008
1409.95	11890
1411.02	11730
1412.09	11812
1413.17	11872
1414.24	11848
1415.31	11772
1416.38	11558
1417.45	11626
1418.52	11682
1419.59	11564
1420.66	11798
1421.73	11556
1422.8	11624
1423.87	11598
1424.94	11708
1426.01	11588
1427.08	11572
1428.15	11482
1429.22	11470
1430.29	11560
1431.35	11284
1432.42	11426
1433.49	11416
1434.56	11312
1435.63	11472
1436.7	11270
1437.76	11312
1438.83	11320
1439.9	11298
1440.96	11326
1442.03	11382
1443.1	11426
1444.17	11204
1445.23	11256
1446.3	11186
1447.36	11240
1448.43	11166
1449.49	11356
1450.56	11268
1451.63	11190
1452.69	11144
1453.76	11216
1454.82	11038
1455.89	11050
1456.95	11060
1458.01	10980
1459.08	10986
1460.14	10958
1461.21	10944
1462.27	11162
1463.34	10924
1464.4	10920
1465.46	11000
1466.52	10830
1467.59	10850
1468.65	10914
1469.71	10826
1470.77	10862
1471.84	10848
1472.9	10896
1473.96	10898
1475.02	10766
1476.08	10860
1477.15	10780
1478.21	10804
1479.27	10824
1480.33	10758
1481.39	10816
1482.45	10738
1483.51	10764
1484.57	10732
1485.63	10612
1486.69	10586
1487.75	10580
1488.81	10574
1489.87	10550
1490.93	10638
1491.99	10674
1493.05	10428
1494.1	10656
1495.16	10536
1496.22	10476
1497.28	10606
1498.34	10392
1499.4	10452
1500.45	10326
1501.51	10394
1502.57	10534
1503.63	10412
1504.68	10380
1505.74	10430
1506.8	10282
1507.85	10280
1508.91	10280
1509.97	10378
1511.02	10320
1512.08	10382
1513.13	10178
1514.19	10356
1515.24	10262
1516.3	10194
1517.35	10232
1518.41	10176
1519.46	10066
1520.52	10148
1521.57	10094
1522.63	10164
1523.68	10166
1524.73	10116
1525.79	10164
1526.84	10222
1527.9	10156
1528.95	10104
1530	10146
1531.06	9996
1532.11	10012
1533.16	9908
1534.21	9970
1535.26	9862
1536.32	10000
1537.37	10014
1538.42	9938
1539.47	9828
1540.52	9870
1541.57	9856
1542.63	9822
1543.68	9730
1544.73	9938
1545.78	9794
1546.83	9812
1547.88	9726
1548.93	9696
1549.98	9684
1551.03	9670
1552.08	9798
1553.13	9634
1554.18	9660
1555.23	9650
1556.27	9696
1557.32	9690
1558.37	9682
1559.42	9516
1560.47	9610
1561.52	9632
1562.56	9526
1563.61	9676
1564.66	9650
1565.71	9582
1566.75	9552
1567.8	9536
1568.85	9464
1569.9	9510
1570.94	9498
1571.99	9564
1573.03	9484
1574.08	9442
1575.13	9472
1576.17	9432
1577.22	9354
1578.26	9498
1579.31	9456
1580.35	9422
1581.4	9392
1582.44	9482
1583.49	9410
1584.53	9242
1585.58	9370
1586.62	9476
1587.66	9268
1588.71	9244
1589.75	9454
1590.8	9382
1591.84	9410
1592.88	9520
1593.93	9388
1594.97	9414
1596.01	9282
1597.05	9360
1598.1	9414
1599.14	9230
1600.18	9320
1601.22	9198
1602.26	9352
1603.31	9322
1604.35	9262
1605.39	9408
1606.43	9308
1607.47	9102
1608.51	9230
1609.55	9346
1610.59	9248
1611.63	9240
1612.67	9250
1613.71	9164
1614.75	9280
1615.79	9288
1616.83	9202
1617.87	9366
1618.91	9224
1619.95	9242
1620.99	9190
1622.02	9244
1623.06	9320
1624.1	9108
1625.14	9154
1626.18	9144
1627.21	9174
1628.25	9110
1629.29	9178
1630.33	9226
1631.36	9152
1632.4	9140
1633.44	9152
1634.48	9120
1635.51	8930
1636.55	9066
1637.58	9064
1638.62	9096
1639.66	9100
1640.69	8990
1641.73	9168
1642.76	9136
1643.8	9102
1644.83	9040
1645.87	8930
1646.9	9040
1647.94	9094
1648.97	8906
1650	8958
1651.04	9044
1652.07	9052
1653.11	8900
1654.14	8978
1655.17	9052
1656.21	9014
1657.24	8814
1658.27	8844
1659.31	8876
1660.34	8872
1661.37	8814
1662.4	8708
1663.43	8764
1664.47	8910
1665.5	8778
1666.53	8836
1667.56	8796
1668.59	8768
1669.62	8752
1670.66	8696
1671.69	8676
1672.72	8730
1673.75	8692
1674.78	8700
1675.81	8808
1676.84	8664
1677.87	8750
1678.9	8668
1679.93	8618
1680.96	8686
1681.98	8656
1683.01	8658
1684.04	8650
1685.07	8592
1686.1	8508
1687.13	8606
1688.16	8564
1689.19	8430
1690.21	8516
1691.24	8726
1692.27	8504
1693.3	8478
1694.32	8460
1695.35	8538
1696.38	8416
1697.4	8396
1698.43	8282
1699.46	8482
1700.48	8574
1701.51	8480
1702.54	8430
1703.56	8382
1704.59	8442
1705.61	8340
1706.64	8370
1707.66	8422
1708.69	8442
1709.71	8316
1710.74	8240
1711.76	8460
1712.79	8298
1713.81	8296
1714.83	8358
1715.86	8398
1716.88	8304
1717.91	8304
1718.93	8270
1719.95	8352
1720.98	8310
1722	8320
1723.02	8194
1724.04	8278
1725.07	8228
1726.09	8258
1727.11	8232
1728.13	8144
1729.15	8278
1730.18	8222
1731.2	8196
1732.22	8174
1733.24	8310
1734.26	8180
1735.28	8242
1736.3	8132
1737.32	8094
1738.34	8130
1739.36	8190
1740.38	8098
1741.4	8200
1742.42	8190
1743.44	8118
1744.46	8020
1745.48	8144
1746.5	8176
1747.52	8046
1748.54	8078
1749.56	8078
1750.58	8056
1751.6	8062
1752.61	8028
1753.63	8038
1754.65	8056
1755.67	8028
1756.68	8124
1757.7	8058
1758.72	7972
1759.74	8018
1760.75	8100
1761.77	8028
1762.79	7994
1763.8	7940
1764.82	8062
1765.84	8050
1766.85	8092
1767.87	8058
1768.88	7988
1769.9	7994
1770.91	7990
1771.93	7984
1772.94	8126
1773.96	8016
1774.97	8046
1775.99	8042
1777	7948
1778.02	8070
1779.03	7990
1780.04	8046
1781.06	8018
1782.07	8020
1783.09	7892
1784.1	8010
1785.11	7974
1786.13	7976
1787.14	7980
1788.15	7984
1789.16	7880
1790.18	7982
1791.19	7944
1792.2	7974
1793.21	7970
1794.22	7926
1795.23	7814
1796.25	7958
1797.26	7902
1798.27	7720
1799.28	7856
1800.29	7958
1801.3	7838
1802.31	7906
1803.32	7882
1804.33	7864
1805.34	7868
1806.35	7858
1807.36	7792
1808.37	7798
1809.38	7816
1810.39	7802
1811.4	7740
1812.41	7802
1813.42	7826
1814.43	7848
1815.43	7786
1816.44	7732
1817.45	7762
1818.46	7760
1819.47	7708
1820.47	7732
1821.48	7602
1822.49	7716
1823.49	7744
1824.5	7708
1825.51	7662
1826.52	7678
1827.52	7724
1828.53	7636
1829.54	7674
1830.54	7662
1831.55	7694
1832.55	7682
1833.56	7546
1834.56	7552
1835.57	7640
1836.57	7568
1837.58	7544
1838.58	7570
1839.59	7630
1840.59	7634
1841.6	7486
1842.6	7592
1843.61	7564
1844.61	7550
1845.61	7552
1846.62	7548
1847.62	7518
1848.62	7418
1849.63	7512
1850.63	7508
1851.63	7474
1852.64	7450
1853.64	7490
1854.64	7474
1855.64	7550
1856.64	7376
1857.65	7398
1858.65	7542
1859.65	7474
1860.65	7458
1861.65	7540
1862.65	7446
1863.65	7490
1864.66	7450
1865.66	7286
1866.66	7520
1867.66	7382
1868.66	7358
1869.66	7438
1870.66	7398
1871.66	7314
1872.66	7376
1873.66	7342
1874.66	7270
1875.65	7354
1876.65	7346
1877.65	7260
1878.65	7228
1879.65	7332
1880.65	7340
1881.65	7340
1882.64	7222
1883.64	7330
1884.64	7310
1885.64	7244
1886.63	7264
1887.63	7394
1888.63	7322
1889.63	7342
1890.62	7344
1891.62	7420
1892.62	7272
1893.61	7324
1894.61	7262
1895.6	7230
1896.6	7324
1897.6	7262
1898.59	7264
1899.59	7224
1900.58	7258
1901.58	7214
1902.57	7274
1903.57	7288
1904.56	7324
1905.56	7272
1906.55	7294
1907.54	7190
1908.54	7280
1909.53	7294
1910.53	7226
1911.52	7202
1912.51	7310
1913.51	7328
1914.5	7204
1915.49	7244
1916.49	7224
1917.48	7268
1918.47	7230
1919.46	7216
1920.46	7200
1921.45	7182
1922.44	7172
1923.43	7144
1924.42	7222
1925.41	7204
1926.41	7214
1927.4	7182
1928.39	7124
1929.38	7216
1930.37	7124
1931.36	7186
1932.35	7160
1933.34	7206
1934.33	7110
1935.32	7066
1936.31	7138
1937.3	7226
1938.29	7166
1939.28	7138
1940.27	7146
1941.26	7106
1942.24	7142
1943.23	7164
1944.22	7044
1945.21	7078
1946.2	7130
1947.19	7178
1948.17	7040
1949.16	7090
1950.15	7056
1951.14	7022
1952.13	7044
1953.11	7040
1954.1	7088
1955.09	7082
1956.07	7002
1957.06	6982
1958.05	7058
1959.03	7086
1960.02	7046
1961	7034
1961.99	6982
1962.98	6938
1963.96	6958
1964.95	7054
1965.93	6966
1966.92	6938
1967.9	6946
1968.89	7046
1969.87	6960
1970.85	6982
1971.84	6974
1972.82	7058
1973.81	6962
1974.79	6896
1975.78	7080
1976.76	6952
1977.74	6940
1978.73	6892
1979.71	6944
1980.69	6844
1981.67	6894
1982.66	6930
1983.64	6844
1984.62	6894
1985.6	6856
1986.59	6934
1987.57	6884
1988.55	6950
1989.53	6880
1990.51	6814
1991.49	6852
1992.47	6874
1993.45	6840
1994.44	6948
1995.42	6868
1996.4	6864
1997.38	6816
1998.36	6778
1999.34	6834
2000.32	6900
2001.3	6928
2002.28	6770
2003.26	6792
2004.24	6812
2005.22	6798
2006.19	6722
2007.17	6806
2008.15	6862
2009.13	6870
2010.11	6692
2011.09	6830
2012.06	6654
2013.04	6782
2014.02	6810
2015	6798
2015.98	6746
2016.95	6872
2017.93	6732
2018.91	6672
2019.88	6652
2020.86	6748
2021.84	6680
2022.81	6656
2023.79	6722
2024.77	6754
2025.74	6790
2026.72	6694
2027.69	6828
2028.67	6730
2029.65	6678
2030.62	6618
2031.6	6702
2032.57	6722
2033.55	6702
2034.52	6694
2035.5	6714
2036.47	6594
2037.44	6742
2038.42	6720
2039.39	6678
2040.36	6592
2041.34	6716
2042.31	6676
2043.29	6622
2044.26	6736
2045.23	6584
2046.2	6548
2047.18	6582
2048.15	6628
2049.12	6614
2050.09	6630
2051.07	6664
2052.04	6586
2053.01	6640
2053.98	6536
2054.95	6644
2055.93	6636
2056.9	6586
2057.87	6552
2058.84	6626
2059.81	6490
2060.78	6552
2061.75	6544
2062.72	6600
2063.69	6518
2064.66	6582
2065.63	6556
2066.6	6644
2067.57	6530
2068.54	6542
2069.51	6620
2070.48	6504
2071.45	6594
2072.42	6526
2073.38	6558
2074.35	6538
2075.32	6518
2076.29	6508
2077.26	6472
2078.23	6458
2079.19	6460
2080.16	6506
2081.13	6460
2082.1	6394
2083.06	6468
2084.03	6524
2085	6472
2085.96	6476
2086.93	6390
2087.9	6510
2088.86	6416
2089.83	6448
2090.8	6432
2091.76	6480
2092.73	6440
2093.69	6344
2094.66	6438
2095.62	6370
2096.59	6488
2097.55	6390
2098.52	6470
2099.48	6430
2100.45	6416
2101.41	6364
2102.38	6428
2103.34	6346
2104.31	6412
2105.27	6376
2106.23	6418
2107.2	6384
2108.16	6400
2109.12	6306
2110.09	6246
2111.05	6210
2112.01	6384
2112.98	6384
2113.94	6378
2114.9	6378
2115.86	6288
2116.82	6318
2117.79	6368
2118.75	6288
2119.71	6328
2120.67	6310
2121.63	6258
2122.59	6276
2123.55	6302
2124.52	6280
2125.48	6340
2126.44	6254
2127.4	6228
2128.36	6352
2129.32	6366
2130.28	6262
2131.24	6254
2132.2	6244
2133.16	6392
2134.12	6312
2135.08	6214
2136.04	6280
2136.99	6212
2137.95	6222
2138.91	6112
2139.87	6212
2140.83	6256
2141.79	6258
2142.75	6186
2143.7	6096
2144.66	6144
2145.62	6215.67
2146.58	6103.65
2147.53	6211.07
2148.49	6257.94
2149.45	6126.66
2150.41	6129.12
2151.36	6147.83
2152.32	6240.75
2153.28	6120.94
2154.23	6084.69
2155.19	6161.71
2156.14	6072.91
2157.1	6085.41
2158.06	6114.49
2159.01	6109.89
2159.97	6134.32
2160.92	6010.56
2161.88	6004.51
2162.83	6040
2163.79	6058.32
2164.74	6100.18
2165.7	6043.24
2166.65	6058.64
2167.61	6060.31
2168.56	6050.57
2169.51	5982.23
2170.47	6036.03
2171.42	6000.61
2172.38	5961.02
2173.33	6049.06
2174.28	6028.28
2175.24	5932.31
2176.19	5987.02
2177.14	5936.37
2178.09	5969.04
2179.05	5986.2
2180	5929.84
2180.95	5953.97
2181.9	5966.19
2182.86	5922.27
2183.81	5942.34
2184.76	5977.29
2185.71	5927.65
2186.66	5959.84
2187.61	5910.12
2188.57	5915
2189.52	5846.63
2190.47	5908.09
2191.42	5921.66
2192.37	5936.64
2193.32	5900.35
2194.27	5959.73
2195.22	5920.75
2196.17	5928.99
2197.12	5905.41
2198.07	5916.18
2199.02	5884.72
2199.97	5873.57
2200.92	5894.92
2201.87	5874.35
2202.82	5883.98
2203.76	5888.8
2204.71	5892.16
2205.66	5859.25
2206.61	5866.06
2207.56	5904.5
2208.51	5891.09
2209.45	5799.62
2210.4	5837.61
2211.35	5845.08
2212.3	5852.18
2213.25	5866.15
2214.19	5840.19
2215.14	5819.62
2216.09	5822.35
2217.03	5865.62
2217.98	5852.42
2218.93	5806.16
2219.87	5831.5
2220.82	5819.55
2221.77	5829.25
2222.71	5812.66
2223.66	5830.91
2224.6	5779.26
2225.55	5835.82
2226.49	5874.7
2227.44	5877.04
2228.38	5890.21
2229.33	5865.39
2230.27	5826.05
2231.22	5804.7
2232.16	5844.85
2233.11	5854.71
2234.05	5851.36
2235	5769.67
2235.94	5779.68
2236.88	5880.42
2237.83	5910.34
2238.77	5901.14
2239.72	5846.59
2240.66	5824.65
2241.6	5829.77
2242.07	5836
2243.02	5830
2243.97	5874
2244.92	5854
2245.87	5922
2246.81	5786
2247.76	5812
2248.71	5832
2249.65	5796
2250.6	5812
2251.55	5918
2252.49	5674
2253.44	5820
2254.39	5884
2255.33	5842
2256.28	5868
2257.22	5772
2258.17	5860
2259.12	5808
2260.06	5746
2261.01	5898
2261.95	5696
2262.9	5762
2263.84	5768
2264.78	5834
2265.73	5810
2266.67	5798
2267.62	5790
2268.56	5708
2269.51	5782
2270.45	5790
2271.39	5794
2272.34	5698
2273.28	5708
2274.22	5594
2275.17	5692
2276.11	5732
2277.05	5732
2277.99	5790
2278.94	5758
2279.88	5740
2280.82	5730
2281.76	5702
2282.71	5686
2283.65	5798
2284.59	5738
2285.53	5738
2286.47	5724
2287.41	5686
2288.35	5846
2289.3	5768
2290.24	5692
2291.18	5632
2292.12	5622
2293.06	5806
2294	5674
2294.94	5586
2295.88	5762
2296.82	5682
2297.76	5670
2298.7	5636
2299.64	5626
2300.58	5582
2301.52	5614
2302.46	5670
2303.39	5572
2304.33	5688
2305.27	5580
2306.21	5700
2307.15	5700
2308.09	5592
2309.02	5614
2309.96	5612
2310.9	5608
2311.84	5602
2312.77	5596
2313.71	5616
2314.65	5550
2315.59	5600
2316.52	5530
2317.46	5568
2318.4	5522
2319.33	5490
2320.27	5572
2321.21	5544
2322.14	5518
2323.08	5562
2324.01	5518
2324.95	5550
2325.89	5562
2326.82	5510
2327.76	5530
2328.69	5526
2329.63	5580
2330.56	5544
2331.5	5626
2332.43	5462
2333.36	5540
2334.3	5580
2335.23	5544
2336.17	5526
2337.1	5620
2338.03	5526
2338.97	5490
2339.9	5586
2340.83	5508
2341.77	5484
2342.7	5554
2343.63	5472
2344.57	5488
2345.5	5444
2346.43	5418
2347.36	5460
2348.3	5520
2349.23	5530
2350.16	5398
2351.09	5432
2352.02	5432
2352.95	5400
2353.89	5374
2354.82	5468
2355.75	5554
2356.68	5350
2357.61	5456
2358.54	5472
2359.47	5378
2360.4	5410
2361.33	5480
2362.26	5522
2363.19	5428
2364.12	5510
2365.05	5416
2365.98	5398
2366.91	5428
2367.84	5386
2368.77	5474
2369.7	5378
2370.63	5416
2371.56	5376
2372.48	5342
2373.41	5270
2374.34	5422
2375.27	5430
2376.2	5418
2377.12	5356
2378.05	5436
2378.98	5346
2379.91	5272
2380.84	5336
2381.76	5372
2382.69	5324
2383.62	5352
2384.54	5318
2385.47	5336
2386.4	5350
2387.32	5302
2388.25	5352
2389.18	5288
2390.1	5296
2391.03	5322
2391.95	5384
2392.88	5330
2393.8	5328
2394.73	5290
2395.65	5354
2396.58	5400
2397.5	5276
2398.43	5290
2399.35	5312
2400.28	5316
2401.2	5362
2402.13	5254
2403.05	5314
2403.97	5256
2404.9	5240
2405.82	5272
2406.75	5284
2407.67	5232
2408.59	5274
2409.51	5130
2410.44	5192
2411.36	5172
2412.28	5264
2413.21	5200
2414.13	5204
2415.05	5172
2415.97	5230
2416.9	5166
2417.82	5124
2418.74	5210
2419.66	5236
2420.58	5144
2421.5	5254
2422.42	5110
2423.35	5150
2424.27	5122
2425.19	5200
2426.11	5122
2427.03	5148
2427.95	5176
2428.87	5158
2429.79	5128
2430.71	5092
2431.63	5164
2432.55	5092
2433.47	5108
2434.39	5152
2435.31	5084
2436.23	5066
2437.14	5066
2438.06	5070
2438.98	5134
2439.9	5068
2440.82	5146
2441.74	5074
2442.66	5058
2443.57	5050
2444.49	5038
2445.41	5070
2446.33	4960
2447.24	5102
2448.16	5048
2449.08	4990
2450	5086
2450.91	5062
2451.83	5082
2452.75	5118
2453.66	4986
2454.58	5060
2455.5	5008
2456.41	5080
2457.33	4934
2458.24	5018
2459.16	5000
2460.08	5026
2460.99	4966
2461.91	4934
2462.82	5028
2463.74	4990
2464.65	4956
2465.57	4912
2466.48	5048
2467.4	5002
2468.31	4944
2469.22	4952
2470.14	5034
2471.05	4908
2471.97	4956
2472.88	4974
2473.79	5020
2474.71	4886
2475.62	5038
2476.53	4936
2477.45	4944
2478.36	4906
2479.27	4898
2480.19	4920
2481.1	4828
2482.01	4934
2482.92	4936
2483.83	4912
2484.75	4908
2485.66	4870
2486.57	4818
2487.48	4750
2488.39	4804
2489.3	4828
2490.22	4842
2491.13	4886
2492.04	4846
2492.95	4758
2493.86	4860
2494.77	4824
2495.68	4772
2496.59	4834
2497.5	4756
2498.41	4750
2499.32	4864
2500.23	4810
2501.14	4772
2502.05	4766
2502.96	4862
2503.87	4784
2504.78	4860
2505.68	4720
2506.59	4732
2507.5	4852
2508.41	4758
2509.32	4666
2510.23	4690
2511.14	4700
2512.04	4772
2512.95	4654
2513.86	4708
2514.77	4776
2515.67	4648
2516.58	4698
2517.49	4702
2518.39	4634
2519.3	4656
2520.21	4738
2521.11	4708
2522.02	4598
2522.93	4700
2523.83	4664
2524.74	4688
2525.65	4686
2526.55	4702
2527.46	4578
2528.36	4628
2529.27	4640
2530.17	4654
2531.08	4576
2531.98	4536
2532.89	4610
2533.79	4568
2534.7	4678
2535.6	4598
2536.51	4484
2537.41	4570
2538.32	4516
2539.22	4600
2540.12	4450
2541.03	4616
2541.93	4468
2542.83	4538
2543.74	4604
2544.64	4556
2545.54	4482
2546.45	4520
2547.35	4588
2548.25	4472
2549.15	4482
2550.06	4628
2550.96	4586
2551.86	4488
2552.76	4526
2553.66	4500
2554.56	4468
2555.47	4522
2556.37	4440
2557.27	4444
2558.17	4524
2559.07	4484
2559.97	4464
2560.87	4396
2561.77	4442
2562.67	4418
2563.58	4442
2564.47	4428
2565.38	4460
2566.27	4400
2567.18	4444
2568.07	4474
2568.97	4358
2569.87	4424
2570.77	4368
2571.67	4392
2572.57	4398
2573.47	4390
2574.37	4416
2575.27	4384
2576.17	4432
2577.06	4416
2577.96	4410
2578.86	4350
2579.76	4324
2580.66	4328
2581.55	4298
2582.45	4404
2583.35	4306
2584.25	4348
2585.14	4374
2586.04	4342
2586.94	4288
2587.83	4350
2588.73	4326
2589.63	4350
2590.52	4320
2591.42	4256
2592.32	4232
2593.21	4260
2594.11	4180
2595	4256
2595.9	4296
2596.8	4276
2597.69	4224
2598.59	4266
2599.48	4266
2600.38	4168
2601.27	4214
2602.17	4182
2603.06	4146
2603.95	4206
2604.85	4132
2605.74	4214
2606.64	4172
2607.53	4218
2608.42	4168
2609.32	4240
2610.21	4226
2611.1	4224
2612	4220
2612.89	4136
2613.78	4202
2614.68	4110
2615.57	4188
2616.46	4208
2617.36	4202
2618.25	4144
2619.14	4128
2620.03	4124
2620.92	4098
2621.82	4112
2622.71	4074
2623.6	4060
2624.49	4142
2625.38	4102
2626.27	4124
2627.16	4118
2628.05	4132
2628.95	4104
2629.84	4096
2630.73	4068
2631.62	4072
2632.51	4080
2633.4	4132
2634.29	3978
2635.18	4064
2636.07	4030
2636.96	4052
2637.85	3998
2638.74	4026
2639.62	3952
2640.51	4012
2641.4	3934
2642.29	4020
2643.18	3984
2644.07	4034
2644.96	3976
2645.85	4006
2646.73	3888
2647.62	3994
2648.51	3914
2649.4	3944
2650.28	3962
2651.17	3916
2652.06	3894
2652.95	3876
2653.83	3896
2654.72	3898
2655.61	3874
2656.5	3840
2657.38	3926
2658.27	3854
2659.15	3884
2660.04	3936
2660.93	3950
2661.81	3886
2662.7	3968
2663.58	3964
2664.47	3880
2665.35	3920
2666.24	3866
2667.13	3808
2668.01	3838
2668.9	3876
2669.78	3798
2670.66	3900
2671.55	3836
2672.43	3786
2673.32	3864
2674.2	3798
2675.09	3890
2675.97	3884
2676.85	3792
2677.74	3792
2678.62	3898
2679.5	3862
2680.39	3714
2681.27	3876
2682.15	3806
2683.04	3792
2683.92	3830
2684.8	3758
2685.68	3752
2686.57	3808
2687.45	3732
2688.33	3760
2689.21	3772
2690.09	3816
2690.98	3756
2691.86	3694
2692.74	3760
2693.62	3774
2694.5	3728
2695.38	3734
2696.26	3828
2697.15	3704
2698.03	3654
2698.91	3728
2699.79	3634
2700.67	3668
2701.55	3660
2702.43	3724
2703.31	3748
2704.19	3746
2705.07	3672
2705.95	3636
2706.83	3622
2707.7	3650
2708.58	3596
2709.46	3610
2710.34	3636
2711.22	3734
2712.1	3708
2712.98	3652
2713.86	3652
2714.73	3562
2715.61	3614
2716.49	3630
2717.37	3638
2718.25	3582
2719.12	3604
2720	3566
2720.88	3646
2721.76	3546
2722.63	3642
2723.51	3620
2724.39	3558
2725.26	3644
2726.14	3540
2727.02	3542
2727.89	3492
2728.77	3536
2729.64	3566
2730.52	3524
2731.4	3500
2732.27	3508
2733.15	3556
2734.02	3496
2734.9	3518
2735.77	3568
2736.65	3470
2737.52	3490
2738.4	3398
2739.27	3466
2740.15	3450
2741.02	3520
2741.9	3510
2742.77	3486
2743.64	3468
2744.52	3444
2745.39	3424
2746.27	3466
2747.14	3404
2748.01	3428
2748.89	3478
2749.76	3390
2750.63	3412
2751.51	3434
2752.38	3450
2753.25	3442
2754.12	3430
2755	3394
2755.87	3316
2756.74	3406
2757.61	3410
2758.48	3364
2759.35	3390
2760.23	3492
2761.1	3414
2761.97	3320
2762.84	3374
2763.71	3316
2764.58	3356
2765.45	3348
2766.32	3316
2767.19	3310
2768.07	3346
2768.94	3332
2769.81	3368
2770.68	3308
2771.55	3182
2772.42	3302
2773.29	3344
2774.16	3358
2775.02	3316
2775.89	3332
2776.76	3284
2777.63	3244
2778.5	3336
2779.37	3298
2780.24	3238
2781.11	3300
2781.98	3212
2782.84	3276
2783.71	3260
2784.58	3254
2785.45	3270
2786.32	3196
2787.18	3280
2788.05	3276
2788.92	3262
2789.79	3270
2790.65	3272
2791.52	3138
2792.39	3206
2793.25	3218
2794.12	3252
2794.99	3180
2795.85	3290
2796.72	3200
2797.59	3234
2798.45	3172
2799.32	3196
2800.18	3264
2801.05	3138
2801.92	3204
2802.78	3120
2803.65	3093
2804.51	3066
2805.38	3148
2806.24	3166
2807.11	3150
2807.97	3206
2808.84	3146
2809.7	3128
2810.57	3172
2811.43	3108
2812.29	3106
2813.16	3126
2814.02	3116
2814.88	3038
2815.75	3098
2816.61	3002
2817.47	3090
2818.34	3070
2819.2	3122
2820.06	3098
2820.93	3040
2821.79	3006
2822.65	3108
2823.51	3018
2824.38	3042
2825.24	3048
2826.1	3064
2826.96	3042
2827.82	3000
2828.69	2988
2829.55	2982
2830.41	3000
2831.27	3064
2832.13	2990
2832.99	3010
2833.85	2986
2834.71	3026
2835.57	3000
2836.44	2958
2837.3	2972
2838.16	2986
2839.02	2958
2839.88	2950
2840.74	2980
2841.6	3028
2842.46	2954
2843.32	2918
2844.18	2922
2845.03	2932
2845.89	2966
2846.75	3034
2847.61	2900
2848.47	2934
2849.33	2964
2850.19	2928
2851.05	2884
2851.9	2912
2852.76	2944
2853.62	2954
2854.48	2830
2855.34	2924
2856.19	2914
2857.05	2830
2857.91	2828
2858.77	2944
2859.62	2830
2860.48	2838
2861.34	2830
2862.19	2846
2863.05	2864
2863.91	2866
2864.76	2778
2865.62	2802
2866.48	2788
2867.33	2818
2868.19	2874
2869.04	2816
2869.9	2814
2870.76	2786
2871.61	2796
2872.47	2812
2873.32	2716
2874.18	2836
2875.03	2808
2875.89	2786
2876.74	2750
2877.6	2854
2878.45	2754
2879.31	2764
2880.16	2752
2881.01	2762
2881.87	2750
2882.72	2784
2883.58	2774
2884.43	2700
2885.28	2780
2886.14	2732
2886.99	2724
2887.84	2732
2888.7	2744
2889.55	2728
2890.4	2734
2891.25	2660
2892.11	2758
2892.96	2714
2893.81	2688
2894.66	2712
2895.52	2708
2896.37	2684
2897.22	2704
2898.07	2718
2898.92	2752
2899.77	2712
2900.62	2664
2901.48	2746
2902.33	2678
2903.18	2696
2904.03	2614
2904.88	2688
2905.73	2728
2906.58	2688
2907.43	2652
2908.28	2692
2909.13	2676
2909.98	2636
2910.83	2626
2911.68	2594
2912.53	2644
2913.38	2642
2914.23	2726
2915.08	2554
2915.93	2672
2916.78	2584
2917.63	2622
2918.47	2670
2919.32	2670
2920.17	2614
2921.02	2626
2921.87	2624
2922.72	2666
2923.56	2638
2924.41	2598
2925.26	2552
2926.11	2586
2926.95	2636
2927.8	2546
2928.65	2582
2929.5	2616
2930.34	2588
2931.19	2560
2932.04	2592
2932.88	2534
2933.73	2572
2934.58	2592
2935.42	2558
2936.27	2492
2937.11	2604
2937.96	2532
2938.81	2530
2939.65	2590
2940.5	2552
2941.34	2558
2942.19	2522
2943.03	2558
2943.88	2550
2944.72	2554
2945.57	2542
2946.41	2512
2947.26	2544
2948.1	2514
2948.95	2520
2949.79	2552
2950.64	2468
2951.48	2542
2952.32	2496
2953.17	2486
2954.01	2426
2954.85	2588
2955.7	2560
2956.54	2466
2957.38	2496
2958.23	2486
2959.07	2484
2959.91	2472
2960.75	2518
2961.6	2466
2962.44	2536
2963.28	2450
2964.12	2460
2964.97	2444
2965.81	2438
2966.65	2442
2967.49	2446
2968.33	2448
2969.17	2436
2970.02	2478
2970.86	2388
2971.7	2402
2972.54	2382
2973.38	2460
2974.22	2460
2975.06	2420
2975.9	2354
2976.74	2400
2977.58	2410
2978.42	2436
2979.26	2440
2980.1	2332
2980.94	2432
2981.78	2332
2982.62	2354
2983.46	2420
2984.3	2426
2985.14	2374
2985.98	2346
2986.82	2338
2987.66	2360
2988.49	2384
2989.33	2342
2990.17	2376
2991.01	2312
2991.85	2330
2992.69	2360
2993.52	2298
2994.36	2326
2995.2	2388
2996.04	2304
2996.87	2364
2997.71	2352
2998.55	2288
2999.39	2330
