#Acq. time (s)=	10
#Accumulations=	1
#Range (cm-¹)=	100...3000
#Windows=	3
#Autofocus=	Off
#AutoExposure=	Off
#Spike filter=	Off
#Delay time (s)=	0
#Binning=	1
#Readout mode=	Signal
#DeNoise=	Off
#ICS correction=	Off
#Dark correction=	Off
#Inst. Process=	Off
#Instrument=	LabRAM HR Evol
#Detector=	Syncerity OE
#Objective=	x100_VIS
#Grating=	600 (500nm)
#ND Filter=	3.2%
#Laser=	633nm_Edge
#Hole=	100.021
#Range=	Visible
#Project=	Omar
#Sample=	26-06-23
#Site=	2
#Title=	Organic
#Remark=	
#Date=	26.06.2023 16:20
#Acquired=	26.06.2023 16:20:51
101.018	4068
102.302	4048
103.586	4062
104.869	4140
106.152	4066
107.435	4066
108.717	4058
109.999	4050
111.281	4098
112.563	4038
113.845	4148
115.126	4130
116.407	4086
117.688	4132
118.969	4128
120.249	4192
121.53	4122
122.81	4228
124.09	4224
125.369	4192
126.649	4218
127.928	4206
129.207	4278
130.486	4180
131.765	4156
133.043	4156
134.321	4264
135.599	4194
136.877	4262
138.155	4260
139.432	4264
140.708	4254
141.985	4240
143.261	4298
144.538	4416
145.814	4236
147.09	4318
148.366	4238
149.641	4316
150.916	4362
152.191	4430
153.466	4302
154.741	4304
156.016	4338
157.289	4336
158.563	4390
159.837	4436
161.111	4414
162.385	4436
163.657	4392
164.93	4380
166.203	4400
167.476	4476
168.747	4410
170.019	4394
171.291	4442
172.562	4474
173.834	4392
175.105	4432
176.377	4460
177.646	4386
178.917	4404
180.188	4514
181.457	4448
182.727	4504
183.996	4478
185.266	4450
186.536	4486
187.804	4470
189.073	4516
190.342	4508
191.609	4464
192.878	4640
194.145	4540
195.413	4540
196.681	4572
197.948	4580
199.215	4622
200.481	4594
201.749	4650
203.014	4636
204.281	4664
205.546	4568
206.813	4670
208.077	4716
209.343	4728
210.608	4728
211.873	4702
213.137	4736
214.402	4718
215.666	4622
216.93	4680
218.194	4770
219.458	4816
220.721	4702
221.983	4800
223.247	4766
224.509	4718
225.772	4870
227.034	4806
228.295	4898
229.558	4822
230.819	4910
232.081	4852
233.342	4898
234.602	4894
235.864	4876
237.124	4914
238.384	4952
239.645	4852
240.904	4970
242.164	4924
243.423	4956
244.683	4940
245.941	4924
247.2	4982
248.46	4966
249.717	4988
250.975	4970
252.233	5120
253.492	5074
254.749	5026
256.006	4992
257.263	5004
258.519	4996
259.777	5050
261.033	5004
262.289	5008
263.545	5046
264.8	5048
266.057	5082
267.312	4906
268.567	5012
269.822	5102
271.076	5038
272.331	4992
273.585	5112
274.839	5070
276.094	5074
277.347	5016
278.601	5060
279.854	5092
281.107	5146
282.359	5022
283.612	5062
284.864	5126
286.116	5084
287.368	5162
288.62	5072
289.871	5068
291.123	5166
292.374	5298
293.625	5254
294.875	5254
296.126	5252
297.376	5304
298.626	5286
299.876	5294
301.126	5392
302.375	5364
303.625	5322
304.874	5330
306.122	5342
307.371	5406
308.62	5398
309.866	5440
311.114	5470
312.362	5412
313.61	5336
314.857	5362
316.105	5488
317.352	5424
318.599	5512
319.844	5456
321.09	5466
322.337	5420
323.583	5434
324.828	5456
326.073	5540
327.318	5438
328.563	5486
329.808	5538
331.053	5432
332.296	5498
333.541	5602
334.785	5474
336.029	5608
337.272	5584
338.515	5590
339.759	5704
341.001	5584
342.244	5684
343.486	5642
344.728	5734
345.97	5594
347.212	5704
348.453	5636
349.695	5586
350.936	5648
352.176	5712
353.418	5764
354.659	5788
355.898	5700
357.139	5708
358.378	5770
359.618	5818
360.858	5844
362.097	5774
363.336	5714
364.574	5728
365.813	5758
367.051	5826
368.29	5724
369.527	5736
370.766	5742
372.002	5792
373.241	5766
374.477	5870
375.715	5784
376.951	5824
378.188	5786
379.424	5814
380.66	5778
381.896	5846
383.132	5928
384.367	5826
385.603	5832
386.838	5728
388.072	5836
389.307	5786
390.541	5840
391.776	5860
393.01	5834
394.243	5862
395.477	5852
396.71	5930
397.943	5898
399.177	5874
400.409	5978
401.641	5952
402.875	5984
404.106	5984
405.338	6008
406.57	6038
407.802	6044
409.032	6000
410.263	6034
411.495	6096
412.725	6048
413.955	6190
415.185	6150
416.417	6206
417.646	6192
418.875	6182
420.104	6296
421.335	6232
422.564	6264
423.792	6276
425.02	6264
426.249	6348
427.477	6320
428.706	6432
429.933	6372
431.161	6342
432.388	6416
433.615	6422
434.841	6436
436.068	6426
437.294	6406
438.522	6440
439.748	6456
440.974	6486
442.199	6416
443.425	6514
444.65	6454
445.875	6460
447.1	6402
448.324	6500
449.549	6426
450.773	6470
451.997	6532
453.221	6518
454.445	6606
455.668	6568
456.891	6492
458.114	6534
459.337	6550
460.56	6540
461.782	6576
463.005	6490
464.227	6574
465.447	6514
466.669	6498
467.89	6548
469.112	6716
470.333	6664
471.554	6592
472.774	6578
473.995	6692
475.214	6520
476.434	6658
477.654	6742
478.874	6746
480.093	6734
481.312	6680
482.53	6768
483.749	6842
484.968	6836
486.186	6784
487.405	6856
488.622	6808
489.84	6742
491.057	6886
492.275	6924
493.491	6886
494.708	6974
495.925	6852
497.141	6934
498.357	7036
499.574	6944
500.789	6882
502.005	6960
503.221	6940
504.435	7002
505.65	7004
506.866	7022
508.079	7066
509.294	7012
510.509	6866
511.722	6986
512.936	6918
514.149	6894
515.363	7060
516.577	7082
517.789	7010
519.002	7190
520.214	7110
521.427	7052
522.638	7094
523.851	7206
525.062	7146
526.274	7082
527.485	7202
528.697	7158
529.907	7280
531.118	7174
532.328	7070
533.539	7124
534.748	7156
535.959	7150
537.168	7230
538.379	7156
539.587	7136
540.796	7210
542.005	7146
543.214	7312
544.423	7258
545.631	7314
546.838	7340
548.047	7202
549.254	7294
550.461	7306
551.669	7378
552.876	7322
554.082	7332
555.29	7390
556.496	7312
557.701	7324
558.909	7250
560.114	7474
561.319	7382
562.524	7368
563.731	7334
564.935	7350
566.14	7492
567.344	7418
568.549	7544
569.753	7474
570.957	7510
572.161	7572
573.364	7578
574.568	7432
575.771	7608
576.974	7480
578.177	7602
579.379	7576
580.581	7560
581.785	7616
582.987	7562
584.188	7588
585.39	7684
586.591	7722
587.792	7722
588.993	7712
590.193	7786
591.394	7772
592.594	7802
593.796	7750
594.996	7794
596.195	7876
597.395	7868
598.594	7812
599.793	7890
600.992	7776
602.191	7878
603.39	7958
604.588	7912
605.786	7982
606.984	7936
608.181	7966
609.378	8052
610.576	7986
611.773	8000
612.97	8124
614.167	8156
615.364	8220
616.56	8196
617.757	8168
618.953	8194
620.149	8190
621.343	8168
622.539	8416
623.734	8262
624.929	8266
626.124	8376
627.319	8350
628.512	8362
629.707	8494
630.901	8476
632.095	8512
633.289	8614
634.481	8412
635.675	8550
636.868	8494
638.061	8608
639.253	8768
640.446	8814
641.638	8636
642.831	8752
644.021	8814
645.213	8720
646.405	8804
647.595	8810
648.787	8808
649.978	8798
651.168	8910
652.359	8918
653.549	8820
654.738	8970
655.929	8924
657.117	8940
658.307	8858
659.497	8992
660.685	9010
661.875	9068
663.063	9090
664.252	9096
665.439	9118
666.628	9090
667.816	9232
669.003	9100
670.191	9124
671.378	9204
672.565	9114
673.751	9268
674.939	9262
676.124	9166
677.311	9268
678.497	9286
679.682	9134
680.868	9338
682.053	9398
683.239	9282
684.424	9418
685.609	9432
686.793	9446
687.977	9470
689.162	9396
690.346	9526
691.529	9594
692.714	9340
693.897	9456
695.081	9460
696.264	9648
697.446	9540
698.63	9686
699.812	9674
700.993	9674
702.175	9726
703.358	9712
704.539	9812
705.72	9704
706.901	9914
708.083	9938
709.264	9880
710.444	9904
711.625	9848
712.806	10104
713.986	9978
715.165	9990
716.345	10094
717.524	10090
718.705	10040
719.884	10196
721.062	10164
722.241	10140
723.419	10204
724.597	10212
725.775	10428
726.954	10268
728.132	10428
729.31	10444
730.487	10420
731.664	10594
732.841	10424
734.017	10528
735.194	10526
736.37	10492
737.546	10696
738.722	10626
739.898	10688
741.074	10700
742.249	10616
743.424	10694
744.599	10800
745.774	10644
746.949	10926
748.123	10778
749.298	10802
750.472	10834
751.646	10920
752.819	10970
753.993	10828
755.166	10958
756.34	10868
757.511	10984
758.684	10966
759.857	11168
761.029	11104
762.202	11182
763.374	11058
764.546	11186
765.716	11190
766.888	11106
768.059	11324
769.23	11496
770.401	11398
771.571	11372
772.741	11328
773.912	11482
775.082	11374
776.251	11322
777.421	11592
778.59	11566
779.76	11532
780.928	11616
782.097	11640
783.266	11626
784.434	11864
785.602	11670
786.771	11810
787.938	11830
789.106	11704
790.274	11978
791.44	11654
792.608	11996
793.775	11982
794.941	12002
796.108	12158
797.273	12090
798.44	12076
799.606	12044
800.771	12194
801.937	12118
803.102	12180
804.268	12274
805.432	12244
806.597	12390
807.761	12364
808.926	12434
810.09	12534
811.254	12434
812.417	12636
813.582	12580
814.744	12526
815.908	12646
817.071	12756
818.234	12806
819.396	12776
820.558	12968
821.721	12878
822.883	12942
824.045	13078
825.206	12994
826.367	13168
827.529	13120
828.69	13186
829.85	13236
831.012	13342
832.172	13396
833.332	13430
834.493	13538
835.653	13574
836.812	13518
837.972	13530
839.131	13706
840.29	13732
841.449	13774
842.609	13560
843.767	13738
844.925	13822
846.083	13846
847.242	14002
848.399	14012
849.557	13972
850.714	14020
851.871	14058
853.029	14088
854.186	14146
855.342	14222
856.498	14348
857.654	14294
858.81	14330
859.966	14506
861.122	14354
862.278	14554
863.434	14330
864.589	14542
865.744	14560
866.898	14566
868.053	14790
869.207	14700
870.361	14714
871.515	14716
872.669	14886
873.822	14846
874.976	14886
876.129	14896
877.282	14944
878.435	15002
879.588	15062
880.74	15058
881.893	15038
883.045	15058
884.197	15128
885.349	15114
886.5	15112
887.652	15346
888.802	15238
889.953	15366
891.104	15314
892.254	15498
893.405	15422
894.555	15406
895.706	15358
896.854	15532
898.004	15460
899.154	15512
900.303	15496
901.453	15670
902.6	15782
903.749	15526
904.898	15726
906.047	15776
907.194	15850
908.342	15824
909.49	15816
910.638	15962
911.785	15982
912.932	15898
914.08	15908
915.225	16092
916.372	16210
917.519	16180
918.666	16266
919.811	16074
920.957	16308
922.102	16440
923.248	16510
924.394	16724
925.538	16528
926.684	16498
927.828	16712
928.973	16744
930.118	16486
931.261	16654
932.406	16578
933.549	16868
934.693	17064
935.836	16896
936.979	16962
938.122	17102
939.265	17210
940.407	17090
941.55	17228
942.692	17372
943.835	17414
944.976	17244
946.118	17570
947.259	17492
948.401	17470
949.542	17440
950.682	17762
951.824	17786
952.964	17816
954.105	17858
955.245	17772
956.385	17984
957.525	17960
958.664	17962
959.803	18014
960.944	18100
962.082	18098
963.221	18092
964.36	18352
965.498	18272
966.636	18450
967.774	18346
968.913	18416
970.051	18618
971.188	18591
972.325	18564
973.463	18628
974.6	18846
975.736	18634
976.873	18818
978.009	18824
979.146	18860
980.282	19022
981.418	18910
982.554	19026
983.689	18932
984.824	18912
985.959	19238
987.095	19262
988.23	19042
989.364	19202
990.499	19056
991.633	19316
992.767	19150
993.9	19226
995.034	19342
996.167	19412
997.301	19382
998.434	19518
999.567	19616
1000.7	19512
1001.83	19656
1002.96	19720
1004.1	19754
1005.23	19644
1006.36	19680
1007.49	19654
1008.62	19810
1009.76	19940
1010.89	20070
1012.02	19862
1013.15	20006
1014.28	20026
1015.41	20260
1016.54	19974
1017.67	20382
1018.8	20192
1019.93	20378
1021.06	20312
1022.19	20552
1023.32	20438
1024.44	20618
1025.57	20664
1026.7	20610
1027.83	20708
1028.96	20616
1030.09	20784
1031.21	20588
1032.34	20886
1033.47	20906
1034.6	20738
1035.72	21018
1036.85	21052
1037.98	21238
1039.1	21112
1040.23	21216
1041.35	21280
1042.48	21458
1043.61	21384
1044.73	21440
1045.86	21328
1046.98	21642
1048.11	21612
1049.23	21706
1050.36	21658
1051.48	21726
1052.61	21808
1053.73	21862
1054.85	21784
1055.98	22066
1057.1	21964
1058.22	21906
1059.35	21918
1060.47	22092
1061.59	22172
1062.72	22016
1063.84	22150
1064.96	22300
1066.08	22086
1067.2	22302
1068.33	22210
1069.45	22216
1070.57	22456
1071.69	22292
1072.81	22292
1073.93	22334
1075.05	22426
1076.17	22492
1077.29	22414
1078.41	22276
1079.53	22636
1080.65	22602
1081.77	22350
1082.89	22644
1084.01	22514
1085.13	22326
1086.25	22640
1087.37	22670
1088.48	22520
1089.6	22572
1090.72	22656
1091.84	22612
1092.96	22590
1094.07	22614
1095.19	22382
1096.31	22618
1097.43	22626
1098.54	22656
1099.66	22584
1100.78	22600
1101.89	22544
1103.01	22648
1104.12	22662
1105.24	22510
1106.35	22718
1107.47	22642
1108.59	22668
1109.7	22752
1110.81	22640
1111.93	22750
1113.04	22562
1114.16	22778
1115.27	22626
1116.39	22634
1117.5	22684
1118.61	22652
1119.73	22876
1120.84	22746
1121.95	22786
1123.06	22606
1124.18	22754
1125.29	22898
1126.4	22692
1127.51	22750
1128.63	22752
1129.74	22798
1130.85	22574
1131.96	22890
1133.07	22856
1134.18	23050
1135.29	22942
1136.4	23012
1137.51	22874
1138.62	22966
1139.73	22958
1140.84	23010
1141.95	23166
1143.06	23000
1144.17	22938
1145.28	23082
1146.39	23166
1147.5	23012
1148.61	23160
1149.72	23280
1150.82	23386
1151.93	23080
1153.04	23160
1154.15	23298
1155.26	23324
1156.36	22998
1157.47	23300
1158.58	23416
1159.68	23182
1160.79	23346
1161.9	23136
1163	23022
1164.11	23306
1165.22	23282
1166.32	23202
1167.43	23440
1168.53	23242
1169.64	23306
1170.74	23008
1171.85	22994
1172.95	23164
1174.06	23182
1175.16	23116
1176.26	23144
1177.37	22986
1178.47	22968
1179.58	22900
1180.68	22956
1181.78	22960
1182.88	22926
1183.99	22996
1185.09	22884
1186.19	22870
1187.3	22790
1188.4	22790
1189.5	22726
1190.6	22676
1191.7	22842
1192.8	22408
1193.9	22732
1195.01	22266
1196.11	22531.3
1197.21	22342.9
1198.31	22551.5
1199.41	22224.2
1200.51	22421.1
1201.61	22231.9
1202.71	22306.8
1203.81	22381.4
1204.91	22180.1
1206.01	22091.6
1207.11	21943.6
1208.2	22159.7
1209.3	21863
1210.4	21937
1211.5	21852.2
1212.6	21875.4
1213.7	21797.7
1214.8	21797.9
1215.89	21729.5
1216.99	21780
1218.09	21645.7
1219.18	21748.7
1220.28	21705.7
1221.38	21696.4
1222.48	21450.8
1223.57	21370.2
1224.67	21361
1225.76	21491.3
1226.86	21323.6
1227.96	21338.9
1229.05	21339.2
1230.15	21136.2
1231.24	21198.5
1232.34	21249.6
1233.43	21100.5
1234.53	21086.7
1235.62	21036.1
1236.71	21121.9
1237.81	21038.6
1238.9	20977.7
1240	21058.7
1241.09	20970.4
1242.18	20882.3
1243.28	20893.5
1244.37	20889.9
1245.46	20884.3
1246.56	20833.4
1247.65	20755.5
1248.74	20690.8
1249.83	20677.7
1250.93	20794
1252.02	20703.4
1253.11	20595.8
1254.2	20533.7
1255.29	20546.9
1256.38	20528.3
1257.47	20420.5
1258.56	20393.1
1259.65	20448.7
1260.74	20381.1
1261.84	20375.8
1262.92	20311.3
1264.01	20287.9
1265.1	20296.6
1266.19	20231.8
1267.28	20178.4
1268.37	20161.8
1269.46	20158.2
1270.55	20163.4
1271.64	20088.7
1272.73	20125.3
1273.82	20014.7
1274.9	20076.5
1275.99	19950.2
1277.08	19928.8
1278.17	19917.6
1279.26	19956.1
1280.34	19881.2
1281.43	19839.6
1282.52	19753.3
1283.6	19644.4
1284.69	19535.4
1285.78	19607.3
1286.86	19600.3
1287.95	19555.4
1289.03	19542.2
1290.12	19539.2
1291.21	19355.4
1292.29	19311
1293.38	19194.4
1294.46	19278.8
1295.55	19257.1
1296.63	19385.6
1297.71	19412.6
1298.8	19167.1
1299.88	19099.1
1300.97	19132.8
1302.05	19052
1303.13	18830.8
1304.22	18899.4
1305.3	18979.5
1306.38	18879.9
1307.34	18688
1308.43	18704
1309.52	18750
1310.61	18692
1311.7	18674
1312.78	18530
1313.87	18476
1314.96	18442
1316.05	18408
1317.13	18398
1318.22	18222
1319.3	18310
1320.39	18208
1321.48	18346
1322.56	18108
1323.65	18142
1324.73	17918
1325.82	17966
1326.9	17790
1327.99	18012
1329.07	17744
1330.16	17748
1331.24	17672
1332.33	17574
1333.41	17544
1334.5	17534
1335.58	17380
1336.66	17390
1337.75	17120
1338.83	17468
1339.91	17288
1341	17162
1342.08	17312
1343.16	17196
1344.25	16988
1345.33	17224
1346.41	17006
1347.49	16900
1348.57	16976
1349.65	16824
1350.74	16718
1351.82	16956
1352.9	16698
1353.98	16620
1355.06	16674
1356.14	16556
1357.22	16628
1358.3	16598
1359.38	16442
1360.46	16536
1361.54	16486
1362.62	16382
1363.7	16318
1364.78	16312
1365.86	16300
1366.94	16298
1368.02	16050
1369.09	16176
1370.17	15952
1371.25	15976
1372.33	16146
1373.41	15946
1374.48	16068
1375.56	15904
1376.64	15822
1377.72	15838
1378.79	15874
1379.87	15806
1380.95	15800
1382.02	15522
1383.1	15640
1384.17	15608
1385.25	15612
1386.33	15570
1387.4	15532
1388.48	15600
1389.55	15594
1390.63	15482
1391.7	15192
1392.78	15408
1393.85	15146
1394.93	15138
1396	15146
1397.07	15218
1398.15	15356
1399.22	15218
1400.3	15074
1401.37	15084
1402.44	15106
1403.52	14990
1404.59	15238
1405.66	14992
1406.73	14886
1407.81	14826
1408.88	14750
1409.95	14656
1411.02	14688
1412.09	14596
1413.17	14744
1414.24	14636
1415.31	14672
1416.38	14674
1417.45	14588
1418.52	14516
1419.59	14516
1420.66	14484
1421.73	14460
1422.8	14436
1423.87	14352
1424.94	14374
1426.01	14358
1427.08	14384
1428.15	14430
1429.22	14258
1430.29	14318
1431.35	14064
1432.42	14328
1433.49	14130
1434.56	14020
1435.63	14178
1436.7	13976
1437.76	13948
1438.83	14068
1439.9	14078
1440.96	13858
1442.03	13954
1443.1	13860
1444.17	13934
1445.23	13862
1446.3	13936
1447.36	13888
1448.43	13798
1449.49	13786
1450.56	13700
1451.63	13626
1452.69	13714
1453.76	13766
1454.82	13704
1455.89	13600
1456.95	13624
1458.01	13688
1459.08	13638
1460.14	13522
1461.21	13656
1462.27	13482
1463.34	13512
1464.4	13500
1465.46	13576
1466.52	13498
1467.59	13410
1468.65	13516
1469.71	13416
1470.77	13304
1471.84	13404
1472.9	13350
1473.96	13380
1475.02	13476
1476.08	13272
1477.15	13324
1478.21	13336
1479.27	13284
1480.33	13260
1481.39	13198
1482.45	13138
1483.51	13208
1484.57	13110
1485.63	13122
1486.69	13082
1487.75	13096
1488.81	13024
1489.87	13022
1490.93	12974
1491.99	12984
1493.05	12888
1494.1	12996
1495.16	12994
1496.22	12874
1497.28	12848
1498.34	12956
1499.4	12848
1500.45	12906
1501.51	12842
1502.57	12804
1503.63	12692
1504.68	12704
1505.74	12798
1506.8	12814
1507.85	12646
1508.91	12718
1509.97	12758
1511.02	12696
1512.08	12552
1513.13	12610
1514.19	12488
1515.24	12564
1516.3	12594
1517.35	12406
1518.41	12456
1519.46	12466
1520.52	12460
1521.57	12410
1522.63	12380
1523.68	12478
1524.73	12458
1525.79	12288
1526.84	12206
1527.9	12260
1528.95	12270
1530	12276
1531.06	12032
1532.11	12122
1533.16	12048
1534.21	12152
1535.26	12260
1536.32	12094
1537.37	12042
1538.42	12052
1539.47	12018
1540.52	12010
1541.57	11930
1542.63	11790
1543.68	11982
1544.73	11878
1545.78	11944
1546.83	11864
1547.88	11802
1548.93	11854
1549.98	11848
1551.03	12098
1552.08	11738
1553.13	11772
1554.18	11810
1555.23	11658
1556.27	11714
1557.32	11672
1558.37	11598
1559.42	11650
1560.47	11694
1561.52	11694
1562.56	11650
1563.61	11684
1564.66	11594
1565.71	11616
1566.75	11602
1567.8	11610
1568.85	11534
1569.9	11584
1570.94	11516
1571.99	11460
1573.03	11536
1574.08	11540
1575.13	11408
1576.17	11316
1577.22	11424
1578.26	11432
1579.31	11590
1580.35	11526
1581.4	11506
1582.44	11436
1583.49	11428
1584.53	11380
1585.58	11262
1586.62	11336
1587.66	11416
1588.71	11236
1589.75	11346
1590.8	11218
1591.84	11348
1592.88	11318
1593.93	11366
1594.97	11258
1596.01	11280
1597.05	11332
1598.1	11212
1599.14	11158
1600.18	11284
1601.22	11208
1602.26	11212
1603.31	11226
1604.35	11224
1605.39	11188
1606.43	11156
1607.47	11246
1608.51	11228
1609.55	11192
1610.59	11208
1611.63	11134
1612.67	11210
1613.71	11200
1614.75	11274
1615.79	11086
1616.83	11232
1617.87	11136
1618.91	11102
1619.95	11136
1620.99	11086
1622.02	11014
1623.06	11066
1624.1	11072
1625.14	11150
1626.18	11100
1627.21	11018
1628.25	10984
1629.29	11036
1630.33	10986
1631.36	11150
1632.4	11184
1633.44	10962
1634.48	11124
1635.51	10930
1636.55	10894
1637.58	10992
1638.62	11024
1639.66	11084
1640.69	10898
1641.73	10930
1642.76	10826
1643.8	10932
1644.83	10868
1645.87	10856
1646.9	10904
1647.94	10866
1648.97	10882
1650	10830
1651.04	10856
1652.07	10764
1653.11	10780
1654.14	10710
1655.17	10692
1656.21	10664
1657.24	10634
1658.27	10726
1659.31	10636
1660.34	10676
1661.37	10516
1662.4	10664
1663.43	10514
1664.47	10524
1665.5	10522
1666.53	10600
1667.56	10574
1668.59	10640
1669.62	10468
1670.66	10462
1671.69	10448
1672.72	10540
1673.75	10500
1674.78	10410
1675.81	10482
1676.84	10368
1677.87	10394
1678.9	10402
1679.93	10440
1680.96	10370
1681.98	10354
1683.01	10350
1684.04	10414
1685.07	10382
1686.1	10352
1687.13	10374
1688.16	10278
1689.19	10214
1690.21	10228
1691.24	10228
1692.27	10240
1693.3	10126
1694.32	10244
1695.35	10270
1696.38	10092
1697.4	10154
1698.43	10232
1699.46	9988
1700.48	10148
1701.51	10146
1702.54	10176
1703.56	10104
1704.59	10096
1705.61	10148
1706.64	10084
1707.66	10144
1708.69	10068
1709.71	9960
1710.74	10008
1711.76	10082
1712.79	9896
1713.81	9962
1714.83	9986
1715.86	10174
1716.88	9928
1717.91	9874
1718.93	9944
1719.95	9874
1720.98	9898
1722	9904
1723.02	9904
1724.04	9752
1725.07	9862
1726.09	9844
1727.11	9852
1728.13	9892
1729.15	9730
1730.18	9854
1731.2	9776
1732.22	9808
1733.24	9808
1734.26	9814
1735.28	10040
1736.3	9898
1737.32	9766
1738.34	9772
1739.36	9780
1740.38	9842
1741.4	9824
1742.42	9744
1743.44	9654
1744.46	9746
1745.48	9678
1746.5	9706
1747.52	9810
1748.54	9640
1749.56	9626
1750.58	9678
1751.6	9718
1752.61	9516
1753.63	9744
1754.65	9756
1755.67	9688
1756.68	9598
1757.7	9732
1758.72	9568
1759.74	9610
1760.75	9606
1761.77	9568
1762.79	9698
1763.8	9682
1764.82	9632
1765.84	9594
1766.85	9582
1767.87	9546
1768.88	9682
1769.9	9638
1770.91	9668
1771.93	9710
1772.94	9694
1773.96	9524
1774.97	9704
1775.99	9480
1777	9654
1778.02	9562
1779.03	9556
1780.04	9498
1781.06	9648
1782.07	9592
1783.09	9460
1784.1	9544
1785.11	9536
1786.13	9496
1787.14	9544
1788.15	9508
1789.16	9518
1790.18	9516
1791.19	9454
1792.2	9454
1793.21	9454
1794.22	9486
1795.23	9548
1796.25	9422
1797.26	9462
1798.27	9470
1799.28	9444
1800.29	9476
1801.3	9316
1802.31	9378
1803.32	9504
1804.33	9456
1805.34	9382
1806.35	9488
1807.36	9374
1808.37	9476
1809.38	9320
1810.39	9134
1811.4	9330
1812.41	9400
1813.42	9286
1814.43	9228
1815.43	9284
1816.44	9392
1817.45	9220
1818.46	9334
1819.47	9300
1820.47	9362
1821.48	9260
1822.49	9252
1823.49	9198
1824.5	9110
1825.51	9050
1826.52	9376
1827.52	9188
1828.53	9132
1829.54	9236
1830.54	9226
1831.55	9084
1832.55	9098
1833.56	9190
1834.56	9150
1835.57	9084
1836.57	9010
1837.58	9178
1838.58	9168
1839.59	9046
1840.59	9048
1841.6	8988
1842.6	9030
1843.61	8922
1844.61	9036
1845.61	8966
1846.62	9024
1847.62	8992
1848.62	9006
1849.63	9042
1850.63	9036
1851.63	8934
1852.64	9088
1853.64	8996
1854.64	8944
1855.64	8952
1856.64	8798
1857.65	8966
1858.65	8826
1859.65	9010
1860.65	9000
1861.65	8844
1862.65	8942
1863.65	8866
1864.66	8884
1865.66	8888
1866.66	8862
1867.66	8770
1868.66	8920
1869.66	8924
1870.66	8988
1871.66	8990
1872.66	8784
1873.66	8818
1874.66	8806
1875.65	8846
1876.65	8766
1877.65	8932
1878.65	8794
1879.65	8726
1880.65	8746
1881.65	8778
1882.64	8746
1883.64	8722
1884.64	8762
1885.64	8730
1886.63	8832
1887.63	8726
1888.63	8688
1889.63	8792
1890.62	8688
1891.62	8758
1892.62	8714
1893.61	8780
1894.61	8660
1895.6	8708
1896.6	8778
1897.6	8716
1898.59	8760
1899.59	8692
1900.58	8704
1901.58	8736
1902.57	8674
1903.57	8760
1904.56	8702
1905.56	8756
1906.55	8716
1907.54	8648
1908.54	8744
1909.53	8672
1910.53	8708
1911.52	8642
1912.51	8702
1913.51	8654
1914.5	8672
1915.49	8634
1916.49	8676
1917.48	8640
1918.47	8728
1919.46	8694
1920.46	8636
1921.45	8724
1922.44	8628
1923.43	8606
1924.42	8670
1925.41	8560
1926.41	8618
1927.4	8616
1928.39	8650
1929.38	8466
1930.37	8562
1931.36	8676
1932.35	8682
1933.34	8562
1934.33	8478
1935.32	8526
1936.31	8504
1937.3	8482
1938.29	8466
1939.28	8592
1940.27	8542
1941.26	8684
1942.24	8532
1943.23	8546
1944.22	8542
1945.21	8552
1946.2	8416
1947.19	8468
1948.17	8438
1949.16	8440
1950.15	8415
1951.14	8390
1952.13	8380
1953.11	8488
1954.1	8360
1955.09	8404
1956.07	8444
1957.06	8474
1958.05	8486
1959.03	8410
1960.02	8402
1961	8380
1961.99	8258
1962.98	8440
1963.96	8338
1964.95	8340
1965.93	8330
1966.92	8274
1967.9	8254
1968.89	8364
1969.87	8320
1970.85	8334
1971.84	8268
1972.82	8396
1973.81	8398
1974.79	8384
1975.78	8160
1976.76	8376
1977.74	8286
1978.73	8286
1979.71	8312
1980.69	8242
1981.67	8246
1982.66	8246
1983.64	8252
1984.62	8230
1985.6	8274
1986.59	8352
1987.57	8254
1988.55	8292
1989.53	8134
1990.51	8198
1991.49	8258
1992.47	8202
1993.45	8204
1994.44	8196
1995.42	8248
1996.4	8134
1997.38	8186
1998.36	8184
1999.34	8118
2000.32	8130
2001.3	8102
2002.28	8116
2003.26	8116
2004.24	8174
2005.22	8136
2006.19	8198
2007.17	8134
2008.15	8258
2009.13	8078
2010.11	8096
2011.09	8116
2012.06	8134
2013.04	8104
2014.02	8178
2015	8092
2015.98	8116
2016.95	8094
2017.93	8068
2018.91	8098
2019.88	8156
2020.86	8072
2021.84	7988
2022.81	8032
2023.79	8176
2024.77	8150
2025.74	8086
2026.72	8060
2027.69	8018
2028.67	8088
2029.65	8048
2030.62	7956
2031.6	8096
2032.57	8048
2033.55	8086
2034.52	8118
2035.5	8042
2036.47	8056
2037.44	7996
2038.42	7988
2039.39	8036
2040.36	7944
2041.34	7990
2042.31	7994
2043.29	8130
2044.26	7950
2045.23	7968
2046.2	8122
2047.18	7932
2048.15	7998
2049.12	7966
2050.09	7902
2051.07	7952
2052.04	7902
2053.01	7960
2053.98	7898
2054.95	7958
2055.93	7898
2056.9	7888
2057.87	7864
2058.84	7954
2059.81	7828
2060.78	7874
2061.75	7938
2062.72	7754
2063.69	7846
2064.66	7830
2065.63	7854
2066.6	7864
2067.57	7874
2068.54	7826
2069.51	7810
2070.48	7796
2071.45	7764
2072.42	7836
2073.38	7870
2074.35	7844
2075.32	7792
2076.29	7838
2077.26	7792
2078.23	7794
2079.19	7744
2080.16	7722
2081.13	7738
2082.1	7778
2083.06	7896
2084.03	7758
2085	7752
2085.96	7830
2086.93	7742
2087.9	7758
2088.86	7736
2089.83	7816
2090.8	7926
2091.76	7694
2092.73	7772
2093.69	7680
2094.66	7710
2095.62	7826
2096.59	7736
2097.55	7800
2098.52	7700
2099.48	7690
2100.45	7730
2101.41	7736
2102.38	7630
2103.34	7712
2104.31	7718
2105.27	7726
2106.23	7654
2107.2	7698
2108.16	7632
2109.12	7604
2110.09	7574
2111.05	7680
2112.01	7622
2112.98	7606
2113.94	7642
2114.9	7658
2115.86	7604
2116.82	7544
2117.79	7560
2118.75	7556
2119.71	7690
2120.67	7598
2121.63	7556
2122.59	7588
2123.55	7542
2124.52	7578
2125.48	7558
2126.44	7558
2127.4	7606
2128.36	7616
2129.32	7662
2130.28	7462
2131.24	7500
2132.2	7530
2133.16	7466
2134.12	7496
2135.08	7500
2136.04	7510
2136.99	7546
2137.95	7572
2138.91	7550
2139.87	7506
2140.83	7560
2141.79	7430
2142.75	7386
2143.7	7498
2144.66	7520
2145.62	7419.58
2146.58	7521.59
2147.53	7358.57
2148.49	7440.5
2149.45	7499.21
2150.41	7338.17
2151.36	7421.79
2152.32	7459.31
2153.28	7337.18
2154.23	7393.62
2155.19	7341.98
2156.14	7290.26
2157.1	7381.09
2158.06	7345.58
2159.01	7363.36
2159.97	7371.86
2160.92	7281.52
2161.88	7346.48
2162.83	7344.52
2163.79	7216.24
2164.74	7318.34
2165.7	7293.63
2166.65	7302.34
2167.61	7226.97
2168.56	7326.6
2169.51	7272.29
2170.47	7328.23
2171.42	7288.04
2172.38	7226.05
2173.33	7263.58
2174.28	7208.74
2175.24	7161.29
2176.19	7201.18
2177.14	7147.81
2178.09	7249.2
2179.05	7223.65
2180	7225.26
2180.95	7180.38
2181.9	7237.37
2182.86	7157.25
2183.81	7109.64
2184.76	7164.08
2185.71	7215.15
2186.66	7162.95
2187.61	7214.76
2188.57	7172.85
2189.52	7179.82
2190.47	7142.9
2191.42	7146.94
2192.37	7146.32
2193.32	7179.07
2194.27	7111.41
2195.22	7087.88
2196.17	7135.49
2197.12	7079.93
2198.07	7053.15
2199.02	7150.81
2199.97	7114.52
2200.92	7092.4
2201.87	7041.76
2202.82	7062.72
2203.76	7046.54
2204.71	7109.05
2205.66	7029
2206.61	7050
2207.56	7061.24
2208.51	7135.82
2209.45	7089
2210.4	7095.38
2211.35	7086
2212.3	7053.34
2213.25	7087.23
2214.19	7053.38
2215.14	7089.8
2216.09	7080.44
2217.03	7055.99
2217.98	7009.05
2218.93	7012.76
2219.87	7057.57
2220.82	7039.21
2221.77	6959.01
2222.71	7024.63
2223.66	7001.44
2224.6	6989.15
2225.55	7009.18
2226.49	7024.73
2227.44	7003.85
2228.38	6983.38
2229.33	6989.58
2230.27	7015.84
2231.22	6976.96
2232.16	6994.36
2233.11	7068.8
2234.05	7059.51
2235	7090.64
2235.94	7052.76
2236.88	7010.7
2237.83	7018.06
2238.77	6990.67
2239.72	6992.71
2240.66	7033.72
2241.6	7055.18
2242.07	7038
2243.02	7044
2243.97	7032
2244.92	7070
2245.87	7070
2246.81	7036
2247.76	7056
2248.71	6990
2249.65	6980
2250.6	7036
2251.55	7142
2252.49	7012
2253.44	6874
2254.39	7000
2255.33	7014
2256.28	7018
2257.22	7036
2258.17	7030
2259.12	6944
2260.06	6986
2261.01	7046
2261.95	6988
2262.9	6988
2263.84	6806
2264.78	7070
2265.73	6976
2266.67	6952
2267.62	6880
2268.56	7024
2269.51	7050
2270.45	6916
2271.39	6830
2272.34	6914
2273.28	6850
2274.22	6944
2275.17	6976
2276.11	6946
2277.05	6962
2277.99	6884
2278.94	6932
2279.88	6830
2280.82	6966
2281.76	6766
2282.71	6922
2283.65	6814
2284.59	6946
2285.53	6958
2286.47	6822
2287.41	6754
2288.35	6884
2289.3	6890
2290.24	6896
2291.18	6874
2292.12	6824
2293.06	6916
2294	6804
2294.94	6834
2295.88	6844
2296.82	6870
2297.76	6808
2298.7	6862
2299.64	6776
2300.58	6802
2301.52	6806
2302.46	6854
2303.39	6890
2304.33	6758
2305.27	6780
2306.21	6790
2307.15	6832
2308.09	6796
2309.02	6728
2309.96	6790
2310.9	6638
2311.84	6860
2312.77	6762
2313.71	6714
2314.65	6712
2315.59	6700
2316.52	6684
2317.46	6742
2318.4	6618
2319.33	6720
2320.27	6664
2321.21	6678
2322.14	6644
2323.08	6654
2324.01	6694
2324.95	6724
2325.89	6640
2326.82	6636
2327.76	6700
2328.69	6570
2329.63	6662
2330.56	6640
2331.5	6580
2332.43	6618
2333.36	6612
2334.3	6680
2335.23	6610
2336.17	6684
2337.1	6714
2338.03	6678
2338.97	6622
2339.9	6638
2340.83	6486
2341.77	6502
2342.7	6628
2343.63	6576
2344.57	6618
2345.5	6594
2346.43	6536
2347.36	6558
2348.3	6464
2349.23	6586
2350.16	6626
2351.09	6638
2352.02	6552
2352.95	6598
2353.89	6620
2354.82	6550
2355.75	6534
2356.68	6476
2357.61	6554
2358.54	6528
2359.47	6570
2360.4	6464
2361.33	6524
2362.26	6630
2363.19	6446
2364.12	6484
2365.05	6540
2365.98	6412
2366.91	6614
2367.84	6514
2368.77	6452
2369.7	6584
2370.63	6504
2371.56	6538
2372.48	6526
2373.41	6450
2374.34	6528
2375.27	6428
2376.2	6510
2377.12	6430
2378.05	6478
2378.98	6376
2379.91	6462
2380.84	6532
2381.76	6446
2382.69	6366
2383.62	6416
2384.54	6402
2385.47	6384
2386.4	6422
2387.32	6398
2388.25	6382
2389.18	6422
2390.1	6398
2391.03	6404
2391.95	6442
2392.88	6418
2393.8	6342
2394.73	6428
2395.65	6338
2396.58	6368
2397.5	6366
2398.43	6392
2399.35	6336
2400.28	6358
2401.2	6328
2402.13	6348
2403.05	6324
2403.97	6290
2404.9	6292
2405.82	6262
2406.75	6246
2407.67	6334
2408.59	6340
2409.51	6282
2410.44	6256
2411.36	6314
2412.28	6298
2413.21	6276
2414.13	6430
2415.05	6224
2415.97	6206
2416.9	6248
2417.82	6158
2418.74	6146
2419.66	6170
2420.58	6284
2421.5	6130
2422.42	6204
2423.35	6264
2424.27	6162
2425.19	6282
2426.11	6094
2427.03	6184
2427.95	6120
2428.87	6150
2429.79	6184
2430.71	6180
2431.63	6204
2432.55	6206
2433.47	6072
2434.39	6130
2435.31	6156
2436.23	6134
2437.14	6188
2438.06	6046
2438.98	6068
2439.9	6236
2440.82	6044
2441.74	6196
2442.66	6046
2443.57	6066
2444.49	6108
2445.41	6142
2446.33	6048
2447.24	6140
2448.16	6006
2449.08	6010
2450	6130
2450.91	6008
2451.83	6104
2452.75	6016
2453.66	5962
2454.58	6052
2455.5	5984
2456.41	6012
2457.33	6060
2458.24	6048
2459.16	6042
2460.08	5962
2460.99	6016
2461.91	5970
2462.82	5952
2463.74	5998
2464.65	6026
2465.57	6098
2466.48	5992
2467.4	5964
2468.31	6002
2469.22	6020
2470.14	5882
2471.05	5990
2471.97	5980
2472.88	5992
2473.79	5952
2474.71	5900
2475.62	5932
2476.53	5892
2477.45	5982
2478.36	5944
2479.27	5848
2480.19	5936
2481.1	5948
2482.01	5950
2482.92	5900
2483.83	5850
2484.75	5860
2485.66	5860
2486.57	5782
2487.48	5914
2488.39	5840
2489.3	5760
2490.22	5822
2491.13	5762
2492.04	5728
2492.95	5760
2493.86	5790
2494.77	5756
2495.68	5776
2496.59	5846
2497.5	5776
2498.41	5774
2499.32	5776
2500.23	5788
2501.14	5720
2502.05	5754
2502.96	5646
2503.87	5664
2504.78	5734
2505.68	5636
2506.59	5728
2507.5	5668
2508.41	5774
2509.32	5732
2510.23	5670
2511.14	5652
2512.04	5702
2512.95	5664
2513.86	5686
2514.77	5568
2515.67	5706
2516.58	5626
2517.49	5636
2518.39	5658
2519.3	5686
2520.21	5666
2521.11	5686
2522.02	5562
2522.93	5598
2523.83	5578
2524.74	5504
2525.65	5610
2526.55	5622
2527.46	5568
2528.36	5530
2529.27	5566
2530.17	5566
2531.08	5592
2531.98	5516
2532.89	5550
2533.79	5562
2534.7	5622
2535.6	5544
2536.51	5594
2537.41	5464
2538.32	5526
2539.22	5538
2540.12	5576
2541.03	5540
2541.93	5500
2542.83	5422
2543.74	5456
2544.64	5438
2545.54	5548
2546.45	5416
2547.35	5418
2548.25	5530
2549.15	5326
2550.06	5406
2550.96	5338
2551.86	5388
2552.76	5380
2553.66	5438
2554.56	5352
2555.47	5424
2556.37	5434
2557.27	5370
2558.17	5310
2559.07	5366
2559.97	5368
2560.87	5392
2561.77	5280
2562.67	5310
2563.58	5340
2564.47	5380
2565.38	5298
2566.27	5272
2567.18	5296
2568.07	5306
2568.97	5314
2569.87	5250
2570.77	5254
2571.67	5226
2572.57	5290
2573.47	5324
2574.37	5292
2575.27	5200
2576.17	5270
2577.06	5358
2577.96	5218
2578.86	5256
2579.76	5222
2580.66	5280
2581.55	5230
2582.45	5288
2583.35	5296
2584.25	5130
2585.14	5232
2586.04	5278
2586.94	5190
2587.83	5154
2588.73	5240
2589.63	5240
2590.52	5264
2591.42	5180
2592.32	5226
2593.21	5114
2594.11	5174
2595	5092
2595.9	5120
2596.8	5100
2597.69	5138
2598.59	5042
2599.48	5036
2600.38	5060
2601.27	5112
2602.17	5110
2603.06	5120
2603.95	4996
2604.85	5092
2605.74	5066
2606.64	5082
2607.53	5080
2608.42	5072
2609.32	5026
2610.21	5064
2611.1	5098
2612	5066
2612.89	5018
2613.78	4972
2614.68	5054
2615.57	4966
2616.46	5002
2617.36	4932
2618.25	5008
2619.14	4906
2620.03	4902
2620.92	5004
2621.82	4948
2622.71	4966
2623.6	4980
2624.49	4920
2625.38	4884
2626.27	4864
2627.16	4810
2628.05	4860
2628.95	4892
2629.84	4894
2630.73	4916
2631.62	4820
2632.51	4812
2633.4	4950
2634.29	4836
2635.18	4900
2636.07	4864
2636.96	4914
2637.85	4866
2638.74	4812
2639.62	4886
2640.51	4754
2641.4	4906
2642.29	4738
2643.18	4770
2644.07	4720
2644.96	4810
2645.85	4710
2646.73	4806
2647.62	4696
2648.51	4748
2649.4	4766
2650.28	4786
2651.17	4704
2652.06	4772
2652.95	4668
2653.83	4724
2654.72	4722
2655.61	4752
2656.5	4756
2657.38	4700
2658.27	4734
2659.15	4670
2660.04	4688
2660.93	4690
2661.81	4692
2662.7	4578
2663.58	4606
2664.47	4770
2665.35	4612
2666.24	4658
2667.13	4734
2668.01	4582
2668.9	4610
2669.78	4644
2670.66	4594
2671.55	4590
2672.43	4646
2673.32	4586
2674.2	4676
2675.09	4648
2675.97	4662
2676.85	4684
2677.74	4606
2678.62	4614
2679.5	4600
2680.39	4586
2681.27	4630
2682.15	4570
2683.04	4588
2683.92	4566
2684.8	4588
2685.68	4588
2686.57	4506
2687.45	4548
2688.33	4542
2689.21	4532
2690.09	4484
2690.98	4582
2691.86	4508
2692.74	4504
2693.62	4408
2694.5	4570
2695.38	4546
2696.26	4482
2697.15	4522
2698.03	4500
2698.91	4360
2699.79	4426
2700.67	4434
2701.55	4390
2702.43	4456
2703.31	4446
2704.19	4406
2705.07	4390
2705.95	4486
2706.83	4422
2707.7	4400
2708.58	4370
2709.46	4352
2710.34	4378
2711.22	4392
2712.1	4356
2712.98	4384
2713.86	4402
2714.73	4328
2715.61	4370
2716.49	4370
2717.37	4322
2718.25	4354
2719.12	4322
2720	4362
2720.88	4336
2721.76	4290
2722.63	4272
2723.51	4364
2724.39	4244
2725.26	4280
2726.14	4310
2727.02	4238
2727.89	4208
2728.77	4226
2729.64	4222
2730.52	4206
2731.4	4292
2732.27	4248
2733.15	4256
2734.02	4150
2734.9	4130
2735.77	4272
2736.65	4148
2737.52	4186
2738.4	4182
2739.27	4096
2740.15	4192
2741.02	4234
2741.9	4156
2742.77	4148
2743.64	4182
2744.52	4098
2745.39	4090
2746.27	4168
2747.14	4084
2748.01	4112
2748.89	4084
2749.76	4082
2750.63	4204
2751.51	4102
2752.38	4036
2753.25	4082
2754.12	4202
2755	3992
2755.87	4040
2756.74	4034
2757.61	4060
2758.48	4034
2759.35	4046
2760.23	4086
2761.1	4022
2761.97	3964
2762.84	3998
2763.71	4024
2764.58	4076
2765.45	3980
2766.32	4028
2767.19	4040
2768.07	3968
2768.94	3982
2769.81	3982
2770.68	3990
2771.55	4048
2772.42	3998
2773.29	3982
2774.16	3994
2775.02	3894
2775.89	3970
2776.76	4008
2777.63	3962
2778.5	3988
2779.37	3980
2780.24	3878
2781.11	3914
2781.98	3880
2782.84	3896
2783.71	3926
2784.58	3912
2785.45	3928
2786.32	3932
2787.18	3836
2788.05	4016
2788.92	3900
2789.79	3882
2790.65	3852
2791.52	3866
2792.39	3858
2793.25	3830
2794.12	3840
2794.99	3828
2795.85	3886
2796.72	3830
2797.59	3804
2798.45	3800
2799.32	3804
2800.18	3824
2801.05	3834
2801.92	3796
2802.78	3808
2803.65	3812
2804.51	3816
2805.38	3812
2806.24	3740
2807.11	3744
2807.97	3786
2808.84	3794
2809.7	3746
2810.57	3816
2811.43	3742
2812.29	3716
2813.16	3738
2814.02	3708
2814.88	3778
2815.75	3676
2816.61	3728
2817.47	3722
2818.34	3694
2819.2	3752
2820.06	3670
2820.93	3716
2821.79	3676
2822.65	3656
2823.51	3750
2824.38	3620
2825.24	3640
2826.1	3710
2826.96	3684
2827.82	3622
2828.69	3642
2829.55	3660
2830.41	3696
2831.27	3546
2832.13	3568
2832.99	3654
2833.85	3620
2834.71	3564
2835.57	3674
2836.44	3572
2837.3	3578
2838.16	3630
2839.02	3566
2839.88	3630
2840.74	3526
2841.6	3522
2842.46	3554
2843.32	3550
2844.18	3570
2845.03	3560
2845.89	3548
2846.75	3540
2847.61	3540
2848.47	3418
2849.33	3492
2850.19	3474
2851.05	3520
2851.9	3494
2852.76	3480
2853.62	3494
2854.48	3470
2855.34	3490
2856.19	3432
2857.05	3452
2857.91	3464
2858.77	3452
2859.62	3426
2860.48	3426
2861.34	3390
2862.19	3426
2863.05	3382
2863.91	3408
2864.76	3426
2865.62	3378
2866.48	3344
2867.33	3350
2868.19	3402
2869.04	3364
2869.9	3336
2870.76	3248
2871.61	3374
2872.47	3358
2873.32	3318
2874.18	3340
2875.03	3390
2875.89	3288
2876.74	3240
2877.6	3370
2878.45	3288
2879.31	3314
2880.16	3328
2881.01	3270
2881.87	3292
2882.72	3318
2883.58	3246
2884.43	3342
2885.28	3300
2886.14	3336
2886.99	3306
2887.84	3288
2888.7	3304
2889.55	3288
2890.4	3288
2891.25	3182
2892.11	3260
2892.96	3304
2893.81	3246
2894.66	3268
2895.52	3254
2896.37	3218
2897.22	3212
2898.07	3240
2898.92	3240
2899.77	3240
2900.62	3280
2901.48	3254
2902.33	3188
2903.18	3178
2904.03	3114
2904.88	3252
2905.73	3130
2906.58	3242
2907.43	3246
2908.28	3172
2909.13	3208
2909.98	3224
2910.83	3186
2911.68	3176
2912.53	3106
2913.38	3142
2914.23	3146
2915.08	3120
2915.93	3226
2916.78	3174
2917.63	3112
2918.47	3170
2919.32	3108
2920.17	3108
2921.02	3132
2921.87	3136
2922.72	3154
2923.56	3146
2924.41	3150
2925.26	3106
2926.11	3098
2926.95	3126
2927.8	3132
2928.65	3074
2929.5	3118
2930.34	3122
2931.19	3040
2932.04	3028
2932.88	3094
2933.73	3036
2934.58	3094
2935.42	3104
2936.27	3100
2937.11	3084
2937.96	3122
2938.81	3000
2939.65	3098
2940.5	3024
2941.34	3038
2942.19	3068
2943.03	3074
2943.88	3034
2944.72	2966
2945.57	3040
2946.41	2956
2947.26	3008
2948.1	3002
2948.95	3008
2949.79	2994
2950.64	2940
2951.48	3024
2952.32	3046
2953.17	2966
2954.01	2904
2954.85	3018
2955.7	3048
2956.54	2980
2957.38	3058
2958.23	2930
2959.07	3014
2959.91	3000
2960.75	2972
2961.6	2924
2962.44	2948
2963.28	2932
2964.12	2970
2964.97	2926
2965.81	2908
2966.65	2968
2967.49	2918
2968.33	2986
2969.17	2886
2970.02	2954
2970.86	2924
2971.7	2938
2972.54	2882
2973.38	2864
2974.22	2894
2975.06	2882
2975.9	2890
2976.74	2900
2977.58	2852
2978.42	2876
2979.26	2892
2980.1	2908
2980.94	2874
2981.78	2800
2982.62	2896
2983.46	2790
2984.3	2884
2985.14	2866
2985.98	2846
2986.82	2772
2987.66	2866
2988.49	2830
2989.33	2816
2990.17	2778
2991.01	2854
2991.85	2878
2992.69	2794
2993.52	2788
2994.36	2810
2995.2	2834
2996.04	2802
2996.87	2732
2997.71	2820
2998.55	2726
2999.39	2732
