#Acq. time (s)=	10
#Accumulations=	1
#Range (cm-¹)=	100...3000
#Windows=	3
#Autofocus=	Off
#AutoExposure=	Off
#Spike filter=	Off
#Delay time (s)=	0
#Binning=	1
#Readout mode=	Signal
#DeNoise=	Off
#ICS correction=	Off
#Dark correction=	Off
#Inst. Process=	Off
#Instrument=	LabRAM HR Evol
#Detector=	Syncerity OE
#Objective=	x100_VIS
#Grating=	600 (500nm)
#ND Filter=	3.2%
#Laser=	633nm_Edge
#Hole=	100.021
#Range=	Visible
#Project=	Omar
#Sample=	26-06-23
#Site=	2
#Title=	Organic
#Remark=	
#Date=	26.06.2023 16:35
#Acquired=	26.06.2023 16:35:16
101.018	3392
102.302	3408
103.586	3394
104.869	3458
106.152	3414
107.435	3444
108.717	3404
109.999	3496
111.281	3474
112.563	3506
113.845	3558
115.126	3542
116.407	3546
117.688	3570
118.969	3524
120.249	3496
121.53	3470
122.81	3584
124.09	3548
125.369	3564
126.649	3538
127.928	3576
129.207	3510
130.486	3546
131.765	3584
133.043	3644
134.321	3620
135.599	3686
136.877	3612
138.155	3616
139.432	3624
140.708	3596
141.985	3614
143.261	3722
144.538	3554
145.814	3578
147.09	3716
148.366	3608
149.641	3688
150.916	3686
152.191	3648
153.466	3608
154.741	3708
156.016	3682
157.289	3692
158.563	3718
159.837	3696
161.111	3690
162.385	3722
163.657	3670
164.93	3748
166.203	3732
167.476	3742
168.747	3740
170.019	3778
171.291	3692
172.562	3766
173.834	3660
175.105	3730
176.377	3736
177.646	3742
178.917	3742
180.188	3664
181.457	3750
182.727	3800
183.996	3788
185.266	3782
186.536	3814
187.804	3802
189.073	3824
190.342	3802
191.609	3824
192.878	3900
194.145	3900
195.413	3922
196.681	3890
197.948	3872
199.215	3940
200.481	3884
201.749	3904
203.014	3846
204.281	3962
205.546	3870
206.813	3900
208.077	3970
209.343	4024
210.608	3896
211.873	4006
213.137	3930
214.402	3956
215.666	4020
216.93	4074
218.194	3996
219.458	3934
220.721	4038
221.983	4034
223.247	4062
224.509	4016
225.772	4034
227.034	4058
228.295	4086
229.558	4094
230.819	4128
232.081	4130
233.342	4130
234.602	4160
235.864	4104
237.124	4168
238.384	4186
239.645	4204
240.904	4162
242.164	4136
243.423	4180
244.683	4140
245.941	4206
247.2	4200
248.46	4186
249.717	4204
250.975	4264
252.233	4196
253.492	4222
254.749	4198
256.006	4192
257.263	4298
258.519	4266
259.777	4160
261.033	4218
262.289	4236
263.545	4300
264.8	4234
266.057	4218
267.312	4236
268.567	4212
269.822	4202
271.076	4306
272.331	4194
273.585	4258
274.839	4236
276.094	4154
277.347	4240
278.601	4298
279.854	4258
281.107	4290
282.359	4294
283.612	4346
284.864	4296
286.116	4262
287.368	4354
288.62	4320
289.871	4388
291.123	4372
292.374	4350
293.625	4434
294.875	4424
296.126	4464
297.376	4406
298.626	4454
299.876	4504
301.126	4522
302.375	4436
303.625	4456
304.874	4486
306.122	4478
307.371	4500
308.62	4474
309.866	4574
311.114	4464
312.362	4596
313.61	4508
314.857	4486
316.105	4500
317.352	4596
318.599	4500
319.844	4452
321.09	4624
322.337	4516
323.583	4580
324.828	4466
326.073	4626
327.318	4626
328.563	4598
329.808	4692
331.053	4574
332.296	4660
333.541	4660
334.785	4678
336.029	4600
337.272	4680
338.515	4688
339.759	4704
341.001	4592
342.244	4644
343.486	4674
344.728	4682
345.97	4672
347.212	4726
348.453	4704
349.695	4712
350.936	4700
352.176	4724
353.418	4700
354.659	4694
355.898	4776
357.139	4770
358.378	4778
359.618	4778
360.858	4744
362.097	4888
363.336	4762
364.574	4750
365.813	4684
367.051	4842
368.29	4924
369.527	4788
370.766	4842
372.002	4812
373.241	4818
374.477	4822
375.715	4940
376.951	4748
378.188	4784
379.424	4778
380.66	4822
381.896	4766
383.132	4888
384.367	4822
385.603	4826
386.838	4814
388.072	4928
389.307	4858
390.541	4936
391.776	4814
393.01	4884
394.243	4892
395.477	4906
396.71	4856
397.943	4892
399.177	4952
400.409	4910
401.641	5046
402.875	4982
404.106	4986
405.338	4948
406.57	4974
407.802	5026
409.032	5044
410.263	5058
411.495	5068
412.725	4960
413.955	5006
415.185	5050
416.417	5072
417.646	5136
418.875	5136
420.104	5088
421.335	5206
422.564	5266
423.792	5236
425.02	5204
426.249	5238
427.477	5226
428.706	5264
429.933	5266
431.161	5246
432.388	5248
433.615	5324
434.841	5302
436.068	5344
437.294	5348
438.522	5288
439.748	5308
440.974	5322
442.199	5286
443.425	5234
444.65	5286
445.875	5334
447.1	5286
448.324	5282
449.549	5350
450.773	5404
451.997	5348
453.221	5364
454.445	5520
455.668	5324
456.891	5370
458.114	5366
459.337	5278
460.56	5368
461.782	5272
463.005	5316
464.227	5388
465.447	5390
466.669	5322
467.89	5440
469.112	5450
470.333	5476
471.554	5494
472.774	5382
473.995	5452
475.214	5494
476.434	5462
477.654	5478
478.874	5514
480.093	5442
481.312	5550
482.53	5532
483.749	5436
484.968	5458
486.186	5544
487.405	5522
488.622	5536
489.84	5656
491.057	5632
492.275	5560
493.491	5566
494.708	5652
495.925	5660
497.141	5662
498.357	5690
499.574	5650
500.789	5622
502.005	5590
503.221	5586
504.435	5614
505.65	5696
506.866	5606
508.079	5622
509.294	5640
510.509	5750
511.722	5768
512.936	5686
514.149	5704
515.363	5704
516.577	5760
517.789	5664
519.002	5730
520.214	5772
521.427	5686
522.638	5696
523.851	5706
525.062	5690
526.274	5684
527.485	5772
528.697	5822
529.907	5752
531.118	5680
532.328	5764
533.539	5834
534.748	5808
535.959	5694
537.168	5764
538.379	5648
539.587	5870
540.796	5732
542.005	5808
543.214	5844
544.423	5774
545.631	5842
546.838	5832
548.047	5838
549.254	5810
550.461	5850
551.669	5840
552.876	5854
554.082	5848
555.29	5942
556.496	5878
557.701	5922
558.909	5886
560.114	5868
561.319	5914
562.524	5938
563.731	5916
564.935	5964
566.14	5914
567.344	6024
568.549	6064
569.753	5988
570.957	6012
572.161	6078
573.364	6008
574.568	6040
575.771	5968
576.974	6092
578.177	6134
579.379	6112
580.581	6116
581.785	6108
582.987	6128
584.188	6182
585.39	6130
586.591	6226
587.792	6136
588.993	6164
590.193	6212
591.394	6202
592.594	6100
593.796	6200
594.996	6170
596.195	6208
597.395	6248
598.594	6256
599.793	6308
600.992	6278
602.191	6312
603.39	6350
604.588	6292
605.786	6262
606.984	6354
608.181	6218
609.378	6388
610.576	6426
611.773	6330
612.97	6362
614.167	6484
615.364	6450
616.56	6492
617.757	6470
618.953	6424
620.149	6564
621.343	6524
622.539	6590
623.734	6492
624.929	6684
626.124	6576
627.319	6486
628.512	6678
629.707	6656
630.901	6648
632.095	6638
633.289	6704
634.481	6738
635.675	6728
636.868	6760
638.061	6788
639.253	6840
640.446	6870
641.638	6830
642.831	6828
644.021	6786
645.213	6832
646.405	6900
647.595	6880
648.787	6812
649.978	6914
651.168	6994
652.359	6930
653.549	6912
654.738	7016
655.929	6982
657.117	7038
658.307	6922
659.497	7144
660.685	7016
661.875	7040
663.063	7052
664.252	6956
665.439	7088
666.628	7010
667.816	7104
669.003	7080
670.191	7090
671.378	7224
672.565	7230
673.751	7182
674.939	7178
676.124	7160
677.311	7236
678.497	7152
679.682	7344
680.868	7274
682.053	7246
683.239	7318
684.424	7184
685.609	7248
686.793	7382
687.977	7398
689.162	7282
690.346	7274
691.529	7370
692.714	7202
693.897	7404
695.081	7338
696.264	7376
697.446	7390
698.63	7452
699.812	7396
700.993	7326
702.175	7470
703.358	7502
704.539	7472
705.72	7500
706.901	7522
708.083	7558
709.264	7630
710.444	7594
711.625	7526
712.806	7624
713.986	7602
715.165	7776
716.345	7616
717.524	7684
718.705	7786
719.884	7770
721.062	7746
722.241	7816
723.419	7816
724.597	7820
725.775	7796
726.954	7970
728.132	7926
729.31	7880
730.487	7914
731.664	7958
732.841	7958
734.017	7988
735.194	7990
736.37	7914
737.546	8022
738.722	8092
739.898	8106
741.074	7956
742.249	8034
743.424	8208
744.599	8110
745.774	8002
746.949	8096
748.123	8074
749.298	8204
750.472	8180
751.646	8168
752.819	8208
753.993	8172
755.166	8196
756.34	8222
757.511	8336
758.684	8274
759.857	8332
761.029	8314
762.202	8364
763.374	8372
764.546	8402
765.716	8424
766.888	8498
768.059	8494
769.23	8606
770.401	8504
771.571	8642
772.741	8484
773.912	8490
775.082	8518
776.251	8472
777.421	8616
778.59	8680
779.76	8632
780.928	8686
782.097	8690
783.266	8662
784.434	8750
785.602	8700
786.771	8724
787.938	8724
789.106	8752
790.274	8900
791.44	8818
792.608	8892
793.775	8902
794.941	8870
796.108	8986
797.273	8960
798.44	8974
799.606	8824
800.771	8956
801.937	8876
803.102	9040
804.268	9090
805.432	9006
806.597	9136
807.761	9120
808.926	9292
810.09	9208
811.254	9294
812.417	9170
813.582	9336
814.744	9324
815.908	9288
817.071	9372
818.234	9410
819.396	9490
820.558	9402
821.721	9468
822.883	9520
824.045	9562
825.206	9508
826.367	9586
827.529	9642
828.69	9720
829.85	9768
831.012	9810
832.172	9712
833.332	9768
834.493	9888
835.653	9812
836.812	9988
837.972	9848
839.131	9868
840.29	10080
841.449	10056
842.609	10190
843.767	10080
844.925	10110
846.083	10108
847.242	10020
848.399	10116
849.557	10182
850.714	10118
851.871	10288
853.029	10328
854.186	10380
855.342	10244
856.498	10438
857.654	10438
858.81	10392
859.966	10446
861.122	10496
862.278	10478
863.434	10620
864.589	10476
865.744	10696
866.898	10568
868.053	10650
869.207	10666
870.361	10628
871.515	10642
872.669	10742
873.822	10798
874.976	10802
876.129	10612
877.282	10626
878.435	10944
879.588	10860
880.74	10818
881.893	10916
883.045	11058
884.197	10970
885.349	10872
886.5	10930
887.652	11048
888.802	11062
889.953	11124
891.104	11058
892.254	10976
893.405	11160
894.555	11072
895.706	11102
896.854	11072
898.004	11204
899.154	11324
900.303	11254
901.453	11298
902.6	11284
903.749	11408
904.898	11260
906.047	11220
907.194	11234
908.342	11318
909.49	11398
910.638	11462
911.785	11484
912.932	11478
914.08	11466
915.225	11656
916.372	11518
917.519	11650
918.666	11698
919.811	11698
920.957	11586
922.102	11736
923.248	11622
924.394	11734
925.538	11736
926.684	11806
927.828	11842
928.973	11804
930.118	11888
931.261	11812
932.406	11896
933.549	12054
934.693	11940
935.836	12182
936.979	11998
938.122	12216
939.265	12096
940.407	12362
941.55	12310
942.692	12340
943.835	12326
944.976	12388
946.118	12378
947.259	12330
948.401	12348
949.542	12402
950.682	12528
951.824	12532
952.964	12590
954.105	12476
955.245	12612
956.385	12570
957.525	12710
958.664	12708
959.803	12728
960.944	12742
962.082	12770
963.221	12844
964.36	13016
965.498	12838
966.636	13038
967.774	12812
968.913	13004
970.051	13176
971.188	13095
972.325	13014
973.463	13082
974.6	13134
975.736	13200
976.873	13238
978.009	13124
979.146	13406
980.282	13314
981.418	13152
982.554	13370
983.689	13382
984.824	13286
985.959	13346
987.095	13290
988.23	13444
989.364	13482
990.499	13364
991.633	13476
992.767	13514
993.9	13602
995.034	13558
996.167	13656
997.301	13670
998.434	13636
999.567	13702
1000.7	13792
1001.83	13706
1002.96	13824
1004.1	13866
1005.23	13788
1006.36	13852
1007.49	13708
1008.62	13924
1009.76	13902
1010.89	13976
1012.02	14018
1013.15	14056
1014.28	14076
1015.41	14032
1016.54	14060
1017.67	14038
1018.8	14198
1019.93	14178
1021.06	14200
1022.19	14324
1023.32	14316
1024.44	14322
1025.57	14302
1026.7	14298
1027.83	14408
1028.96	14344
1030.09	14506
1031.21	14566
1032.34	14416
1033.47	14522
1034.6	14718
1035.72	14754
1036.85	14744
1037.98	14650
1039.1	14628
1040.23	14934
1041.35	14842
1042.48	14666
1043.61	14852
1044.73	14838
1045.86	14970
1046.98	14856
1048.11	14918
1049.23	14944
1050.36	15066
1051.48	15066
1052.61	14946
1053.73	15182
1054.85	15260
1055.98	15290
1057.1	15282
1058.22	15258
1059.35	15324
1060.47	15100
1061.59	15306
1062.72	15406
1063.84	15340
1064.96	15246
1066.08	15392
1067.2	15326
1068.33	15312
1069.45	15308
1070.57	15460
1071.69	15554
1072.81	15532
1073.93	15498
1075.05	15384
1076.17	15462
1077.29	15582
1078.41	15360
1079.53	15518
1080.65	15632
1081.77	15592
1082.89	15396
1084.01	15624
1085.13	15622
1086.25	15550
1087.37	15616
1088.48	15718
1089.6	15664
1090.72	15494
1091.84	15474
1092.96	15582
1094.07	15670
1095.19	15740
1096.31	15568
1097.43	15596
1098.54	15608
1099.66	15532
1100.78	15694
1101.89	15694
1103.01	15690
1104.12	15674
1105.24	15578
1106.35	15528
1107.47	15736
1108.59	15646
1109.7	15580
1110.81	15758
1111.93	15746
1113.04	15688
1114.16	15666
1115.27	15632
1116.39	15598
1117.5	15828
1118.61	15596
1119.73	15708
1120.84	15766
1121.95	15768
1123.06	15792
1124.18	15870
1125.29	15762
1126.4	15836
1127.51	15684
1128.63	16032
1129.74	15792
1130.85	15684
1131.96	15796
1133.07	15578
1134.18	15762
1135.29	15916
1136.4	16004
1137.51	15938
1138.62	15860
1139.73	16040
1140.84	15940
1141.95	15962
1143.06	16044
1144.17	15934
1145.28	16008
1146.39	16010
1147.5	15944
1148.61	16022
1149.72	15916
1150.82	16042
1151.93	16098
1153.04	16116
1154.15	16010
1155.26	16188
1156.36	16132
1157.47	16060
1158.58	16174
1159.68	16098
1160.79	15952
1161.9	16018
1163	16056
1164.11	16030
1165.22	15890
1166.32	15960
1167.43	16334
1168.53	16030
1169.64	15766
1170.74	16122
1171.85	16086
1172.95	16050
1174.06	16036
1175.16	15940
1176.26	15938
1177.37	16010
1178.47	15880
1179.58	15988
1180.68	15946
1181.78	15812
1182.88	15894
1183.99	15770
1185.09	16038
1186.19	15874
1187.3	15748
1188.4	15822
1189.5	15702
1190.6	15694
1191.7	15670
1192.8	15702
1193.9	15578
1195.01	15530
1196.11	15590.9
1197.21	15646.6
1198.31	15574.5
1199.41	15509.6
1200.51	15615.6
1201.61	15379.5
1202.71	15612.9
1203.81	15440.8
1204.91	15374.3
1206.01	15306.6
1207.11	15367.2
1208.2	15349.4
1209.3	15425.4
1210.4	15469
1211.5	15438.4
1212.6	15223
1213.7	15145.8
1214.8	15175.9
1215.89	15122
1216.99	15112.6
1218.09	15208.2
1219.18	15097.9
1220.28	15048.3
1221.38	15084.3
1222.48	15036.3
1223.57	14911.6
1224.67	15036.1
1225.76	14889.8
1226.86	14863
1227.96	14873.5
1229.05	14857
1230.15	14918.1
1231.24	14838.3
1232.34	14826
1233.43	14890.1
1234.53	14691.7
1235.62	14789.2
1236.71	14782.5
1237.81	14747.2
1238.9	14743.6
1240	14787.4
1241.09	14659.1
1242.18	14819.6
1243.28	14633.4
1244.37	14724.9
1245.46	14630.7
1246.56	14659.4
1247.65	14632.4
1248.74	14568.5
1249.83	14611.6
1250.93	14499.4
1252.02	14575.5
1253.11	14558.7
1254.2	14591.7
1255.29	14491.7
1256.38	14512.7
1257.47	14382.8
1258.56	14354.8
1259.65	14382.7
1260.74	14474.6
1261.84	14318.1
1262.92	14425.5
1264.01	14357.4
1265.1	14334.5
1266.19	14327.9
1267.28	14335.3
1268.37	14311
1269.46	14201.4
1270.55	14251.5
1271.64	14132.6
1272.73	14160.2
1273.82	14124.8
1274.9	14208.6
1275.99	14178.6
1277.08	14164.2
1278.17	14181.3
1279.26	14051.8
1280.34	14069.2
1281.43	14079.7
1282.52	14068.4
1283.6	14080.6
1284.69	14093.1
1285.78	13869.1
1286.86	13909.1
1287.95	14025.7
1289.03	13895.7
1290.12	13956.8
1291.21	13828.6
1292.29	13743.2
1293.38	13790.7
1294.46	13828.8
1295.55	13703.6
1296.63	13777
1297.71	13725.2
1298.8	13591.1
1299.88	13649.6
1300.97	13645.6
1302.05	13699.2
1303.13	13544.1
1304.22	13526.7
1305.3	13510.5
1306.38	13630.5
1307.34	13368
1308.43	13452
1309.52	13514
1310.61	13342
1311.7	13440
1312.78	13262
1313.87	13308
1314.96	13192
1316.05	13250
1317.13	13144
1318.22	13130
1319.3	13134
1320.39	13150
1321.48	13146
1322.56	13018
1323.65	12934
1324.73	13138
1325.82	12972
1326.9	12874
1327.99	12752
1329.07	13000
1330.16	12804
1331.24	12856
1332.33	12726
1333.41	12770
1334.5	12658
1335.58	12648
1336.66	12706
1337.75	12552
1338.83	12616
1339.91	12616
1341	12544
1342.08	12460
1343.16	12458
1344.25	12336
1345.33	12400
1346.41	12446
1347.49	12414
1348.57	12324
1349.65	12392
1350.74	12274
1351.82	12142
1352.9	12124
1353.98	12224
1355.06	12136
1356.14	12110
1357.22	12114
1358.3	12030
1359.38	12056
1360.46	11990
1361.54	12118
1362.62	11994
1363.7	11972
1364.78	12022
1365.86	11902
1366.94	11852
1368.02	11748
1369.09	11744
1370.17	11884
1371.25	11862
1372.33	11748
1373.41	11750
1374.48	11848
1375.56	11694
1376.64	11652
1377.72	11556
1378.79	11598
1379.87	11482
1380.95	11440
1382.02	11512
1383.1	11508
1384.17	11336
1385.25	11462
1386.33	11524
1387.4	11498
1388.48	11454
1389.55	11392
1390.63	11358
1391.7	11456
1392.78	11366
1393.85	11254
1394.93	11326
1396	11318
1397.07	11184
1398.15	11162
1399.22	11110
1400.3	11174
1401.37	11220
1402.44	11170
1403.52	11282
1404.59	11140
1405.66	10946
1406.73	11008
1407.81	11048
1408.88	10962
1409.95	11088
1411.02	11126
1412.09	10912
1413.17	10906
1414.24	10934
1415.31	10948
1416.38	10896
1417.45	10888
1418.52	10796
1419.59	10906
1420.66	10748
1421.73	10802
1422.8	10786
1423.87	10682
1424.94	10718
1426.01	10774
1427.08	10696
1428.15	10752
1429.22	10742
1430.29	10644
1431.35	10552
1432.42	10634
1433.49	10628
1434.56	10500
1435.63	10628
1436.7	10638
1437.76	10590
1438.83	10448
1439.9	10516
1440.96	10412
1442.03	10458
1443.1	10468
1444.17	10464
1445.23	10212
1446.3	10352
1447.36	10314
1448.43	10242
1449.49	10440
1450.56	10308
1451.63	10324
1452.69	10402
1453.76	10182
1454.82	10252
1455.89	10258
1456.95	10302
1458.01	10340
1459.08	10248
1460.14	10318
1461.21	10156
1462.27	10212
1463.34	10282
1464.4	10316
1465.46	10150
1466.52	10126
1467.59	10104
1468.65	10202
1469.71	10108
1470.77	10140
1471.84	10058
1472.9	10052
1473.96	10186
1475.02	10030
1476.08	10046
1477.15	10048
1478.21	10138
1479.27	10172
1480.33	9860
1481.39	10042
1482.45	10008
1483.51	10094
1484.57	10000
1485.63	9954
1486.69	9992
1487.75	10014
1488.81	9998
1489.87	9938
1490.93	9776
1491.99	10030
1493.05	9804
1494.1	9862
1495.16	9898
1496.22	9774
1497.28	9760
1498.34	9872
1499.4	9820
1500.45	9860
1501.51	9806
1502.57	9818
1503.63	9764
1504.68	9732
1505.74	9806
1506.8	9682
1507.85	9600
1508.91	9602
1509.97	9806
1511.02	9662
1512.08	9626
1513.13	9682
1514.19	9534
1515.24	9582
1516.3	9580
1517.35	9554
1518.41	9544
1519.46	9408
1520.52	9448
1521.57	9570
1522.63	9492
1523.68	9464
1524.73	9492
1525.79	9422
1526.84	9406
1527.9	9420
1528.95	9438
1530	9448
1531.06	9360
1532.11	9352
1533.16	9330
1534.21	9294
1535.26	9276
1536.32	9230
1537.37	9280
1538.42	9230
1539.47	9286
1540.52	9218
1541.57	9240
1542.63	9206
1543.68	9146
1544.73	9174
1545.78	9220
1546.83	9196
1547.88	9240
1548.93	9182
1549.98	9066
1551.03	8928
1552.08	9102
1553.13	9010
1554.18	9074
1555.23	8944
1556.27	9112
1557.32	8998
1558.37	9032
1559.42	9010
1560.47	9024
1561.52	9026
1562.56	8996
1563.61	9148
1564.66	8966
1565.71	8846
1566.75	8978
1567.8	8940
1568.85	9070
1569.9	8932
1570.94	8856
1571.99	8836
1573.03	8764
1574.08	8794
1575.13	8886
1576.17	8866
1577.22	8970
1578.26	8872
1579.31	8826
1580.35	8928
1581.4	8882
1582.44	8836
1583.49	8844
1584.53	8858
1585.58	8734
1586.62	8844
1587.66	8792
1588.71	8748
1589.75	8856
1590.8	8744
1591.84	8662
1592.88	8858
1593.93	8754
1594.97	8818
1596.01	8778
1597.05	8726
1598.1	8820
1599.14	8792
1600.18	8740
1601.22	8732
1602.26	8768
1603.31	8696
1604.35	8688
1605.39	8646
1606.43	8778
1607.47	8676
1608.51	8672
1609.55	8674
1610.59	8712
1611.63	8716
1612.67	8758
1613.71	8562
1614.75	8750
1615.79	8596
1616.83	8666
1617.87	8718
1618.91	8630
1619.95	8744
1620.99	8586
1622.02	8632
1623.06	8626
1624.1	8652
1625.14	8664
1626.18	8668
1627.21	8616
1628.25	8524
1629.29	8574
1630.33	8634
1631.36	8528
1632.4	8514
1633.44	8484
1634.48	8562
1635.51	8576
1636.55	8502
1637.58	8530
1638.62	8512
1639.66	8530
1640.69	8540
1641.73	8508
1642.76	8592
1643.8	8430
1644.83	8618
1645.87	8476
1646.9	8412
1647.94	8436
1648.97	8378
1650	8370
1651.04	8442
1652.07	8404
1653.11	8384
1654.14	8346
1655.17	8410
1656.21	8364
1657.24	8416
1658.27	8342
1659.31	8364
1660.34	8412
1661.37	8424
1662.4	8202
1663.43	8328
1664.47	8262
1665.5	8350
1666.53	8302
1667.56	8310
1668.59	8280
1669.62	8180
1670.66	8188
1671.69	8386
1672.72	8186
1673.75	8150
1674.78	8146
1675.81	8146
1676.84	8080
1677.87	8106
1678.9	8054
1679.93	8038
1680.96	8170
1681.98	8038
1683.01	8118
1684.04	8044
1685.07	8006
1686.1	8052
1687.13	7918
1688.16	8070
1689.19	7998
1690.21	7904
1691.24	8022
1692.27	7982
1693.3	7990
1694.32	8156
1695.35	7942
1696.38	8014
1697.4	8032
1698.43	7922
1699.46	8018
1700.48	8040
1701.51	7904
1702.54	7920
1703.56	7872
1704.59	7872
1705.61	8048
1706.64	7894
1707.66	7904
1708.69	7874
1709.71	7780
1710.74	7858
1711.76	7726
1712.79	7804
1713.81	7758
1714.83	7886
1715.86	7798
1716.88	7848
1717.91	7826
1718.93	7832
1719.95	7792
1720.98	7760
1722	7778
1723.02	7722
1724.04	7824
1725.07	7702
1726.09	7744
1727.11	7684
1728.13	7726
1729.15	7854
1730.18	7762
1731.2	7652
1732.22	7766
1733.24	7744
1734.26	7674
1735.28	7674
1736.3	7702
1737.32	7718
1738.34	7752
1739.36	7666
1740.38	7598
1741.4	7654
1742.42	7646
1743.44	7618
1744.46	7608
1745.48	7646
1746.5	7598
1747.52	7716
1748.54	7618
1749.56	7706
1750.58	7626
1751.6	7516
1752.61	7604
1753.63	7506
1754.65	7524
1755.67	7674
1756.68	7552
1757.7	7576
1758.72	7602
1759.74	7672
1760.75	7566
1761.77	7580
1762.79	7540
1763.8	7500
1764.82	7606
1765.84	7602
1766.85	7538
1767.87	7538
1768.88	7542
1769.9	7666
1770.91	7534
1771.93	7478
1772.94	7586
1773.96	7574
1774.97	7476
1775.99	7604
1777	7514
1778.02	7444
1779.03	7486
1780.04	7488
1781.06	7628
1782.07	7456
1783.09	7520
1784.1	7524
1785.11	7480
1786.13	7448
1787.14	7566
1788.15	7596
1789.16	7450
1790.18	7456
1791.19	7550
1792.2	7392
1793.21	7516
1794.22	7314
1795.23	7594
1796.25	7428
1797.26	7390
1798.27	7422
1799.28	7436
1800.29	7412
1801.3	7350
1802.31	7470
1803.32	7374
1804.33	7366
1805.34	7470
1806.35	7352
1807.36	7394
1808.37	7364
1809.38	7404
1810.39	7398
1811.4	7188
1812.41	7448
1813.42	7332
1814.43	7300
1815.43	7324
1816.44	7430
1817.45	7270
1818.46	7360
1819.47	7218
1820.47	7298
1821.48	7224
1822.49	7268
1823.49	7302
1824.5	7260
1825.51	7264
1826.52	7150
1827.52	7146
1828.53	7226
1829.54	7228
1830.54	7316
1831.55	7240
1832.55	7100
1833.56	7220
1834.56	7222
1835.57	7178
1836.57	7178
1837.58	7206
1838.58	7204
1839.59	7118
1840.59	7210
1841.6	7134
1842.6	7082
1843.61	7206
1844.61	7044
1845.61	7090
1846.62	7130
1847.62	7108
1848.62	7044
1849.63	7066
1850.63	7068
1851.63	7066
1852.64	7076
1853.64	6996
1854.64	7038
1855.64	7034
1856.64	7044
1857.65	6994
1858.65	6926
1859.65	7006
1860.65	7110
1861.65	6974
1862.65	6930
1863.65	6960
1864.66	6914
1865.66	6984
1866.66	6900
1867.66	7154
1868.66	6898
1869.66	6962
1870.66	7030
1871.66	6952
1872.66	6946
1873.66	6850
1874.66	6964
1875.65	6810
1876.65	6930
1877.65	7000
1878.65	6762
1879.65	6858
1880.65	6930
1881.65	6856
1882.64	6930
1883.64	6926
1884.64	6784
1885.64	6950
1886.63	6874
1887.63	6900
1888.63	6912
1889.63	6762
1890.62	6896
1891.62	6924
1892.62	6928
1893.61	6890
1894.61	6834
1895.6	6892
1896.6	6756
1897.6	6854
1898.59	6800
1899.59	6910
1900.58	6862
1901.58	6768
1902.57	6838
1903.57	6832
1904.56	6794
1905.56	6790
1906.55	6868
1907.54	6742
1908.54	6826
1909.53	6800
1910.53	6860
1911.52	6798
1912.51	6868
1913.51	6822
1914.5	6662
1915.49	6850
1916.49	6788
1917.48	6768
1918.47	6870
1919.46	6704
1920.46	6806
1921.45	6674
1922.44	6798
1923.43	6824
1924.42	6752
1925.41	6738
1926.41	6748
1927.4	6732
1928.39	6754
1929.38	6748
1930.37	6742
1931.36	6686
1932.35	6670
1933.34	6682
1934.33	6734
1935.32	6722
1936.31	6732
1937.3	6602
1938.29	6648
1939.28	6650
1940.27	6758
1941.26	6770
1942.24	6720
1943.23	6758
1944.22	6756
1945.21	6612
1946.2	6606
1947.19	6640
1948.17	6624
1949.16	6728
1950.15	6669
1951.14	6610
1952.13	6720
1953.11	6668
1954.1	6746
1955.09	6664
1956.07	6662
1957.06	6550
1958.05	6616
1959.03	6716
1960.02	6550
1961	6584
1961.99	6564
1962.98	6594
1963.96	6578
1964.95	6514
1965.93	6518
1966.92	6584
1967.9	6630
1968.89	6618
1969.87	6600
1970.85	6560
1971.84	6486
1972.82	6514
1973.81	6612
1974.79	6670
1975.78	6534
1976.76	6490
1977.74	6466
1978.73	6514
1979.71	6410
1980.69	6480
1981.67	6422
1982.66	6472
1983.64	6466
1984.62	6514
1985.6	6482
1986.59	6574
1987.57	6378
1988.55	6400
1989.53	6516
1990.51	6522
1991.49	6384
1992.47	6538
1993.45	6422
1994.44	6478
1995.42	6398
1996.4	6472
1997.38	6422
1998.36	6500
1999.34	6336
2000.32	6384
2001.3	6414
2002.28	6394
2003.26	6340
2004.24	6292
2005.22	6402
2006.19	6436
2007.17	6436
2008.15	6376
2009.13	6416
2010.11	6354
2011.09	6372
2012.06	6380
2013.04	6350
2014.02	6362
2015	6354
2015.98	6392
2016.95	6346
2017.93	6338
2018.91	6276
2019.88	6282
2020.86	6288
2021.84	6358
2022.81	6368
2023.79	6336
2024.77	6298
2025.74	6306
2026.72	6306
2027.69	6378
2028.67	6314
2029.65	6304
2030.62	6328
2031.6	6282
2032.57	6306
2033.55	6282
2034.52	6326
2035.5	6248
2036.47	6338
2037.44	6224
2038.42	6178
2039.39	6104
2040.36	6162
2041.34	6246
2042.31	6228
2043.29	6284
2044.26	6316
2045.23	6236
2046.2	6280
2047.18	6242
2048.15	6224
2049.12	6300
2050.09	6150
2051.07	6320
2052.04	6156
2053.01	6128
2053.98	6140
2054.95	6176
2055.93	6216
2056.9	6090
2057.87	6194
2058.84	6232
2059.81	6072
2060.78	6158
2061.75	6140
2062.72	6170
2063.69	6142
2064.66	6156
2065.63	6044
2066.6	6174
2067.57	6146
2068.54	6100
2069.51	6162
2070.48	6226
2071.45	6104
2072.42	6126
2073.38	6112
2074.35	6098
2075.32	6064
2076.29	6078
2077.26	6178
2078.23	6010
2079.19	6114
2080.16	6176
2081.13	6082
2082.1	6048
2083.06	6016
2084.03	6108
2085	6072
2085.96	6072
2086.93	6012
2087.9	6072
2088.86	6064
2089.83	5974
2090.8	6058
2091.76	5956
2092.73	6078
2093.69	6066
2094.66	6020
2095.62	6046
2096.59	5940
2097.55	6050
2098.52	5970
2099.48	6002
2100.45	6028
2101.41	6018
2102.38	5936
2103.34	6008
2104.31	5916
2105.27	5940
2106.23	6012
2107.2	5948
2108.16	6010
2109.12	5978
2110.09	6052
2111.05	5976
2112.01	5986
2112.98	5950
2113.94	5908
2114.9	5938
2115.86	6002
2116.82	5902
2117.79	5942
2118.75	5918
2119.71	5852
2120.67	5984
2121.63	5852
2122.59	5942
2123.55	5912
2124.52	5922
2125.48	5868
2126.44	5932
2127.4	5866
2128.36	5892
2129.32	5820
2130.28	5866
2131.24	5960
2132.2	5868
2133.16	5810
2134.12	5866
2135.08	5836
2136.04	5864
2136.99	5916
2137.95	5814
2138.91	5804
2139.87	5796
2140.83	5772
2141.79	5830
2142.75	5854
2143.7	5802
2144.66	5838
2145.62	5804.06
2146.58	5809.38
2147.53	5759.71
2148.49	5773.46
2149.45	5758.55
2150.41	5755.66
2151.36	5788.71
2152.32	5892.81
2153.28	5716.28
2154.23	5773.47
2155.19	5695.03
2156.14	5724.99
2157.1	5660.47
2158.06	5689.01
2159.01	5675.46
2159.97	5725.78
2160.92	5710.5
2161.88	5701.09
2162.83	5657.59
2163.79	5641.85
2164.74	5626.11
2165.7	5797.64
2166.65	5656.43
2167.61	5694.94
2168.56	5703.45
2169.51	5716.18
2170.47	5717.86
2171.42	5622.77
2172.38	5669.93
2173.33	5670.07
2174.28	5581.39
2175.24	5702.14
2176.19	5651.91
2177.14	5572.93
2178.09	5603.12
2179.05	5605.5
2180	5643.31
2180.95	5636.87
2181.9	5663.44
2182.86	5661.82
2183.81	5576.7
2184.76	5590.52
2185.71	5573
2186.66	5576.03
2187.61	5620.53
2188.57	5614.46
2189.52	5562.33
2190.47	5563.03
2191.42	5520.44
2192.37	5563.96
2193.32	5531.48
2194.27	5519.38
2195.22	5565.4
2196.17	5568.55
2197.12	5541.69
2198.07	5528.53
2199.02	5575.53
2199.97	5563.62
2200.92	5608.44
2201.87	5598.43
2202.82	5537.35
2203.76	5587.5
2204.71	5626.35
2205.66	5578.05
2206.61	5517.49
2207.56	5524.75
2208.51	5503.11
2209.45	5509.77
2210.4	5553.87
2211.35	5466.86
2212.3	5520.27
2213.25	5505.72
2214.19	5488.19
2215.14	5564.52
2216.09	5510.81
2217.03	5538.84
2217.98	5535.98
2218.93	5542.11
2219.87	5488.08
2220.82	5467.82
2221.77	5513.53
2222.71	5516.1
2223.66	5538.28
2224.6	5541.22
2225.55	5542.06
2226.49	5513.22
2227.44	5537.71
2228.38	5550.6
2229.33	5537.19
2230.27	5567.47
2231.22	5547.04
2232.16	5513.24
2233.11	5486.31
2234.05	5518.25
2235	5553.16
2235.94	5528.42
2236.88	5517.66
2237.83	5466.61
2238.77	5509.26
2239.72	5579.01
2240.66	5614.12
2241.6	5553.97
2242.07	5480
2243.02	5510
2243.97	5584
2244.92	5526
2245.87	5530
2246.81	5456
2247.76	5468
2248.71	5484
2249.65	5452
2250.6	5596
2251.55	5606
2252.49	5524
2253.44	5426
2254.39	5490
2255.33	5528
2256.28	5486
2257.22	5436
2258.17	5414
2259.12	5524
2260.06	5506
2261.01	5526
2261.95	5534
2262.9	5480
2263.84	5384
2264.78	5454
2265.73	5490
2266.67	5416
2267.62	5492
2268.56	5450
2269.51	5496
2270.45	5418
2271.39	5438
2272.34	5396
2273.28	5390
2274.22	5360
2275.17	5416
2276.11	5418
2277.05	5346
2277.99	5386
2278.94	5416
2279.88	5438
2280.82	5392
2281.76	5328
2282.71	5322
2283.65	5444
2284.59	5360
2285.53	5436
2286.47	5324
2287.41	5342
2288.35	5386
2289.3	5358
2290.24	5336
2291.18	5430
2292.12	5374
2293.06	5372
2294	5226
2294.94	5314
2295.88	5372
2296.82	5406
2297.76	5350
2298.7	5356
2299.64	5352
2300.58	5358
2301.52	5320
2302.46	5270
2303.39	5366
2304.33	5304
2305.27	5298
2306.21	5370
2307.15	5308
2308.09	5298
2309.02	5338
2309.96	5234
2310.9	5322
2311.84	5286
2312.77	5296
2313.71	5332
2314.65	5262
2315.59	5228
2316.52	5298
2317.46	5244
2318.4	5184
2319.33	5176
2320.27	5100
2321.21	5232
2322.14	5232
2323.08	5210
2324.01	5262
2324.95	5342
2325.89	5220
2326.82	5256
2327.76	5180
2328.69	5176
2329.63	5160
2330.56	5276
2331.5	5212
2332.43	5204
2333.36	5268
2334.3	5160
2335.23	5194
2336.17	5300
2337.1	5160
2338.03	5204
2338.97	5180
2339.9	5196
2340.83	5208
2341.77	5228
2342.7	5104
2343.63	5214
2344.57	5238
2345.5	5178
2346.43	5160
2347.36	5222
2348.3	5136
2349.23	5096
2350.16	5128
2351.09	5244
2352.02	5178
2352.95	5132
2353.89	5086
2354.82	5092
2355.75	5076
2356.68	5166
2357.61	5078
2358.54	5144
2359.47	5204
2360.4	5098
2361.33	5102
2362.26	5106
2363.19	5042
2364.12	5088
2365.05	5096
2365.98	5142
2366.91	5072
2367.84	5192
2368.77	5098
2369.7	5108
2370.63	5080
2371.56	5042
2372.48	5108
2373.41	5070
2374.34	5148
2375.27	5114
2376.2	5114
2377.12	5038
2378.05	5018
2378.98	5118
2379.91	5048
2380.84	5114
2381.76	5000
2382.69	5146
2383.62	5030
2384.54	5034
2385.47	4994
2386.4	4978
2387.32	5098
2388.25	4978
2389.18	5056
2390.1	5094
2391.03	5010
2391.95	5030
2392.88	5010
2393.8	4996
2394.73	4968
2395.65	4938
2396.58	5032
2397.5	4926
2398.43	4970
2399.35	4942
2400.28	4942
2401.2	4900
2402.13	4984
2403.05	5056
2403.97	4970
2404.9	5028
2405.82	4850
2406.75	4846
2407.67	4880
2408.59	4930
2409.51	4934
2410.44	4858
2411.36	4944
2412.28	4918
2413.21	4898
2414.13	4908
2415.05	4896
2415.97	4948
2416.9	4878
2417.82	4900
2418.74	4920
2419.66	4898
2420.58	4840
2421.5	4824
2422.42	4878
2423.35	4770
2424.27	4934
2425.19	4782
2426.11	4886
2427.03	4832
2427.95	4810
2428.87	4800
2429.79	4894
2430.71	4804
2431.63	4832
2432.55	4806
2433.47	4926
2434.39	4830
2435.31	4676
2436.23	4836
2437.14	4810
2438.06	4788
2438.98	4848
2439.9	4782
2440.82	4776
2441.74	4774
2442.66	4742
2443.57	4720
2444.49	4834
2445.41	4786
2446.33	4778
2447.24	4828
2448.16	4824
2449.08	4706
2450	4750
2450.91	4708
2451.83	4736
2452.75	4768
2453.66	4762
2454.58	4664
2455.5	4792
2456.41	4794
2457.33	4712
2458.24	4800
2459.16	4650
2460.08	4728
2460.99	4658
2461.91	4778
2462.82	4732
2463.74	4674
2464.65	4638
2465.57	4664
2466.48	4682
2467.4	4552
2468.31	4670
2469.22	4742
2470.14	4750
2471.05	4676
2471.97	4636
2472.88	4710
2473.79	4602
2474.71	4630
2475.62	4656
2476.53	4600
2477.45	4648
2478.36	4656
2479.27	4658
2480.19	4708
2481.1	4502
2482.01	4596
2482.92	4612
2483.83	4640
2484.75	4638
2485.66	4582
2486.57	4548
2487.48	4520
2488.39	4620
2489.3	4598
2490.22	4574
2491.13	4602
2492.04	4520
2492.95	4590
2493.86	4580
2494.77	4540
2495.68	4464
2496.59	4584
2497.5	4558
2498.41	4496
2499.32	4514
2500.23	4536
2501.14	4502
2502.05	4464
2502.96	4456
2503.87	4492
2504.78	4456
2505.68	4494
2506.59	4518
2507.5	4522
2508.41	4520
2509.32	4376
2510.23	4500
2511.14	4404
2512.04	4458
2512.95	4382
2513.86	4416
2514.77	4450
2515.67	4418
2516.58	4452
2517.49	4544
2518.39	4458
2519.3	4322
2520.21	4418
2521.11	4366
2522.02	4402
2522.93	4446
2523.83	4390
2524.74	4442
2525.65	4380
2526.55	4346
2527.46	4432
2528.36	4348
2529.27	4358
2530.17	4330
2531.08	4380
2531.98	4332
2532.89	4362
2533.79	4380
2534.7	4332
2535.6	4362
2536.51	4376
2537.41	4324
2538.32	4322
2539.22	4288
2540.12	4310
2541.03	4326
2541.93	4334
2542.83	4190
2543.74	4252
2544.64	4288
2545.54	4262
2546.45	4226
2547.35	4358
2548.25	4288
2549.15	4250
2550.06	4256
2550.96	4240
2551.86	4246
2552.76	4294
2553.66	4292
2554.56	4216
2555.47	4276
2556.37	4270
2557.27	4210
2558.17	4184
2559.07	4190
2559.97	4190
2560.87	4226
2561.77	4202
2562.67	4174
2563.58	4212
2564.47	4202
2565.38	4218
2566.27	4136
2567.18	4102
2568.07	4134
2568.97	4192
2569.87	4148
2570.77	4116
2571.67	4134
2572.57	4158
2573.47	4160
2574.37	4114
2575.27	4238
2576.17	4180
2577.06	4188
2577.96	4170
2578.86	4162
2579.76	4048
2580.66	4054
2581.55	4122
2582.45	4100
2583.35	4068
2584.25	4056
2585.14	4062
2586.04	4128
2586.94	4072
2587.83	4130
2588.73	4024
2589.63	4084
2590.52	4086
2591.42	4104
2592.32	4096
2593.21	4016
2594.11	4016
2595	3990
2595.9	4036
2596.8	3954
2597.69	4024
2598.59	4006
2599.48	4026
2600.38	4064
2601.27	3958
2602.17	3944
2603.06	4020
2603.95	3950
2604.85	3982
2605.74	3964
2606.64	3936
2607.53	3914
2608.42	3950
2609.32	3948
2610.21	3950
2611.1	3980
2612	3942
2612.89	3956
2613.78	3936
2614.68	3860
2615.57	3922
2616.46	3896
2617.36	4016
2618.25	3978
2619.14	3866
2620.03	3954
2620.92	3848
2621.82	3880
2622.71	3852
2623.6	3904
2624.49	3860
2625.38	3850
2626.27	3888
2627.16	3844
2628.05	3864
2628.95	3956
2629.84	3882
2630.73	3838
2631.62	3828
2632.51	3870
2633.4	3778
2634.29	3880
2635.18	3778
2636.07	3828
2636.96	3754
2637.85	3792
2638.74	3724
2639.62	3756
2640.51	3792
2641.4	3820
2642.29	3774
2643.18	3724
2644.07	3792
2644.96	3720
2645.85	3642
2646.73	3772
2647.62	3750
2648.51	3768
2649.4	3750
2650.28	3684
2651.17	3658
2652.06	3706
2652.95	3686
2653.83	3698
2654.72	3694
2655.61	3636
2656.5	3672
2657.38	3728
2658.27	3696
2659.15	3690
2660.04	3708
2660.93	3680
2661.81	3642
2662.7	3704
2663.58	3606
2664.47	3636
2665.35	3680
2666.24	3656
2667.13	3658
2668.01	3610
2668.9	3650
2669.78	3642
2670.66	3526
2671.55	3656
2672.43	3668
2673.32	3624
2674.2	3614
2675.09	3612
2675.97	3672
2676.85	3538
2677.74	3650
2678.62	3642
2679.5	3614
2680.39	3660
2681.27	3610
2682.15	3570
2683.04	3656
2683.92	3622
2684.8	3574
2685.68	3594
2686.57	3568
2687.45	3490
2688.33	3638
2689.21	3548
2690.09	3524
2690.98	3516
2691.86	3508
2692.74	3456
2693.62	3482
2694.5	3500
2695.38	3524
2696.26	3490
2697.15	3464
2698.03	3540
2698.91	3526
2699.79	3518
2700.67	3466
2701.55	3522
2702.43	3546
2703.31	3554
2704.19	3440
2705.07	3466
2705.95	3446
2706.83	3434
2707.7	3426
2708.58	3546
2709.46	3436
2710.34	3452
2711.22	3404
2712.1	3484
2712.98	3390
2713.86	3464
2714.73	3496
2715.61	3474
2716.49	3400
2717.37	3322
2718.25	3340
2719.12	3374
2720	3426
2720.88	3418
2721.76	3320
2722.63	3352
2723.51	3370
2724.39	3346
2725.26	3366
2726.14	3292
2727.02	3408
2727.89	3386
2728.77	3286
2729.64	3302
2730.52	3326
2731.4	3330
2732.27	3344
2733.15	3318
2734.02	3364
2734.9	3282
2735.77	3390
2736.65	3278
2737.52	3264
2738.4	3310
2739.27	3216
2740.15	3286
2741.02	3286
2741.9	3236
2742.77	3252
2743.64	3260
2744.52	3260
2745.39	3264
2746.27	3282
2747.14	3254
2748.01	3262
2748.89	3244
2749.76	3260
2750.63	3232
2751.51	3200
2752.38	3188
2753.25	3218
2754.12	3210
2755	3196
2755.87	3160
2756.74	3228
2757.61	3186
2758.48	3222
2759.35	3162
2760.23	3202
2761.1	3210
2761.97	3188
2762.84	3156
2763.71	3156
2764.58	3198
2765.45	3128
2766.32	3138
2767.19	3096
2768.07	3150
2768.94	3146
2769.81	3234
2770.68	3164
2771.55	3186
2772.42	3084
2773.29	3180
2774.16	3112
2775.02	3096
2775.89	3086
2776.76	3122
2777.63	3080
2778.5	3080
2779.37	3126
2780.24	3012
2781.11	3126
2781.98	3096
2782.84	3136
2783.71	3084
2784.58	3046
2785.45	3030
2786.32	3066
2787.18	3116
2788.05	3042
2788.92	3050
2789.79	3038
2790.65	3024
2791.52	3038
2792.39	3030
2793.25	2984
2794.12	3036
2794.99	2994
2795.85	2992
2796.72	3056
2797.59	3046
2798.45	3032
2799.32	3086
2800.18	3062
2801.05	2994
2801.92	3048
2802.78	2990
2803.65	2991
2804.51	2992
2805.38	2972
2806.24	3032
2807.11	2982
2807.97	2934
2808.84	2930
2809.7	3006
2810.57	2998
2811.43	2958
2812.29	2942
2813.16	2932
2814.02	2850
2814.88	2958
2815.75	2894
2816.61	2904
2817.47	2868
2818.34	2922
2819.2	2914
2820.06	2918
2820.93	2878
2821.79	2848
2822.65	2918
2823.51	2902
2824.38	2920
2825.24	2856
2826.1	2980
2826.96	2850
2827.82	2834
2828.69	2928
2829.55	2890
2830.41	2850
2831.27	2796
2832.13	2882
2832.99	2880
2833.85	2794
2834.71	2802
2835.57	2840
2836.44	2828
2837.3	2870
2838.16	2810
2839.02	2828
2839.88	2814
2840.74	2776
2841.6	2878
2842.46	2848
2843.32	2794
2844.18	2844
2845.03	2776
2845.89	2728
2846.75	2824
2847.61	2730
2848.47	2734
2849.33	2780
2850.19	2834
2851.05	2754
2851.9	2792
2852.76	2694
2853.62	2770
2854.48	2738
2855.34	2712
2856.19	2690
2857.05	2764
2857.91	2668
2858.77	2706
2859.62	2676
2860.48	2752
2861.34	2704
2862.19	2720
2863.05	2724
2863.91	2628
2864.76	2686
2865.62	2718
2866.48	2686
2867.33	2638
2868.19	2690
2869.04	2728
2869.9	2652
2870.76	2648
2871.61	2630
2872.47	2640
2873.32	2684
2874.18	2704
2875.03	2632
2875.89	2610
2876.74	2608
2877.6	2656
2878.45	2626
2879.31	2598
2880.16	2616
2881.01	2600
2881.87	2608
2882.72	2602
2883.58	2656
2884.43	2638
2885.28	2568
2886.14	2566
2886.99	2568
2887.84	2634
2888.7	2634
2889.55	2568
2890.4	2600
2891.25	2572
2892.11	2654
2892.96	2562
2893.81	2556
2894.66	2540
2895.52	2516
2896.37	2562
2897.22	2518
2898.07	2540
2898.92	2512
2899.77	2512
2900.62	2524
2901.48	2526
2902.33	2586
2903.18	2550
2904.03	2548
2904.88	2542
2905.73	2528
2906.58	2524
2907.43	2498
2908.28	2486
2909.13	2494
2909.98	2526
2910.83	2496
2911.68	2568
2912.53	2556
2913.38	2472
2914.23	2530
2915.08	2470
2915.93	2496
2916.78	2500
2917.63	2532
2918.47	2534
2919.32	2492
2920.17	2516
2921.02	2480
2921.87	2448
2922.72	2492
2923.56	2454
2924.41	2454
2925.26	2524
2926.11	2462
2926.95	2496
2927.8	2440
2928.65	2394
2929.5	2438
2930.34	2440
2931.19	2420
2932.04	2442
2932.88	2376
2933.73	2416
2934.58	2484
2935.42	2446
2936.27	2426
2937.11	2440
2937.96	2390
2938.81	2416
2939.65	2394
2940.5	2470
2941.34	2436
2942.19	2438
2943.03	2472
2943.88	2402
2944.72	2364
2945.57	2400
2946.41	2408
2947.26	2374
2948.1	2410
2948.95	2400
2949.79	2390
2950.64	2378
2951.48	2396
2952.32	2398
2953.17	2380
2954.01	2390
2954.85	2358
2955.7	2360
2956.54	2306
2957.38	2380
2958.23	2396
2959.07	2376
2959.91	2332
2960.75	2296
2961.6	2364
2962.44	2296
2963.28	2324
2964.12	2372
2964.97	2358
2965.81	2314
2966.65	2326
2967.49	2302
2968.33	2302
2969.17	2334
2970.02	2324
2970.86	2310
2971.7	2342
2972.54	2302
2973.38	2260
2974.22	2302
2975.06	2220
2975.9	2340
2976.74	2244
2977.58	2268
2978.42	2330
2979.26	2254
2980.1	2204
2980.94	2232
2981.78	2240
2982.62	2260
2983.46	2256
2984.3	2278
2985.14	2286
2985.98	2240
2986.82	2224
2987.66	2250
2988.49	2246
2989.33	2242
2990.17	2162
2991.01	2230
2991.85	2192
2992.69	2166
2993.52	2234
2994.36	2228
2995.2	2220
2996.04	2232
2996.87	2218
2997.71	2208
2998.55	2158
2999.39	2164
