#Acq. time (s)=	10
#Accumulations=	1
#Range (cm-¹)=	100...3000
#Windows=	3
#Autofocus=	Off
#AutoExposure=	Off
#Spike filter=	Off
#Delay time (s)=	0
#Binning=	1
#Readout mode=	Signal
#DeNoise=	Off
#ICS correction=	Off
#Dark correction=	Off
#Inst. Process=	Off
#Instrument=	LabRAM HR Evol
#Detector=	Syncerity OE
#Objective=	x100_VIS
#Grating=	600 (500nm)
#ND Filter=	3.2%
#Laser=	633nm_Edge
#Hole=	100.021
#Range=	Visible
#Project=	Omar
#Sample=	26-06-23
#Site=	2
#Title=	Organic
#Remark=	
#Date=	26.06.2023 16:19
#Acquired=	26.06.2023 16:19:57
101.018	4142
102.302	4122
103.586	4152
104.869	4146
106.152	4180
107.435	4176
108.717	4182
109.999	4140
111.281	4214
112.563	4162
113.845	4264
115.126	4190
116.407	4208
117.688	4238
118.969	4270
120.249	4212
121.53	4230
122.81	4272
124.09	4232
125.369	4266
126.649	4226
127.928	4206
129.207	4262
130.486	4312
131.765	4368
133.043	4328
134.321	4306
135.599	4354
136.877	4446
138.155	4380
139.432	4410
140.708	4306
141.985	4354
143.261	4416
144.538	4354
145.814	4426
147.09	4352
148.366	4404
149.641	4426
150.916	4390
152.191	4438
153.466	4378
154.741	4504
156.016	4448
157.289	4548
158.563	4462
159.837	4450
161.111	4564
162.385	4472
163.657	4414
164.93	4416
166.203	4510
167.476	4562
168.747	4496
170.019	4572
171.291	4530
172.562	4530
173.834	4618
175.105	4504
176.377	4526
177.646	4500
178.917	4504
180.188	4636
181.457	4566
182.727	4570
183.996	4536
185.266	4618
186.536	4584
187.804	4558
189.073	4630
190.342	4570
191.609	4582
192.878	4644
194.145	4600
195.413	4762
196.681	4736
197.948	4732
199.215	4742
200.481	4742
201.749	4774
203.014	4700
204.281	4798
205.546	4758
206.813	4782
208.077	4786
209.343	4746
210.608	4810
211.873	4842
213.137	4874
214.402	4822
215.666	4910
216.93	4874
218.194	4886
219.458	4832
220.721	4862
221.983	4890
223.247	4870
224.509	4950
225.772	4966
227.034	4960
228.295	4874
229.558	5008
230.819	4938
232.081	5002
233.342	5026
234.602	5018
235.864	5026
237.124	5084
238.384	5040
239.645	5048
240.904	5056
242.164	5100
243.423	5074
244.683	4966
245.941	5140
247.2	5084
248.46	5156
249.717	5116
250.975	5204
252.233	5094
253.492	5160
254.749	5134
256.006	5120
257.263	5152
258.519	5110
259.777	5184
261.033	5168
262.289	5190
263.545	5216
264.8	5184
266.057	5116
267.312	5206
268.567	5156
269.822	5096
271.076	5200
272.331	5182
273.585	5180
274.839	5216
276.094	5130
277.347	5204
278.601	5140
279.854	5180
281.107	5226
282.359	5208
283.612	5288
284.864	5248
286.116	5264
287.368	5298
288.62	5302
289.871	5358
291.123	5376
292.374	5346
293.625	5362
294.875	5430
296.126	5380
297.376	5382
298.626	5412
299.876	5352
301.126	5418
302.375	5504
303.625	5380
304.874	5466
306.122	5484
307.371	5438
308.62	5540
309.866	5542
311.114	5572
312.362	5512
313.61	5564
314.857	5562
316.105	5562
317.352	5474
318.599	5586
319.844	5592
321.09	5582
322.337	5596
323.583	5536
324.828	5646
326.073	5706
327.318	5668
328.563	5572
329.808	5588
331.053	5552
332.296	5642
333.541	5680
334.785	5588
336.029	5696
337.272	5750
338.515	5664
339.759	5664
341.001	5852
342.244	5784
343.486	5726
344.728	5822
345.97	5770
347.212	5812
348.453	5742
349.695	5766
350.936	5750
352.176	5782
353.418	5844
354.659	5860
355.898	5826
357.139	5786
358.378	5872
359.618	5838
360.858	5836
362.097	5850
363.336	6024
364.574	6006
365.813	5734
367.051	5938
368.29	5968
369.527	5922
370.766	5928
372.002	5958
373.241	5922
374.477	6002
375.715	5928
376.951	5970
378.188	5914
379.424	5942
380.66	5962
381.896	6024
383.132	5962
384.367	5944
385.603	5972
386.838	6022
388.072	5988
389.307	6022
390.541	5978
391.776	5996
393.01	6002
394.243	6086
395.477	6050
396.71	6056
397.943	6096
399.177	6048
400.409	6038
401.641	6096
402.875	6094
404.106	6080
405.338	6182
406.57	6256
407.802	6124
409.032	6200
410.263	6254
411.495	6254
412.725	6206
413.955	6304
415.185	6302
416.417	6354
417.646	6370
418.875	6302
420.104	6394
421.335	6378
422.564	6438
423.792	6426
425.02	6462
426.249	6510
427.477	6504
428.706	6454
429.933	6476
431.161	6568
432.388	6580
433.615	6504
434.841	6612
436.068	6564
437.294	6590
438.522	6550
439.748	6694
440.974	6570
442.199	6582
443.425	6694
444.65	6694
445.875	6690
447.1	6660
448.324	6780
449.549	6632
450.773	6626
451.997	6690
453.221	6688
454.445	6726
455.668	6720
456.891	6632
458.114	6716
459.337	6696
460.56	6770
461.782	6748
463.005	6728
464.227	6674
465.447	6730
466.669	6804
467.89	6788
469.112	6692
470.333	6868
471.554	6718
472.774	6834
473.995	6748
475.214	6910
476.434	6836
477.654	6940
478.874	6892
480.093	6820
481.312	6920
482.53	6842
483.749	6884
484.968	6974
486.186	7068
487.405	7028
488.622	7016
489.84	6978
491.057	6986
492.275	7048
493.491	7032
494.708	7076
495.925	7100
497.141	7104
498.357	7004
499.574	7122
500.789	7166
502.005	7170
503.221	7124
504.435	7096
505.65	7116
506.866	7138
508.079	7172
509.294	7166
510.509	7264
511.722	7192
512.936	7238
514.149	7200
515.363	7210
516.577	7260
517.789	7286
519.002	7314
520.214	7386
521.427	7244
522.638	7226
523.851	7206
525.062	7402
526.274	7360
527.485	7216
528.697	7306
529.907	7360
531.118	7380
532.328	7308
533.539	7302
534.748	7326
535.959	7296
537.168	7370
538.379	7386
539.587	7334
540.796	7434
542.005	7472
543.214	7442
544.423	7432
545.631	7406
546.838	7470
548.047	7374
549.254	7444
550.461	7468
551.669	7558
552.876	7486
554.082	7554
555.29	7496
556.496	7474
557.701	7588
558.909	7524
560.114	7580
561.319	7466
562.524	7570
563.731	7660
564.935	7734
566.14	7620
567.344	7736
568.549	7654
569.753	7638
570.957	7700
572.161	7726
573.364	7744
574.568	7750
575.771	7684
576.974	7620
578.177	7722
579.379	7838
580.581	7852
581.785	7840
582.987	7848
584.188	7876
585.39	7876
586.591	7882
587.792	7828
588.993	7864
590.193	7950
591.394	7918
592.594	8036
593.796	8114
594.996	8008
596.195	8088
597.395	8128
598.594	8130
599.793	8188
600.992	8090
602.191	8222
603.39	8124
604.588	8176
605.786	8288
606.984	8172
608.181	8226
609.378	8352
610.576	8240
611.773	8200
612.97	8440
614.167	8362
615.364	8388
616.56	8234
617.757	8526
618.953	8314
620.149	8448
621.343	8592
622.539	8510
623.734	8508
624.929	8564
626.124	8572
627.319	8694
628.512	8598
629.707	8604
630.901	8722
632.095	8742
633.289	8764
634.481	8800
635.675	8940
636.868	8688
638.061	8916
639.253	8884
640.446	8816
641.638	8874
642.831	8986
644.021	8950
645.213	9012
646.405	8988
647.595	9004
648.787	9114
649.978	9028
651.168	9062
652.359	8954
653.549	9212
654.738	9094
655.929	9126
657.117	9150
658.307	9144
659.497	9206
660.685	9364
661.875	9208
663.063	9292
664.252	9398
665.439	9356
666.628	9336
667.816	9402
669.003	9406
670.191	9378
671.378	9322
672.565	9418
673.751	9530
674.939	9532
676.124	9518
677.311	9546
678.497	9524
679.682	9540
680.868	9684
682.053	9604
683.239	9498
684.424	9614
685.609	9608
686.793	9638
687.977	9632
689.162	9782
690.346	9780
691.529	9608
692.714	9780
693.897	9804
695.081	9800
696.264	9830
697.446	9862
698.63	9926
699.812	9978
700.993	9888
702.175	10020
703.358	9948
704.539	10100
705.72	10076
706.901	10140
708.083	10138
709.264	10070
710.444	10182
711.625	10302
712.806	10260
713.986	10196
715.165	10430
716.345	10380
717.524	10352
718.705	10472
719.884	10470
721.062	10472
722.241	10466
723.419	10632
724.597	10576
725.775	10638
726.954	10660
728.132	10538
729.31	10778
730.487	10624
731.664	10696
732.841	10784
734.017	10760
735.194	10766
736.37	10792
737.546	10786
738.722	10950
739.898	10998
741.074	11068
742.249	10936
743.424	11018
744.599	11032
745.774	11092
746.949	10948
748.123	11168
749.298	11192
750.472	11156
751.646	11160
752.819	11360
753.993	11120
755.166	11220
756.34	11262
757.511	11200
758.684	11420
759.857	11368
761.029	11456
762.202	11370
763.374	11474
764.546	11512
765.716	11526
766.888	11486
768.059	11446
769.23	11594
770.401	11600
771.571	11722
772.741	11636
773.912	11724
775.082	11818
776.251	11726
777.421	11902
778.59	11876
779.76	11928
780.928	11930
782.097	11956
783.266	11936
784.434	11942
785.602	12148
786.771	12158
787.938	12248
789.106	12116
790.274	12212
791.44	12252
792.608	12258
793.775	12294
794.941	12242
796.108	12356
797.273	12398
798.44	12366
799.606	12558
800.771	12544
801.937	12524
803.102	12660
804.268	12642
805.432	12816
806.597	12656
807.761	12722
808.926	12766
810.09	12852
811.254	13066
812.417	12828
813.582	13108
814.744	12992
815.908	13006
817.071	13406
818.234	13136
819.396	13348
820.558	13312
821.721	13232
822.883	13304
824.045	13440
825.206	13338
826.367	13446
827.529	13498
828.69	13562
829.85	13644
831.012	13678
832.172	13750
833.332	13830
834.493	13804
835.653	13852
836.812	13798
837.972	13982
839.131	13948
840.29	14100
841.449	14138
842.609	14240
843.767	14242
844.925	14292
846.083	14270
847.242	14290
848.399	14362
849.557	14324
850.714	14400
851.871	14510
853.029	14534
854.186	14556
855.342	14646
856.498	14618
857.654	14738
858.81	14802
859.966	14930
861.122	14818
862.278	14888
863.434	15040
864.589	15110
865.744	14998
866.898	15172
868.053	15138
869.207	15096
870.361	15272
871.515	15438
872.669	15312
873.822	15314
874.976	15350
876.129	15462
877.282	15248
878.435	15464
879.588	15396
880.74	15420
881.893	15692
883.045	15642
884.197	15776
885.349	15686
886.5	15800
887.652	15688
888.802	15908
889.953	15670
891.104	15844
892.254	15936
893.405	15814
894.555	15792
895.706	15926
896.854	15966
898.004	16066
899.154	16214
900.303	16162
901.453	16128
902.6	16324
903.749	16248
904.898	16352
906.047	16308
907.194	16334
908.342	16298
909.49	16360
910.638	16450
911.785	16502
912.932	16662
914.08	16450
915.225	16570
916.372	16760
917.519	16904
918.666	16618
919.811	17002
920.957	16972
922.102	16966
923.248	16818
924.394	16798
925.538	17086
926.684	16998
927.828	17328
928.973	17014
930.118	17250
931.261	17390
932.406	17328
933.549	17290
934.693	17378
935.836	17356
936.979	17630
938.122	17734
939.265	17584
940.407	17784
941.55	17680
942.692	17732
943.835	17956
944.976	17866
946.118	17944
947.259	18026
948.401	18152
949.542	18044
950.682	18090
951.824	18356
952.964	18290
954.105	18274
955.245	18554
956.385	18430
957.525	18564
958.664	18630
959.803	18618
960.944	18626
962.082	18678
963.221	18890
964.36	18778
965.498	18958
966.636	18890
967.774	18844
968.913	19092
970.051	19148
971.188	19122
972.325	19096
973.463	19230
974.6	19248
975.736	19214
976.873	19322
978.009	19342
979.146	19506
980.282	19636
981.418	19348
982.554	19516
983.689	19524
984.824	19524
985.959	19686
987.095	19506
988.23	19684
989.364	19846
990.499	19760
991.633	19890
992.767	19848
993.9	19724
995.034	20098
996.167	20096
997.301	20156
998.434	20084
999.567	20072
1000.7	20172
1001.83	20116
1002.96	20480
1004.1	20102
1005.23	20346
1006.36	20204
1007.49	20318
1008.62	20372
1009.76	20504
1010.89	20610
1012.02	20440
1013.15	20634
1014.28	20820
1015.41	20872
1016.54	20920
1017.67	20822
1018.8	20870
1019.93	21272
1021.06	21132
1022.19	21060
1023.32	21092
1024.44	21102
1025.57	21236
1026.7	21376
1027.83	21344
1028.96	21376
1030.09	21284
1031.21	21602
1032.34	21578
1033.47	21654
1034.6	21478
1035.72	21608
1036.85	21664
1037.98	21874
1039.1	21712
1040.23	21810
1041.35	22014
1042.48	22232
1043.61	22098
1044.73	22018
1045.86	22246
1046.98	22334
1048.11	22444
1049.23	22224
1050.36	22194
1051.48	22096
1052.61	22484
1053.73	22474
1054.85	22554
1055.98	22590
1057.1	22616
1058.22	22682
1059.35	22618
1060.47	22736
1061.59	22852
1062.72	22670
1063.84	23028
1064.96	22944
1066.08	22838
1067.2	22904
1068.33	22854
1069.45	22874
1070.57	23166
1071.69	23054
1072.81	23144
1073.93	22996
1075.05	23068
1076.17	23196
1077.29	23226
1078.41	23084
1079.53	23200
1080.65	23072
1081.77	23186
1082.89	23050
1084.01	23078
1085.13	23240
1086.25	23136
1087.37	23178
1088.48	23156
1089.6	23160
1090.72	23182
1091.84	23146
1092.96	23152
1094.07	23168
1095.19	23268
1096.31	23334
1097.43	23172
1098.54	23116
1099.66	23126
1100.78	23000
1101.89	23220
1103.01	23444
1104.12	23248
1105.24	23268
1106.35	23222
1107.47	23188
1108.59	23384
1109.7	23264
1110.81	23340
1111.93	23422
1113.04	23230
1114.16	23418
1115.27	23256
1116.39	23478
1117.5	23594
1118.61	23422
1119.73	23608
1120.84	23430
1121.95	23352
1123.06	23490
1124.18	23422
1125.29	23448
1126.4	23532
1127.51	23612
1128.63	23770
1129.74	23660
1130.85	23690
1131.96	23422
1133.07	23718
1134.18	23656
1135.29	23894
1136.4	23740
1137.51	23780
1138.62	23738
1139.73	23734
1140.84	23762
1141.95	23816
1143.06	23948
1144.17	23660
1145.28	23662
1146.39	23708
1147.5	23786
1148.61	23878
1149.72	23740
1150.82	23896
1151.93	23810
1153.04	23914
1154.15	23878
1155.26	24000
1156.36	23846
1157.47	23992
1158.58	23834
1159.68	23774
1160.79	23868
1161.9	24046
1163	23968
1164.11	24028
1165.22	23768
1166.32	24040
1167.43	23980
1168.53	23836
1169.64	23874
1170.74	23988
1171.85	23884
1172.95	23778
1174.06	23778
1175.16	23728
1176.26	23840
1177.37	23656
1178.47	23850
1179.58	23782
1180.68	23654
1181.78	23770
1182.88	23962
1183.99	23454
1185.09	23454
1186.19	23560
1187.3	23462
1188.4	23360
1189.5	23378
1190.6	23316
1191.7	23316
1192.8	23460
1193.9	23448
1195.01	23086
1196.11	22955.7
1197.21	23092.2
1198.31	23148.9
1199.41	23087.3
1200.51	22969.3
1201.61	22949.5
1202.71	22749.3
1203.81	22831.7
1204.91	22825.1
1206.01	22832.1
1207.11	22808.2
1208.2	22789.8
1209.3	22631.8
1210.4	22552.7
1211.5	22430.2
1212.6	22429.1
1213.7	22493.8
1214.8	22439.5
1215.89	22409.3
1216.99	22362.1
1218.09	22309.4
1219.18	22205
1220.28	22214.1
1221.38	22100
1222.48	22104.4
1223.57	22061.5
1224.67	22087.7
1225.76	22080.5
1226.86	22123
1227.96	22014.2
1229.05	21971.3
1230.15	21866.7
1231.24	21807.1
1232.34	21890
1233.43	21781.5
1234.53	21767.4
1235.62	21654.7
1236.71	21690.7
1237.81	21680.6
1238.9	21602.4
1240	21632.6
1241.09	21596.3
1242.18	21551.2
1243.28	21551.3
1244.37	21501.3
1245.46	21413
1246.56	21352.3
1247.65	21349.3
1248.74	21228.5
1249.83	21314.1
1250.93	21198
1252.02	21272.2
1253.11	21219.8
1254.2	21147.6
1255.29	21180
1256.38	21137.3
1257.47	20977.4
1258.56	21061
1259.65	21014
1260.74	21046.3
1261.84	21113.1
1262.92	21008.9
1264.01	20875.9
1265.1	20784.7
1266.19	20767.2
1267.28	20739.6
1268.37	20778.9
1269.46	20802.4
1270.55	20746.4
1271.64	20684.4
1272.73	20577.9
1273.82	20616.6
1274.9	20669.1
1275.99	20550.6
1277.08	20445.1
1278.17	20502.7
1279.26	20336.6
1280.34	20277.5
1281.43	20290.8
1282.52	20236.6
1283.6	20213.3
1284.69	20236.1
1285.78	20222.2
1286.86	20166.5
1287.95	20176.1
1289.03	19997.3
1290.12	19974.7
1291.21	19909
1292.29	19886.2
1293.38	19932.5
1294.46	19800.6
1295.55	19844.9
1296.63	19678.7
1297.71	19807.6
1298.8	19713.7
1299.88	19511.8
1300.97	19669.3
1302.05	19644.1
1303.13	19397.6
1304.22	19262.1
1305.3	19360.7
1306.38	19283.6
1307.34	19266
1308.43	19286
1309.52	19274
1310.61	19300
1311.7	19106
1312.78	19080
1313.87	19096
1314.96	18842
1316.05	18982
1317.13	18888
1318.22	18772
1319.3	18596
1320.39	18536
1321.48	18660
1322.56	18514
1323.65	18474
1324.73	18382
1325.82	18514
1326.9	18324
1327.99	18334
1329.07	18134
1330.16	18188
1331.24	18144
1332.33	18066
1333.41	18176
1334.5	17992
1335.58	17974
1336.66	17770
1337.75	17880
1338.83	17804
1339.91	17632
1341	17590
1342.08	17512
1343.16	17474
1344.25	17688
1345.33	17460
1346.41	17586
1347.49	17346
1348.57	17346
1349.65	17410
1350.74	17238
1351.82	17286
1352.9	17296
1353.98	17096
1355.06	17276
1356.14	17230
1357.22	17146
1358.3	17012
1359.38	16862
1360.46	16904
1361.54	16812
1362.62	16830
1363.7	16598
1364.78	16622
1365.86	16680
1366.94	16836
1368.02	16556
1369.09	16496
1370.17	16482
1371.25	16438
1372.33	16398
1373.41	16288
1374.48	16288
1375.56	16376
1376.64	16300
1377.72	16182
1378.79	16154
1379.87	16180
1380.95	16156
1382.02	16122
1383.1	15996
1384.17	15972
1385.25	16086
1386.33	15956
1387.4	16020
1388.48	15686
1389.55	15996
1390.63	15840
1391.7	15892
1392.78	15810
1393.85	15674
1394.93	15674
1396	15634
1397.07	15688
1398.15	15620
1399.22	15592
1400.3	15496
1401.37	15430
1402.44	15284
1403.52	15486
1404.59	15364
1405.66	15326
1406.73	15326
1407.81	15374
1408.88	15312
1409.95	15194
1411.02	15072
1412.09	15008
1413.17	15100
1414.24	15096
1415.31	15138
1416.38	15054
1417.45	15004
1418.52	14912
1419.59	14960
1420.66	14948
1421.73	14928
1422.8	14730
1423.87	14750
1424.94	14784
1426.01	14702
1427.08	14636
1428.15	14822
1429.22	14654
1430.29	14542
1431.35	14662
1432.42	14736
1433.49	14490
1434.56	14472
1435.63	14562
1436.7	14334
1437.76	14374
1438.83	14316
1439.9	14366
1440.96	14340
1442.03	14254
1443.1	14270
1444.17	14264
1445.23	14352
1446.3	14420
1447.36	14238
1448.43	14166
1449.49	14090
1450.56	14190
1451.63	14062
1452.69	14196
1453.76	14152
1454.82	14042
1455.89	14062
1456.95	14002
1458.01	13994
1459.08	13932
1460.14	13846
1461.21	13952
1462.27	13950
1463.34	14230
1464.4	13834
1465.46	13840
1466.52	13916
1467.59	13854
1468.65	13774
1469.71	13762
1470.77	13826
1471.84	13780
1472.9	13584
1473.96	13726
1475.02	13514
1476.08	13766
1477.15	13668
1478.21	13520
1479.27	13804
1480.33	13704
1481.39	13564
1482.45	13504
1483.51	13478
1484.57	13372
1485.63	13434
1486.69	13450
1487.75	13448
1488.81	13414
1489.87	13362
1490.93	13284
1491.99	13282
1493.05	13374
1494.1	13326
1495.16	13334
1496.22	13096
1497.28	13220
1498.34	13186
1499.4	13228
1500.45	13114
1501.51	13184
1502.57	13230
1503.63	13054
1504.68	13094
1505.74	13090
1506.8	13070
1507.85	12826
1508.91	13096
1509.97	12938
1511.02	12976
1512.08	12844
1513.13	12836
1514.19	12816
1515.24	12888
1516.3	12746
1517.35	12892
1518.41	12704
1519.46	12752
1520.52	12826
1521.57	12684
1522.63	12670
1523.68	12690
1524.73	12612
1525.79	12666
1526.84	12598
1527.9	12524
1528.95	12640
1530	12442
1531.06	12444
1532.11	12516
1533.16	12386
1534.21	12318
1535.26	12356
1536.32	12408
1537.37	12358
1538.42	12450
1539.47	12384
1540.52	12332
1541.57	12292
1542.63	12408
1543.68	12230
1544.73	12086
1545.78	12110
1546.83	12272
1547.88	12040
1548.93	12166
1549.98	12054
1551.03	12224
1552.08	12108
1553.13	12230
1554.18	12158
1555.23	11958
1556.27	12076
1557.32	12058
1558.37	12040
1559.42	11922
1560.47	12030
1561.52	11882
1562.56	11932
1563.61	11918
1564.66	11884
1565.71	11880
1566.75	11834
1567.8	11862
1568.85	11958
1569.9	11808
1570.94	11774
1571.99	11746
1573.03	11634
1574.08	11696
1575.13	11608
1576.17	11820
1577.22	11712
1578.26	11746
1579.31	11694
1580.35	11806
1581.4	11718
1582.44	11698
1583.49	11754
1584.53	11642
1585.58	11582
1586.62	11666
1587.66	11528
1588.71	11616
1589.75	11628
1590.8	11632
1591.84	11644
1592.88	11658
1593.93	11542
1594.97	11592
1596.01	11572
1597.05	11506
1598.1	11490
1599.14	11534
1600.18	11532
1601.22	11598
1602.26	11492
1603.31	11418
1604.35	11524
1605.39	11426
1606.43	11542
1607.47	11444
1608.51	11386
1609.55	11534
1610.59	11456
1611.63	11378
1612.67	11398
1613.71	11400
1614.75	11410
1615.79	11556
1616.83	11424
1617.87	11408
1618.91	11556
1619.95	11284
1620.99	11456
1622.02	11374
1623.06	11228
1624.1	11376
1625.14	11322
1626.18	11332
1627.21	11388
1628.25	11266
1629.29	11304
1630.33	11208
1631.36	11328
1632.4	11336
1633.44	11266
1634.48	11130
1635.51	11266
1636.55	11284
1637.58	11172
1638.62	11156
1639.66	11288
1640.69	11108
1641.73	11106
1642.76	11154
1643.8	11086
1644.83	11120
1645.87	11174
1646.9	11074
1647.94	11212
1648.97	11186
1650	10928
1651.04	11074
1652.07	11044
1653.11	11060
1654.14	10916
1655.17	10836
1656.21	11002
1657.24	10900
1658.27	10898
1659.31	10832
1660.34	11032
1661.37	10726
1662.4	10824
1663.43	10832
1664.47	10832
1665.5	10782
1666.53	10732
1667.56	10736
1668.59	10892
1669.62	10650
1670.66	10758
1671.69	10796
1672.72	10708
1673.75	10614
1674.78	10594
1675.81	10714
1676.84	10722
1677.87	10714
1678.9	10700
1679.93	10606
1680.96	10430
1681.98	10620
1683.01	10502
1684.04	10678
1685.07	10608
1686.1	10636
1687.13	10568
1688.16	10528
1689.19	10594
1690.21	10570
1691.24	10592
1692.27	10446
1693.3	10516
1694.32	10472
1695.35	10452
1696.38	10348
1697.4	10360
1698.43	10390
1699.46	10484
1700.48	10394
1701.51	10232
1702.54	10370
1703.56	10476
1704.59	10318
1705.61	10238
1706.64	10274
1707.66	10128
1708.69	10250
1709.71	10216
1710.74	10162
1711.76	10292
1712.79	10204
1713.81	10276
1714.83	10296
1715.86	10206
1716.88	10240
1717.91	10238
1718.93	10132
1719.95	10198
1720.98	10146
1722	10154
1723.02	10076
1724.04	10168
1725.07	10130
1726.09	10118
1727.11	9990
1728.13	10110
1729.15	10024
1730.18	10000
1731.2	10092
1732.22	10032
1733.24	10002
1734.26	9980
1735.28	10042
1736.3	10048
1737.32	9948
1738.34	10042
1739.36	9964
1740.38	10028
1741.4	9960
1742.42	9956
1743.44	9962
1744.46	9938
1745.48	9958
1746.5	10044
1747.52	9914
1748.54	9888
1749.56	10034
1750.58	9938
1751.6	9914
1752.61	10112
1753.63	9936
1754.65	9926
1755.67	9916
1756.68	9858
1757.7	9870
1758.72	9962
1759.74	9846
1760.75	9924
1761.77	9904
1762.79	9786
1763.8	9848
1764.82	9914
1765.84	9840
1766.85	9856
1767.87	9776
1768.88	9796
1769.9	9790
1770.91	9884
1771.93	9722
1772.94	9806
1773.96	9762
1774.97	9870
1775.99	9742
1777	9672
1778.02	9618
1779.03	9746
1780.04	9848
1781.06	9666
1782.07	9686
1783.09	9820
1784.1	9830
1785.11	9742
1786.13	9730
1787.14	9656
1788.15	9716
1789.16	9768
1790.18	9738
1791.19	9766
1792.2	9614
1793.21	9650
1794.22	9826
1795.23	9754
1796.25	9644
1797.26	9514
1798.27	9678
1799.28	9606
1800.29	9628
1801.3	9682
1802.31	9644
1803.32	9556
1804.33	9534
1805.34	9624
1806.35	9464
1807.36	9612
1808.37	9430
1809.38	9616
1810.39	9570
1811.4	9520
1812.41	9652
1813.42	9540
1814.43	9538
1815.43	9508
1816.44	9496
1817.45	9476
1818.46	9528
1819.47	9428
1820.47	9576
1821.48	9556
1822.49	9452
1823.49	9348
1824.5	9416
1825.51	9466
1826.52	9522
1827.52	9436
1828.53	9434
1829.54	9376
1830.54	9494
1831.55	9274
1832.55	9378
1833.56	9248
1834.56	9268
1835.57	9252
1836.57	9254
1837.58	9240
1838.58	9330
1839.59	9324
1840.59	9258
1841.6	9352
1842.6	9288
1843.61	9180
1844.61	9202
1845.61	9184
1846.62	9074
1847.62	9210
1848.62	9190
1849.63	9204
1850.63	9256
1851.63	9210
1852.64	9162
1853.64	9154
1854.64	9226
1855.64	9222
1856.64	9216
1857.65	9102
1858.65	9056
1859.65	9146
1860.65	9094
1861.65	9124
1862.65	9168
1863.65	9068
1864.66	9050
1865.66	9174
1866.66	9020
1867.66	9062
1868.66	8980
1869.66	9040
1870.66	9018
1871.66	9088
1872.66	8954
1873.66	9018
1874.66	8948
1875.65	9018
1876.65	9036
1877.65	8950
1878.65	8966
1879.65	8958
1880.65	9000
1881.65	8910
1882.64	8950
1883.64	8938
1884.64	8998
1885.64	9028
1886.63	8888
1887.63	8902
1888.63	8876
1889.63	8938
1890.62	8856
1891.62	8916
1892.62	8864
1893.61	8818
1894.61	8976
1895.6	8804
1896.6	8824
1897.6	8748
1898.59	8934
1899.59	8950
1900.58	8872
1901.58	8964
1902.57	8966
1903.57	8906
1904.56	8984
1905.56	8912
1906.55	8898
1907.54	8906
1908.54	8930
1909.53	8946
1910.53	8828
1911.52	8904
1912.51	8762
1913.51	8898
1914.5	8890
1915.49	8876
1916.49	8776
1917.48	8908
1918.47	8920
1919.46	8828
1920.46	8810
1921.45	8798
1922.44	8872
1923.43	8820
1924.42	8842
1925.41	8748
1926.41	8892
1927.4	8720
1928.39	8816
1929.38	8744
1930.37	8780
1931.36	8778
1932.35	8658
1933.34	8800
1934.33	8740
1935.32	8744
1936.31	8754
1937.3	8860
1938.29	8888
1939.28	8714
1940.27	8754
1941.26	8670
1942.24	8666
1943.23	8622
1944.22	8714
1945.21	8744
1946.2	8698
1947.19	8740
1948.17	8662
1949.16	8750
1950.15	8691
1951.14	8632
1952.13	8638
1953.11	8688
1954.1	8710
1955.09	8668
1956.07	8678
1957.06	8628
1958.05	8618
1959.03	8492
1960.02	8496
1961	8640
1961.99	8572
1962.98	8638
1963.96	8604
1964.95	8532
1965.93	8510
1966.92	8532
1967.9	8550
1968.89	8510
1969.87	8614
1970.85	8422
1971.84	8388
1972.82	8452
1973.81	8502
1974.79	8594
1975.78	8518
1976.76	8420
1977.74	8444
1978.73	8530
1979.71	8538
1980.69	8522
1981.67	8420
1982.66	8478
1983.64	8390
1984.62	8474
1985.6	8376
1986.59	8550
1987.57	8376
1988.55	8348
1989.53	8476
1990.51	8498
1991.49	8334
1992.47	8464
1993.45	8364
1994.44	8434
1995.42	8420
1996.4	8470
1997.38	8330
1998.36	8326
1999.34	8388
2000.32	8372
2001.3	8482
2002.28	8370
2003.26	8392
2004.24	8312
2005.22	8302
2006.19	8322
2007.17	8320
2008.15	8328
2009.13	8354
2010.11	8368
2011.09	8264
2012.06	8326
2013.04	8270
2014.02	8352
2015	8312
2015.98	8238
2016.95	8112
2017.93	8272
2018.91	8246
2019.88	8374
2020.86	8218
2021.84	8218
2022.81	8322
2023.79	8232
2024.77	8322
2025.74	8142
2026.72	8202
2027.69	8232
2028.67	8160
2029.65	8144
2030.62	8282
2031.6	8278
2032.57	8228
2033.55	8160
2034.52	8210
2035.5	8170
2036.47	8212
2037.44	8106
2038.42	8170
2039.39	8204
2040.36	8220
2041.34	8238
2042.31	8180
2043.29	8196
2044.26	8200
2045.23	8132
2046.2	8140
2047.18	8088
2048.15	8082
2049.12	8090
2050.09	8216
2051.07	8270
2052.04	8108
2053.01	8270
2053.98	8062
2054.95	8178
2055.93	8090
2056.9	8044
2057.87	8114
2058.84	8102
2059.81	8072
2060.78	8156
2061.75	8090
2062.72	8112
2063.69	8048
2064.66	8016
2065.63	7998
2066.6	7964
2067.57	8116
2068.54	7884
2069.51	7956
2070.48	7894
2071.45	7956
2072.42	7938
2073.38	7916
2074.35	7926
2075.32	8004
2076.29	7982
2077.26	8004
2078.23	8008
2079.19	7896
2080.16	8044
2081.13	7832
2082.1	7920
2083.06	7868
2084.03	7994
2085	8022
2085.96	7978
2086.93	7804
2087.9	7938
2088.86	7960
2089.83	7918
2090.8	7952
2091.76	7954
2092.73	7842
2093.69	7836
2094.66	7866
2095.62	7782
2096.59	7952
2097.55	7936
2098.52	7802
2099.48	7858
2100.45	7870
2101.41	7850
2102.38	7922
2103.34	7870
2104.31	7856
2105.27	7734
2106.23	7960
2107.2	7844
2108.16	7818
2109.12	7834
2110.09	7856
2111.05	7822
2112.01	7832
2112.98	7784
2113.94	7786
2114.9	7818
2115.86	7792
2116.82	7712
2117.79	7758
2118.75	7690
2119.71	7858
2120.67	7782
2121.63	7848
2122.59	7770
2123.55	7884
2124.52	7748
2125.48	7736
2126.44	7822
2127.4	7680
2128.36	7684
2129.32	7738
2130.28	7770
2131.24	7668
2132.2	7708
2133.16	7740
2134.12	7712
2135.08	7678
2136.04	7730
2136.99	7716
2137.95	7792
2138.91	7584
2139.87	7686
2140.83	7568
2141.79	7704
2142.75	7642
2143.7	7504
2144.66	7620
2145.62	7559.72
2146.58	7654.15
2147.53	7696.22
2148.49	7619.94
2149.45	7552.63
2150.41	7637
2151.36	7577.56
2152.32	7539.01
2153.28	7606.33
2154.23	7631.98
2155.19	7581.52
2156.14	7632.28
2157.1	7513.07
2158.06	7527.35
2159.01	7456.99
2159.97	7536.93
2160.92	7449.6
2161.88	7490.54
2162.83	7462.43
2163.79	7534.62
2164.74	7378.13
2165.7	7472.31
2166.65	7402.5
2167.61	7465.19
2168.56	7438.7
2169.51	7437.82
2170.47	7456.13
2171.42	7513.55
2172.38	7454.82
2173.33	7457.97
2174.28	7430.5
2175.24	7445.77
2176.19	7436.81
2177.14	7379.56
2178.09	7359.08
2179.05	7370.19
2180	7354.23
2180.95	7364.65
2181.9	7366.49
2182.86	7363.67
2183.81	7309.8
2184.76	7353.19
2185.71	7251.64
2186.66	7203.71
2187.61	7318.4
2188.57	7343.42
2189.52	7276.87
2190.47	7219
2191.42	7321.02
2192.37	7271.45
2193.32	7238.05
2194.27	7176.63
2195.22	7255.48
2196.17	7269.64
2197.12	7204.21
2198.07	7264.14
2199.02	7303.12
2199.97	7250.55
2200.92	7231.89
2201.87	7316.4
2202.82	7303.43
2203.76	7227.12
2204.71	7210.43
2205.66	7285.27
2206.61	7234.86
2207.56	7234.4
2208.51	7195.34
2209.45	7200
2210.4	7247.96
2211.35	7251.89
2212.3	7158
2213.25	7182.02
2214.19	7234.61
2215.14	7176.81
2216.09	7150.03
2217.03	7174.47
2217.98	7165.27
2218.93	7163.78
2219.87	7178.34
2220.82	7149.77
2221.77	7181.51
2222.71	7217.37
2223.66	7180.98
2224.6	7178.23
2225.55	7190.28
2226.49	7182.28
2227.44	7153.74
2228.38	7156.44
2229.33	7192.05
2230.27	7185.44
2231.22	7218.87
2232.16	7173.32
2233.11	7162.56
2234.05	7179.97
2235	7166.34
2235.94	7139.03
2236.88	7119.8
2237.83	7177.49
2238.77	7212.33
2239.72	7120.1
2240.66	7150.95
2241.6	7241.16
2242.07	7244
2243.02	7220
2243.97	7130
2244.92	7206
2245.87	7280
2246.81	7140
2247.76	7148
2248.71	7162
2249.65	7192
2250.6	7158
2251.55	7160
2252.49	7092
2253.44	7090
2254.39	7200
2255.33	7074
2256.28	7110
2257.22	7182
2258.17	7144
2259.12	7130
2260.06	7164
2261.01	7222
2261.95	7082
2262.9	7016
2263.84	7090
2264.78	7076
2265.73	7056
2266.67	7098
2267.62	7156
2268.56	7108
2269.51	7100
2270.45	7006
2271.39	7176
2272.34	7120
2273.28	7092
2274.22	7156
2275.17	7084
2276.11	7016
2277.05	6982
2277.99	7104
2278.94	7048
2279.88	7116
2280.82	7100
2281.76	7114
2282.71	7038
2283.65	7014
2284.59	7054
2285.53	7036
2286.47	7066
2287.41	7050
2288.35	6932
2289.3	6984
2290.24	6992
2291.18	6982
2292.12	7024
2293.06	6874
2294	6928
2294.94	6958
2295.88	7020
2296.82	6944
2297.76	6924
2298.7	7024
2299.64	6968
2300.58	6870
2301.52	6992
2302.46	6906
2303.39	6892
2304.33	6972
2305.27	6986
2306.21	6940
2307.15	6948
2308.09	6938
2309.02	6876
2309.96	6856
2310.9	6864
2311.84	6860
2312.77	6918
2313.71	6908
2314.65	6890
2315.59	6760
2316.52	6816
2317.46	6908
2318.4	6820
2319.33	6834
2320.27	6854
2321.21	6828
2322.14	6846
2323.08	6742
2324.01	6786
2324.95	6934
2325.89	6848
2326.82	6826
2327.76	6878
2328.69	6766
2329.63	6798
2330.56	6848
2331.5	6796
2332.43	6764
2333.36	6856
2334.3	6764
2335.23	6834
2336.17	6852
2337.1	6756
2338.03	6774
2338.97	6718
2339.9	6778
2340.83	6788
2341.77	6796
2342.7	6740
2343.63	6812
2344.57	6656
2345.5	6704
2346.43	6724
2347.36	6764
2348.3	6698
2349.23	6724
2350.16	6758
2351.09	6722
2352.02	6784
2352.95	6694
2353.89	6672
2354.82	6662
2355.75	6656
2356.68	6844
2357.61	6682
2358.54	6744
2359.47	6750
2360.4	6716
2361.33	6714
2362.26	6712
2363.19	6682
2364.12	6666
2365.05	6634
2365.98	6598
2366.91	6692
2367.84	6610
2368.77	6656
2369.7	6588
2370.63	6524
2371.56	6616
2372.48	6640
2373.41	6656
2374.34	6606
2375.27	6518
2376.2	6554
2377.12	6608
2378.05	6712
2378.98	6490
2379.91	6592
2380.84	6530
2381.76	6620
2382.69	6564
2383.62	6618
2384.54	6556
2385.47	6578
2386.4	6584
2387.32	6502
2388.25	6452
2389.18	6496
2390.1	6560
2391.03	6508
2391.95	6548
2392.88	6554
2393.8	6626
2394.73	6488
2395.65	6508
2396.58	6520
2397.5	6478
2398.43	6410
2399.35	6440
2400.28	6576
2401.2	6556
2402.13	6358
2403.05	6452
2403.97	6394
2404.9	6462
2405.82	6396
2406.75	6402
2407.67	6400
2408.59	6444
2409.51	6442
2410.44	6420
2411.36	6388
2412.28	6320
2413.21	6456
2414.13	6338
2415.05	6494
2415.97	6296
2416.9	6336
2417.82	6344
2418.74	6338
2419.66	6438
2420.58	6280
2421.5	6320
2422.42	6354
2423.35	6290
2424.27	6286
2425.19	6334
2426.11	6350
2427.03	6246
2427.95	6326
2428.87	6252
2429.79	6316
2430.71	6290
2431.63	6306
2432.55	6268
2433.47	6320
2434.39	6248
2435.31	6262
2436.23	6208
2437.14	6200
2438.06	6242
2438.98	6250
2439.9	6248
2440.82	6196
2441.74	6238
2442.66	6202
2443.57	6258
2444.49	6220
2445.41	6300
2446.33	6154
2447.24	6176
2448.16	6214
2449.08	6146
2450	6276
2450.91	6160
2451.83	6254
2452.75	6188
2453.66	6182
2454.58	6112
2455.5	6090
2456.41	6154
2457.33	6290
2458.24	6200
2459.16	6200
2460.08	6170
2460.99	6156
2461.91	6088
2462.82	6194
2463.74	6194
2464.65	6154
2465.57	6118
2466.48	6136
2467.4	6032
2468.31	6134
2469.22	6098
2470.14	6092
2471.05	6140
2471.97	5972
2472.88	6050
2473.79	6078
2474.71	6090
2475.62	6038
2476.53	6062
2477.45	6038
2478.36	6118
2479.27	6110
2480.19	6106
2481.1	6006
2482.01	6052
2482.92	6096
2483.83	6046
2484.75	6036
2485.66	5998
2486.57	5890
2487.48	5936
2488.39	5960
2489.3	6000
2490.22	5906
2491.13	6050
2492.04	5902
2492.95	6024
2493.86	5988
2494.77	5850
2495.68	5866
2496.59	5968
2497.5	5958
2498.41	6016
2499.32	5860
2500.23	5852
2501.14	5872
2502.05	5786
2502.96	5890
2503.87	5822
2504.78	5836
2505.68	5828
2506.59	5838
2507.5	5816
2508.41	5822
2509.32	5742
2510.23	5794
2511.14	5840
2512.04	5828
2512.95	5784
2513.86	5748
2514.77	5766
2515.67	5810
2516.58	5712
2517.49	5728
2518.39	5766
2519.3	5868
2520.21	5750
2521.11	5750
2522.02	5804
2522.93	5680
2523.83	5788
2524.74	5698
2525.65	5778
2526.55	5722
2527.46	5664
2528.36	5684
2529.27	5628
2530.17	5648
2531.08	5604
2531.98	5526
2532.89	5660
2533.79	5690
2534.7	5684
2535.6	5674
2536.51	5610
2537.41	5610
2538.32	5640
2539.22	5602
2540.12	5666
2541.03	5496
2541.93	5670
2542.83	5608
2543.74	5626
2544.64	5508
2545.54	5600
2546.45	5662
2547.35	5556
2548.25	5412
2549.15	5620
2550.06	5554
2550.96	5512
2551.86	5512
2552.76	5424
2553.66	5498
2554.56	5562
2555.47	5548
2556.37	5580
2557.27	5546
2558.17	5440
2559.07	5480
2559.97	5526
2560.87	5466
2561.77	5426
2562.67	5430
2563.58	5480
2564.47	5480
2565.38	5464
2566.27	5364
2567.18	5390
2568.07	5366
2568.97	5382
2569.87	5336
2570.77	5506
2571.67	5340
2572.57	5376
2573.47	5366
2574.37	5430
2575.27	5480
2576.17	5408
2577.06	5308
2577.96	5344
2578.86	5408
2579.76	5290
2580.66	5336
2581.55	5308
2582.45	5312
2583.35	5312
2584.25	5326
2585.14	5318
2586.04	5350
2586.94	5258
2587.83	5296
2588.73	5284
2589.63	5362
2590.52	5260
2591.42	5274
2592.32	5236
2593.21	5192
2594.11	5314
2595	5256
2595.9	5214
2596.8	5254
2597.69	5200
2598.59	5206
2599.48	5144
2600.38	5170
2601.27	5160
2602.17	5258
2603.06	5188
2603.95	5270
2604.85	5188
2605.74	5210
2606.64	5208
2607.53	5114
2608.42	5132
2609.32	5090
2610.21	5102
2611.1	5102
2612	5088
2612.89	5114
2613.78	5174
2614.68	5160
2615.57	5042
2616.46	5130
2617.36	5062
2618.25	5060
2619.14	5182
2620.03	5174
2620.92	5066
2621.82	5072
2622.71	5104
2623.6	5098
2624.49	5032
2625.38	5056
2626.27	5080
2627.16	5032
2628.05	4954
2628.95	5030
2629.84	5018
2630.73	5014
2631.62	4948
2632.51	5042
2633.4	4968
2634.29	4904
2635.18	4976
2636.07	4950
2636.96	4972
2637.85	4954
2638.74	4906
2639.62	4926
2640.51	4942
2641.4	4834
2642.29	4904
2643.18	4894
2644.07	4828
2644.96	4898
2645.85	4864
2646.73	4866
2647.62	4828
2648.51	4896
2649.4	4958
2650.28	4862
2651.17	4852
2652.06	4834
2652.95	4848
2653.83	4794
2654.72	4884
2655.61	4788
2656.5	4782
2657.38	4762
2658.27	4836
2659.15	4804
2660.04	4758
2660.93	4724
2661.81	4794
2662.7	4782
2663.58	4754
2664.47	4794
2665.35	4732
2666.24	4756
2667.13	4758
2668.01	4676
2668.9	4722
2669.78	4742
2670.66	4718
2671.55	4814
2672.43	4736
2673.32	4724
2674.2	4824
2675.09	4668
2675.97	4724
2676.85	4682
2677.74	4634
2678.62	4660
2679.5	4804
2680.39	4770
2681.27	4712
2682.15	4716
2683.04	4664
2683.92	4684
2684.8	4686
2685.68	4682
2686.57	4696
2687.45	4636
2688.33	4626
2689.21	4638
2690.09	4584
2690.98	4548
2691.86	4660
2692.74	4584
2693.62	4592
2694.5	4570
2695.38	4600
2696.26	4576
2697.15	4522
2698.03	4478
2698.91	4506
2699.79	4544
2700.67	4598
2701.55	4584
2702.43	4580
2703.31	4504
2704.19	4534
2705.07	4434
2705.95	4484
2706.83	4460
2707.7	4536
2708.58	4442
2709.46	4486
2710.34	4532
2711.22	4392
2712.1	4464
2712.98	4468
2713.86	4346
2714.73	4414
2715.61	4406
2716.49	4382
2717.37	4382
2718.25	4452
2719.12	4440
2720	4464
2720.88	4396
2721.76	4376
2722.63	4412
2723.51	4376
2724.39	4380
2725.26	4292
2726.14	4302
2727.02	4510
2727.89	4414
2728.77	4292
2729.64	4288
2730.52	4294
2731.4	4292
2732.27	4324
2733.15	4320
2734.02	4320
2734.9	4366
2735.77	4274
2736.65	4300
2737.52	4322
2738.4	4338
2739.27	4306
2740.15	4252
2741.02	4210
2741.9	4254
2742.77	4296
2743.64	4330
2744.52	4234
2745.39	4298
2746.27	4202
2747.14	4204
2748.01	4182
2748.89	4246
2749.76	4230
2750.63	4092
2751.51	4196
2752.38	4168
2753.25	4202
2754.12	4164
2755	4154
2755.87	4122
2756.74	4100
2757.61	4128
2758.48	4144
2759.35	4152
2760.23	4128
2761.1	4096
2761.97	4132
2762.84	4202
2763.71	4136
2764.58	4160
2765.45	4122
2766.32	4132
2767.19	4044
2768.07	4096
2768.94	4042
2769.81	4060
2770.68	4034
2771.55	4076
2772.42	4070
2773.29	4086
2774.16	4048
2775.02	4074
2775.89	4104
2776.76	4010
2777.63	3998
2778.5	3962
2779.37	3996
2780.24	4054
2781.11	4058
2781.98	4054
2782.84	4050
2783.71	3942
2784.58	4012
2785.45	4010
2786.32	3966
2787.18	3982
2788.05	3880
2788.92	3844
2789.79	4014
2790.65	3896
2791.52	3960
2792.39	3926
2793.25	3990
2794.12	3952
2794.99	3948
2795.85	3926
2796.72	3914
2797.59	3948
2798.45	3952
2799.32	3862
2800.18	3878
2801.05	3912
2801.92	3874
2802.78	3844
2803.65	3873
2804.51	3902
2805.38	3812
2806.24	3886
2807.11	3928
2807.97	3854
2808.84	3862
2809.7	3836
2810.57	3764
2811.43	3810
2812.29	3900
2813.16	3802
2814.02	3846
2814.88	3812
2815.75	3750
2816.61	3792
2817.47	3774
2818.34	3812
2819.2	3830
2820.06	3798
2820.93	3740
2821.79	3764
2822.65	3710
2823.51	3722
2824.38	3802
2825.24	3794
2826.1	3764
2826.96	3766
2827.82	3678
2828.69	3716
2829.55	3698
2830.41	3788
2831.27	3654
2832.13	3722
2832.99	3626
2833.85	3680
2834.71	3652
2835.57	3704
2836.44	3634
2837.3	3604
2838.16	3690
2839.02	3700
2839.88	3662
2840.74	3662
2841.6	3628
2842.46	3664
2843.32	3624
2844.18	3654
2845.03	3544
2845.89	3632
2846.75	3558
2847.61	3634
2848.47	3516
2849.33	3516
2850.19	3634
2851.05	3582
2851.9	3580
2852.76	3556
2853.62	3562
2854.48	3552
2855.34	3522
2856.19	3528
2857.05	3514
2857.91	3568
2858.77	3498
2859.62	3490
2860.48	3538
2861.34	3508
2862.19	3532
2863.05	3474
2863.91	3496
2864.76	3518
2865.62	3380
2866.48	3460
2867.33	3378
2868.19	3514
2869.04	3454
2869.9	3480
2870.76	3500
2871.61	3386
2872.47	3396
2873.32	3432
2874.18	3400
2875.03	3442
2875.89	3408
2876.74	3452
2877.6	3372
2878.45	3394
2879.31	3414
2880.16	3386
2881.01	3390
2881.87	3324
2882.72	3352
2883.58	3334
2884.43	3388
2885.28	3302
2886.14	3360
2886.99	3326
2887.84	3318
2888.7	3286
2889.55	3364
2890.4	3372
2891.25	3310
2892.11	3332
2892.96	3306
2893.81	3294
2894.66	3300
2895.52	3218
2896.37	3286
2897.22	3296
2898.07	3336
2898.92	3286
2899.77	3264
2900.62	3300
2901.48	3266
2902.33	3244
2903.18	3294
2904.03	3330
2904.88	3254
2905.73	3252
2906.58	3266
2907.43	3226
2908.28	3266
2909.13	3258
2909.98	3320
2910.83	3212
2911.68	3204
2912.53	3226
2913.38	3236
2914.23	3268
2915.08	3224
2915.93	3278
2916.78	3192
2917.63	3254
2918.47	3224
2919.32	3204
2920.17	3258
2921.02	3184
2921.87	3214
2922.72	3186
2923.56	3152
2924.41	3206
2925.26	3130
2926.11	3206
2926.95	3128
2927.8	3144
2928.65	3120
2929.5	3144
2930.34	3184
2931.19	3158
2932.04	3164
2932.88	3080
2933.73	3070
2934.58	3186
2935.42	3156
2936.27	3136
2937.11	3126
2937.96	3176
2938.81	3118
2939.65	3136
2940.5	3134
2941.34	3142
2942.19	3076
2943.03	3064
2943.88	3094
2944.72	3114
2945.57	3066
2946.41	3088
2947.26	3094
2948.1	3108
2948.95	3028
2949.79	3002
2950.64	3036
2951.48	3092
2952.32	3044
2953.17	3044
2954.01	3042
2954.85	3036
2955.7	3038
2956.54	3028
2957.38	3010
2958.23	3064
2959.07	3014
2959.91	3080
2960.75	3034
2961.6	2922
2962.44	2992
2963.28	2984
2964.12	3038
2964.97	2976
2965.81	2888
2966.65	3026
2967.49	2944
2968.33	3042
2969.17	2992
2970.02	2966
2970.86	2890
2971.7	2978
2972.54	2962
2973.38	2980
2974.22	2930
2975.06	2888
2975.9	2962
2976.74	2928
2977.58	2944
2978.42	2960
2979.26	2994
2980.1	2908
2980.94	2972
2981.78	2894
2982.62	2958
2983.46	2840
2984.3	2916
2985.14	2880
2985.98	2890
2986.82	2928
2987.66	2874
2988.49	2982
2989.33	2942
2990.17	2872
2991.01	2840
2991.85	2882
2992.69	2820
2993.52	2796
2994.36	2794
2995.2	2840
2996.04	2836
2996.87	2830
2997.71	2818
2998.55	2842
2999.39	2768
