#Acq. time (s)=	10
#Accumulations=	1
#Range (cm-¹)=	100...3000
#Windows=	3
#Autofocus=	Off
#AutoExposure=	Off
#Spike filter=	Off
#Delay time (s)=	0
#Binning=	1
#Readout mode=	Signal
#DeNoise=	Off
#ICS correction=	Off
#Dark correction=	Off
#Inst. Process=	Off
#Instrument=	LabRAM HR Evol
#Detector=	Syncerity OE
#Objective=	x100_VIS
#Grating=	600 (500nm)
#ND Filter=	3.2%
#Laser=	633nm_Edge
#Hole=	100.021
#Range=	Visible
#Project=	Omar
#Sample=	26-06-23
#Site=	2
#Title=	Organic
#Remark=	
#Date=	26.06.2023 16:19
#Acquired=	26.06.2023 16:19:00
101.018	4200
102.302	4328
103.586	4290
104.869	4332
106.152	4298
107.435	4304
108.717	4248
109.999	4376
111.281	4312
112.563	4308
113.845	4288
115.126	4404
116.407	4340
117.688	4294
118.969	4360
120.249	4334
121.53	4442
122.81	4494
124.09	4352
125.369	4304
126.649	4400
127.928	4452
129.207	4464
130.486	4446
131.765	4468
133.043	4498
134.321	4428
135.599	4490
136.877	4526
138.155	4488
139.432	4480
140.708	4472
141.985	4484
143.261	4558
144.538	4514
145.814	4560
147.09	4484
148.366	4534
149.641	4550
150.916	4622
152.191	4540
153.466	4636
154.741	4568
156.016	4572
157.289	4560
158.563	4570
159.837	4574
161.111	4686
162.385	4652
163.657	4664
164.93	4598
166.203	4650
167.476	4654
168.747	4572
170.019	4684
171.291	4584
172.562	4662
173.834	4660
175.105	4662
176.377	4714
177.646	4588
178.917	4754
180.188	4640
181.457	4672
182.727	4744
183.996	4700
185.266	4806
186.536	4782
187.804	4728
189.073	4744
190.342	4790
191.609	4728
192.878	4766
194.145	4808
195.413	4896
196.681	4832
197.948	4830
199.215	4932
200.481	4860
201.749	4832
203.014	4936
204.281	4896
205.546	4918
206.813	4918
208.077	4982
209.343	4962
210.608	4938
211.873	4924
213.137	5028
214.402	4956
215.666	5058
216.93	4992
218.194	4944
219.458	4872
220.721	5036
221.983	4972
223.247	5034
224.509	5080
225.772	5032
227.034	5086
228.295	5106
229.558	5158
230.819	5022
232.081	5154
233.342	5074
234.602	5252
235.864	5194
237.124	5130
238.384	5128
239.645	5164
240.904	5154
242.164	5236
243.423	5278
244.683	5276
245.941	5232
247.2	5284
248.46	5168
249.717	5328
250.975	5220
252.233	5250
253.492	5330
254.749	5216
256.006	5248
257.263	5316
258.519	5336
259.777	5302
261.033	5332
262.289	5252
263.545	5246
264.8	5364
266.057	5256
267.312	5356
268.567	5294
269.822	5334
271.076	5410
272.331	5296
273.585	5276
274.839	5316
276.094	5268
277.347	5310
278.601	5374
279.854	5424
281.107	5460
282.359	5368
283.612	5430
284.864	5402
286.116	5454
287.368	5386
288.62	5498
289.871	5438
291.123	5552
292.374	5442
293.625	5540
294.875	5522
296.126	5548
297.376	5524
298.626	5630
299.876	5580
301.126	5566
302.375	5556
303.625	5620
304.874	5654
306.122	5690
307.371	5646
308.62	5668
309.866	5630
311.114	5728
312.362	5798
313.61	5646
314.857	5744
316.105	5722
317.352	5748
318.599	5720
319.844	5758
321.09	5756
322.337	5784
323.583	5716
324.828	5742
326.073	5826
327.318	5776
328.563	5878
329.808	5770
331.053	5804
332.296	5824
333.541	5898
334.785	5812
336.029	5888
337.272	5778
338.515	5780
339.759	5874
341.001	5890
342.244	5858
343.486	5936
344.728	5988
345.97	5890
347.212	5946
348.453	6012
349.695	6018
350.936	5938
352.176	5998
353.418	5892
354.659	6092
355.898	6062
357.139	6050
358.378	6150
359.618	6020
360.858	6040
362.097	6090
363.336	6068
364.574	6110
365.813	6138
367.051	6126
368.29	6132
369.527	6128
370.766	6052
372.002	6090
373.241	6064
374.477	6102
375.715	6132
376.951	6158
378.188	6158
379.424	6122
380.66	6218
381.896	6170
383.132	6094
384.367	6056
385.603	6138
386.838	6106
388.072	6156
389.307	6214
390.541	6238
391.776	6172
393.01	6210
394.243	6208
395.477	6142
396.71	6248
397.943	6258
399.177	6294
400.409	6264
401.641	6180
402.875	6234
404.106	6382
405.338	6288
406.57	6340
407.802	6406
409.032	6436
410.263	6478
411.495	6486
412.725	6436
413.955	6518
415.185	6482
416.417	6508
417.646	6438
418.875	6656
420.104	6570
421.335	6564
422.564	6594
423.792	6588
425.02	6690
426.249	6728
427.477	6662
428.706	6820
429.933	6782
431.161	6730
432.388	6698
433.615	6714
434.841	6752
436.068	6776
437.294	6828
438.522	6844
439.748	6790
440.974	6706
442.199	6762
443.425	6810
444.65	6884
445.875	6868
447.1	6806
448.324	6860
449.549	6736
450.773	6900
451.997	6762
453.221	6830
454.445	6820
455.668	6828
456.891	6878
458.114	6976
459.337	6914
460.56	6856
461.782	6856
463.005	7012
464.227	6918
465.447	6946
466.669	6980
467.89	7038
469.112	6960
470.333	7022
471.554	6972
472.774	6968
473.995	7134
475.214	7050
476.434	7088
477.654	7020
478.874	7138
480.093	7080
481.312	7024
482.53	7130
483.749	7098
484.968	7066
486.186	7226
487.405	7162
488.622	7128
489.84	7224
491.057	7190
492.275	7190
493.491	7168
494.708	7244
495.925	7320
497.141	7404
498.357	7300
499.574	7262
500.789	7296
502.005	7296
503.221	7328
504.435	7364
505.65	7406
506.866	7250
508.079	7378
509.294	7392
510.509	7370
511.722	7432
512.936	7548
514.149	7468
515.363	7438
516.577	7362
517.789	7496
519.002	7498
520.214	7440
521.427	7486
522.638	7486
523.851	7418
525.062	7476
526.274	7468
527.485	7484
528.697	7544
529.907	7380
531.118	7554
532.328	7486
533.539	7500
534.748	7554
535.959	7490
537.168	7590
538.379	7524
539.587	7546
540.796	7640
542.005	7604
543.214	7604
544.423	7634
545.631	7616
546.838	7650
548.047	7724
549.254	7618
550.461	7612
551.669	7722
552.876	7758
554.082	7690
555.29	7674
556.496	7716
557.701	7762
558.909	7692
560.114	7774
561.319	7756
562.524	7796
563.731	7786
564.935	7904
566.14	7780
567.344	7900
568.549	8028
569.753	7856
570.957	7834
572.161	7982
573.364	7930
574.568	7920
575.771	7994
576.974	8126
578.177	8080
579.379	8036
580.581	8082
581.785	8030
582.987	8126
584.188	8050
585.39	8112
586.591	8188
587.792	8072
588.993	8164
590.193	8118
591.394	8108
592.594	8212
593.796	8256
594.996	8228
596.195	8390
597.395	8414
598.594	8272
599.793	8276
600.992	8396
602.191	8480
603.39	8284
604.588	8432
605.786	8464
606.984	8484
608.181	8440
609.378	8508
610.576	8530
611.773	8546
612.97	8594
614.167	8622
615.364	8676
616.56	8646
617.757	8642
618.953	8686
620.149	8696
621.343	8806
622.539	8752
623.734	8852
624.929	8822
626.124	8956
627.319	8722
628.512	8908
629.707	9036
630.901	8904
632.095	8964
633.289	8960
634.481	9080
635.675	9080
636.868	9228
638.061	9242
639.253	9180
640.446	9124
641.638	9118
642.831	9182
644.021	9218
645.213	9228
646.405	9366
647.595	9396
648.787	9366
649.978	9370
651.168	9378
652.359	9496
653.549	9496
654.738	9408
655.929	9590
657.117	9566
658.307	9526
659.497	9522
660.685	9486
661.875	9478
663.063	9526
664.252	9652
665.439	9614
666.628	9722
667.816	9690
669.003	9720
670.191	9658
671.378	9740
672.565	9742
673.751	9858
674.939	9802
676.124	9676
677.311	9748
678.497	9764
679.682	9820
680.868	9928
682.053	9918
683.239	9850
684.424	9802
685.609	10018
686.793	9912
687.977	10218
689.162	10070
690.346	10086
691.529	10062
692.714	10104
693.897	10226
695.081	10122
696.264	10128
697.446	10034
698.63	10342
699.812	10324
700.993	10272
702.175	10366
703.358	10394
704.539	10238
705.72	10294
706.901	10448
708.083	10416
709.264	10376
710.444	10530
711.625	10500
712.806	10588
713.986	10700
715.165	10604
716.345	10610
717.524	10562
718.705	10598
719.884	10734
721.062	10784
722.241	10912
723.419	10782
724.597	10868
725.775	11000
726.954	10988
728.132	11032
729.31	11036
730.487	11038
731.664	11132
732.841	11050
734.017	11214
735.194	11114
736.37	11240
737.546	11326
738.722	11220
739.898	11218
741.074	11322
742.249	11456
743.424	11412
744.599	11502
745.774	11472
746.949	11412
748.123	11614
749.298	11494
750.472	11468
751.646	11552
752.819	11634
753.993	11558
755.166	11648
756.34	11620
757.511	11688
758.684	11754
759.857	11722
761.029	11652
762.202	11904
763.374	11778
764.546	11876
765.716	11950
766.888	11986
768.059	11966
769.23	11932
770.401	11962
771.571	12176
772.741	12088
773.912	12066
775.082	12140
776.251	12256
777.421	12134
778.59	12340
779.76	12278
780.928	12320
782.097	12224
783.266	12314
784.434	12454
785.602	12456
786.771	12398
787.938	12492
789.106	12662
790.274	12638
791.44	12498
792.608	12618
793.775	12688
794.941	12694
796.108	12804
797.273	12840
798.44	12854
799.606	12830
800.771	12950
801.937	12982
803.102	12984
804.268	13056
805.432	13008
806.597	13168
807.761	13074
808.926	13144
810.09	13342
811.254	13380
812.417	13380
813.582	13218
814.744	13400
815.908	13514
817.071	13678
818.234	13574
819.396	13430
820.558	13692
821.721	13694
822.883	13630
824.045	13764
825.206	13898
826.367	13960
827.529	13882
828.69	13878
829.85	14192
831.012	14056
832.172	14130
833.332	14308
834.493	14344
835.653	14326
836.812	14452
837.972	14442
839.131	14484
840.29	14534
841.449	14634
842.609	14684
843.767	14692
844.925	14834
846.083	14790
847.242	14770
848.399	14872
849.557	14750
850.714	15066
851.871	15008
853.029	15174
854.186	15058
855.342	15202
856.498	15080
857.654	15136
858.81	15306
859.966	15106
861.122	15294
862.278	15394
863.434	15538
864.589	15420
865.744	15618
866.898	15618
868.053	15578
869.207	15668
870.361	15754
871.515	15754
872.669	15842
873.822	15732
874.976	15916
876.129	16026
877.282	16068
878.435	15976
879.588	15886
880.74	16060
881.893	16114
883.045	16136
884.197	16070
885.349	16252
886.5	16242
887.652	16332
888.802	16190
889.953	16278
891.104	16440
892.254	16230
893.405	16428
894.555	16388
895.706	16430
896.854	16482
898.004	16674
899.154	16552
900.303	16716
901.453	16668
902.6	16882
903.749	16658
904.898	16686
906.047	17012
907.194	16842
908.342	16972
909.49	16944
910.638	17044
911.785	16958
912.932	16990
914.08	17224
915.225	17098
916.372	17186
917.519	17452
918.666	17168
919.811	17346
920.957	17248
922.102	17460
923.248	17542
924.394	17424
925.538	17628
926.684	17720
927.828	17692
928.973	17640
930.118	17968
931.261	17750
932.406	17888
933.549	17892
934.693	18050
935.836	18064
936.979	18200
938.122	18086
939.265	18290
940.407	18328
941.55	18234
942.692	18284
943.835	18506
944.976	18554
946.118	18666
947.259	18772
948.401	18652
949.542	18712
950.682	18712
951.824	18626
952.964	18828
954.105	18972
955.245	18958
956.385	18864
957.525	19156
958.664	19268
959.803	19296
960.944	19284
962.082	19436
963.221	19270
964.36	19412
965.498	19452
966.636	19432
967.774	19638
968.913	19664
970.051	19780
971.188	19726
972.325	19672
973.463	19712
974.6	19948
975.736	19944
976.873	19854
978.009	19984
979.146	19974
980.282	19990
981.418	20188
982.554	20128
983.689	20196
984.824	20184
985.959	20292
987.095	20352
988.23	20436
989.364	20458
990.499	20596
991.633	20508
992.767	20440
993.9	20782
995.034	20726
996.167	20666
997.301	20548
998.434	20670
999.567	20674
1000.7	20742
1001.83	20782
1002.96	20882
1004.1	20820
1005.23	21066
1006.36	21162
1007.49	20928
1008.62	21122
1009.76	21220
1010.89	21296
1012.02	21368
1013.15	21304
1014.28	21434
1015.41	21548
1016.54	21510
1017.67	21542
1018.8	21560
1019.93	21762
1021.06	21690
1022.19	21772
1023.32	21714
1024.44	22002
1025.57	21784
1026.7	21842
1027.83	22034
1028.96	22086
1030.09	22420
1031.21	22290
1032.34	22294
1033.47	22464
1034.6	22304
1035.72	22338
1036.85	22400
1037.98	22576
1039.1	22538
1040.23	22386
1041.35	22578
1042.48	22746
1043.61	22842
1044.73	22900
1045.86	23082
1046.98	23064
1048.11	23050
1049.23	22996
1050.36	22990
1051.48	23232
1052.61	23250
1053.73	23278
1054.85	23240
1055.98	23178
1057.1	23340
1058.22	23358
1059.35	23492
1060.47	23432
1061.59	23564
1062.72	23510
1063.84	23712
1064.96	23678
1066.08	23798
1067.2	23610
1068.33	23748
1069.45	23648
1070.57	23636
1071.69	23776
1072.81	23636
1073.93	23926
1075.05	23888
1076.17	23922
1077.29	24192
1078.41	23860
1079.53	23870
1080.65	23934
1081.77	24018
1082.89	23660
1084.01	23850
1085.13	23832
1086.25	23880
1087.37	23978
1088.48	23896
1089.6	23952
1090.72	23966
1091.84	23906
1092.96	23856
1094.07	24060
1095.19	23960
1096.31	23894
1097.43	24074
1098.54	24040
1099.66	24038
1100.78	23966
1101.89	23928
1103.01	23916
1104.12	23942
1105.24	24094
1106.35	24018
1107.47	24042
1108.59	24086
1109.7	24050
1110.81	24124
1111.93	24208
1113.04	24166
1114.16	23974
1115.27	24188
1116.39	24272
1117.5	24304
1118.61	24142
1119.73	24132
1120.84	24230
1121.95	24274
1123.06	24092
1124.18	24160
1125.29	24278
1126.4	24278
1127.51	24364
1128.63	24216
1129.74	24296
1130.85	24100
1131.96	24298
1133.07	24318
1134.18	24390
1135.29	24470
1136.4	24358
1137.51	24254
1138.62	24534
1139.73	24456
1140.84	24632
1141.95	24534
1143.06	24466
1144.17	24532
1145.28	24708
1146.39	24440
1147.5	24492
1148.61	24508
1149.72	24482
1150.82	24764
1151.93	24596
1153.04	24652
1154.15	24678
1155.26	24746
1156.36	24778
1157.47	24694
1158.58	24626
1159.68	24870
1160.79	24602
1161.9	24788
1163	24602
1164.11	24752
1165.22	24572
1166.32	24672
1167.43	24578
1168.53	24712
1169.64	24548
1170.74	24582
1171.85	24590
1172.95	24506
1174.06	24432
1175.16	24522
1176.26	24436
1177.37	24570
1178.47	24286
1179.58	24340
1180.68	24444
1181.78	24414
1182.88	24252
1183.99	24368
1185.09	24504
1186.19	24268
1187.3	24228
1188.4	24260
1189.5	24120
1190.6	24168
1191.7	24114
1192.8	23920
1193.9	23968
1195.01	23878
1196.11	23835.3
1197.21	23917.6
1198.31	23980.1
1199.41	23720.1
1200.51	23669.2
1201.61	23428.3
1202.71	23635.2
1203.81	23429.5
1204.91	23583.7
1206.01	23453.5
1207.11	23633.9
1208.2	23505.8
1209.3	23545.3
1210.4	23318.1
1211.5	23292.4
1212.6	23252.9
1213.7	23226.4
1214.8	23217.4
1215.89	23112.3
1216.99	23377.5
1218.09	23079.4
1219.18	22945.4
1220.28	22912.1
1221.38	22925.3
1222.48	23005.6
1223.57	22907.1
1224.67	22725.9
1225.76	22710.2
1226.86	22755.7
1227.96	22642
1229.05	22683.8
1230.15	22683.4
1231.24	22600.5
1232.34	22599.6
1233.43	22546.9
1234.53	22435.4
1235.62	22428.3
1236.71	22403
1237.81	22314.6
1238.9	22361.4
1240	22162.8
1241.09	22245.7
1242.18	22221.2
1243.28	22228.3
1244.37	21988.8
1245.46	21955.3
1246.56	21964.8
1247.65	21977.6
1248.74	21921
1249.83	21912.2
1250.93	21868.1
1252.02	21913.2
1253.11	21888.6
1254.2	21936.2
1255.29	21802.7
1256.38	21785.7
1257.47	21718.6
1258.56	21589
1259.65	21633
1260.74	21659.3
1261.84	21506.1
1262.92	21541
1264.01	21515
1265.1	21462.4
1266.19	21418.4
1267.28	21482.9
1268.37	21487.7
1269.46	21365
1270.55	21269.4
1271.64	21337.5
1272.73	21242.8
1273.82	21236.6
1274.9	21259.7
1275.99	21063.2
1277.08	20995.6
1278.17	20991.3
1279.26	21038.5
1280.34	21084.6
1281.43	21016.8
1282.52	21048
1283.6	20775.4
1284.69	20719.6
1285.78	20744.8
1286.86	20851
1287.95	20807.7
1289.03	20600.4
1290.12	20511
1291.21	20677.7
1292.29	20568.6
1293.38	20526.8
1294.46	20365
1295.55	20445
1296.63	20435.1
1297.71	20373.5
1298.8	20234.3
1299.88	20205.8
1300.97	20207.4
1302.05	20121.6
1303.13	20031.6
1304.22	19960.2
1305.3	20115.1
1306.38	19917.6
1307.34	19898
1308.43	19892
1309.52	19968
1310.61	19702
1311.7	19612
1312.78	19594
1313.87	19568
1314.96	19488
1316.05	19398
1317.13	19324
1318.22	19332
1319.3	19388
1320.39	19214
1321.48	19104
1322.56	19002
1323.65	18996
1324.73	18978
1325.82	18814
1326.9	18914
1327.99	18900
1329.07	18792
1330.16	18694
1331.24	18672
1332.33	18620
1333.41	18548
1334.5	18684
1335.58	18514
1336.66	18370
1337.75	18380
1338.83	18130
1339.91	18330
1341	18254
1342.08	18150
1343.16	18080
1344.25	18008
1345.33	18074
1346.41	18026
1347.49	17858
1348.57	17926
1349.65	17756
1350.74	17826
1351.82	17742
1352.9	17688
1353.98	17600
1355.06	17544
1356.14	17544
1357.22	17360
1358.3	17364
1359.38	17378
1360.46	17360
1361.54	17412
1362.62	17270
1363.7	17434
1364.78	17408
1365.86	17262
1366.94	17034
1368.02	17126
1369.09	16962
1370.17	16916
1371.25	16936
1372.33	16880
1373.41	16926
1374.48	16788
1375.56	16864
1376.64	16724
1377.72	16706
1378.79	16742
1379.87	16666
1380.95	16698
1382.02	16574
1383.1	16566
1384.17	16470
1385.25	16526
1386.33	16670
1387.4	16390
1388.48	16554
1389.55	16260
1390.63	16122
1391.7	16354
1392.78	16304
1393.85	16096
1394.93	16108
1396	16194
1397.07	16040
1398.15	15942
1399.22	16142
1400.3	16072
1401.37	15896
1402.44	15852
1403.52	15980
1404.59	15934
1405.66	15776
1406.73	15808
1407.81	15726
1408.88	15602
1409.95	15544
1411.02	15580
1412.09	15454
1413.17	15510
1414.24	15464
1415.31	15362
1416.38	15284
1417.45	15318
1418.52	15374
1419.59	15394
1420.66	15312
1421.73	15236
1422.8	15176
1423.87	15234
1424.94	15154
1426.01	15072
1427.08	15084
1428.15	14964
1429.22	15074
1430.29	14830
1431.35	15006
1432.42	14928
1433.49	14998
1434.56	14912
1435.63	14860
1436.7	14772
1437.76	14948
1438.83	14836
1439.9	15012
1440.96	14862
1442.03	14800
1443.1	14632
1444.17	14564
1445.23	14776
1446.3	14684
1447.36	14552
1448.43	14598
1449.49	14580
1450.56	14538
1451.63	14650
1452.69	14470
1453.76	14478
1454.82	14454
1455.89	14420
1456.95	14422
1458.01	14490
1459.08	14390
1460.14	14302
1461.21	14222
1462.27	14324
1463.34	14248
1464.4	14264
1465.46	14272
1466.52	14214
1467.59	14142
1468.65	14268
1469.71	14030
1470.77	14054
1471.84	14048
1472.9	14018
1473.96	14068
1475.02	14094
1476.08	14002
1477.15	13978
1478.21	13956
1479.27	14074
1480.33	13972
1481.39	13900
1482.45	13824
1483.51	14022
1484.57	13994
1485.63	13792
1486.69	13832
1487.75	13974
1488.81	13716
1489.87	13808
1490.93	13718
1491.99	13786
1493.05	13580
1494.1	13814
1495.16	13550
1496.22	13692
1497.28	13606
1498.34	13622
1499.4	13542
1500.45	13658
1501.51	13530
1502.57	13378
1503.63	13544
1504.68	13438
1505.74	13218
1506.8	13434
1507.85	13378
1508.91	13340
1509.97	13216
1511.02	13360
1512.08	13156
1513.13	13334
1514.19	13146
1515.24	13172
1516.3	13364
1517.35	13212
1518.41	13196
1519.46	13084
1520.52	13084
1521.57	13026
1522.63	12976
1523.68	13250
1524.73	12994
1525.79	12908
1526.84	12960
1527.9	12958
1528.95	12928
1530	12928
1531.06	12764
1532.11	12732
1533.16	12710
1534.21	12878
1535.26	12750
1536.32	12704
1537.37	12564
1538.42	12582
1539.47	12634
1540.52	12580
1541.57	12650
1542.63	12678
1543.68	12596
1544.73	12624
1545.78	12576
1546.83	12498
1547.88	12380
1548.93	12570
1549.98	12448
1551.03	12346
1552.08	12354
1553.13	12486
1554.18	12460
1555.23	12462
1556.27	12276
1557.32	12316
1558.37	12282
1559.42	12328
1560.47	12276
1561.52	12256
1562.56	12308
1563.61	12186
1564.66	12262
1565.71	12176
1566.75	12104
1567.8	12306
1568.85	12102
1569.9	12158
1570.94	12250
1571.99	12056
1573.03	12052
1574.08	12142
1575.13	12010
1576.17	12154
1577.22	12062
1578.26	12010
1579.31	12092
1580.35	11918
1581.4	11944
1582.44	12000
1583.49	11986
1584.53	12022
1585.58	11946
1586.62	11888
1587.66	11976
1588.71	11782
1589.75	11872
1590.8	11950
1591.84	11940
1592.88	11840
1593.93	11886
1594.97	11946
1596.01	11832
1597.05	11898
1598.1	11906
1599.14	11814
1600.18	11744
1601.22	11774
1602.26	11832
1603.31	11990
1604.35	11838
1605.39	11898
1606.43	11774
1607.47	11842
1608.51	11710
1609.55	11576
1610.59	11706
1611.63	11736
1612.67	11676
1613.71	11674
1614.75	11808
1615.79	11768
1616.83	11662
1617.87	11852
1618.91	11768
1619.95	11692
1620.99	11644
1622.02	11506
1623.06	11662
1624.1	11568
1625.14	11462
1626.18	11706
1627.21	11564
1628.25	11548
1629.29	11540
1630.33	11578
1631.36	11526
1632.4	11502
1633.44	11532
1634.48	11510
1635.51	11484
1636.55	11594
1637.58	11612
1638.62	11592
1639.66	11370
1640.69	11580
1641.73	11440
1642.76	11376
1643.8	11414
1644.83	11512
1645.87	11448
1646.9	11416
1647.94	11332
1648.97	11460
1650	11220
1651.04	11382
1652.07	11410
1653.11	11354
1654.14	11300
1655.17	11238
1656.21	11236
1657.24	11340
1658.27	11372
1659.31	11152
1660.34	11330
1661.37	11240
1662.4	11008
1663.43	11096
1664.47	11194
1665.5	11094
1666.53	10956
1667.56	11058
1668.59	11060
1669.62	10942
1670.66	11082
1671.69	10960
1672.72	10972
1673.75	11070
1674.78	10958
1675.81	10978
1676.84	10984
1677.87	11042
1678.9	10842
1679.93	11088
1680.96	10800
1681.98	10936
1683.01	10804
1684.04	10926
1685.07	10830
1686.1	10780
1687.13	10810
1688.16	10734
1689.19	10742
1690.21	10740
1691.24	10826
1692.27	10776
1693.3	10758
1694.32	10756
1695.35	10746
1696.38	10680
1697.4	10710
1698.43	10562
1699.46	10582
1700.48	10646
1701.51	10738
1702.54	10674
1703.56	10566
1704.59	10628
1705.61	10482
1706.64	10620
1707.66	10542
1708.69	10502
1709.71	10482
1710.74	10406
1711.76	10544
1712.79	10410
1713.81	10416
1714.83	10532
1715.86	10558
1716.88	10462
1717.91	10336
1718.93	10384
1719.95	10330
1720.98	10542
1722	10278
1723.02	10374
1724.04	10444
1725.07	10280
1726.09	10316
1727.11	10428
1728.13	10384
1729.15	10378
1730.18	10400
1731.2	10314
1732.22	10294
1733.24	10278
1734.26	10282
1735.28	10212
1736.3	10220
1737.32	10400
1738.34	10306
1739.36	10368
1740.38	10206
1741.4	10168
1742.42	10264
1743.44	10284
1744.46	10224
1745.48	10204
1746.5	10066
1747.52	10258
1748.54	10182
1749.56	10194
1750.58	10138
1751.6	10150
1752.61	10158
1753.63	10162
1754.65	10112
1755.67	10164
1756.68	10030
1757.7	10100
1758.72	10244
1759.74	10100
1760.75	10168
1761.77	10160
1762.79	10202
1763.8	10130
1764.82	10100
1765.84	10142
1766.85	10060
1767.87	10088
1768.88	10018
1769.9	10158
1770.91	10094
1771.93	10084
1772.94	10152
1773.96	9980
1774.97	10008
1775.99	10070
1777	10116
1778.02	10070
1779.03	9976
1780.04	9918
1781.06	9948
1782.07	10064
1783.09	9996
1784.1	10122
1785.11	10100
1786.13	10120
1787.14	9884
1788.15	9976
1789.16	9974
1790.18	9926
1791.19	9932
1792.2	10022
1793.21	9894
1794.22	9912
1795.23	9892
1796.25	9976
1797.26	9932
1798.27	9994
1799.28	9798
1800.29	9830
1801.3	9866
1802.31	9820
1803.32	9818
1804.33	9924
1805.34	9864
1806.35	9862
1807.36	9750
1808.37	9722
1809.38	9826
1810.39	9796
1811.4	9688
1812.41	9672
1813.42	9776
1814.43	9706
1815.43	9760
1816.44	9634
1817.45	9738
1818.46	9788
1819.47	9692
1820.47	9762
1821.48	9708
1822.49	9692
1823.49	9696
1824.5	9710
1825.51	9536
1826.52	9574
1827.52	9596
1828.53	9566
1829.54	9812
1830.54	9718
1831.55	9690
1832.55	9484
1833.56	9686
1834.56	9536
1835.57	9620
1836.57	9548
1837.58	9456
1838.58	9526
1839.59	9598
1840.59	9438
1841.6	9608
1842.6	9412
1843.61	9462
1844.61	9490
1845.61	9498
1846.62	9418
1847.62	9340
1848.62	9546
1849.63	9384
1850.63	9350
1851.63	9418
1852.64	9564
1853.64	9340
1854.64	9480
1855.64	9406
1856.64	9344
1857.65	9402
1858.65	9338
1859.65	9466
1860.65	9350
1861.65	9404
1862.65	9396
1863.65	9196
1864.66	9300
1865.66	9196
1866.66	9240
1867.66	9252
1868.66	9420
1869.66	9292
1870.66	9216
1871.66	9324
1872.66	9394
1873.66	9240
1874.66	9070
1875.65	9266
1876.65	9270
1877.65	9202
1878.65	9268
1879.65	9284
1880.65	9276
1881.65	9144
1882.64	9296
1883.64	9104
1884.64	9232
1885.64	9296
1886.63	9216
1887.63	9272
1888.63	9178
1889.63	9234
1890.62	9130
1891.62	9044
1892.62	8982
1893.61	9098
1894.61	9258
1895.6	9084
1896.6	9154
1897.6	9036
1898.59	9074
1899.59	9116
1900.58	9250
1901.58	9134
1902.57	9070
1903.57	9192
1904.56	9158
1905.56	9154
1906.55	9062
1907.54	9146
1908.54	9084
1909.53	9102
1910.53	9128
1911.52	9008
1912.51	9048
1913.51	9118
1914.5	9008
1915.49	9090
1916.49	9056
1917.48	9092
1918.47	9032
1919.46	9076
1920.46	9106
1921.45	9100
1922.44	9002
1923.43	9096
1924.42	9140
1925.41	8978
1926.41	9032
1927.4	9108
1928.39	9056
1929.38	9036
1930.37	8970
1931.36	9062
1932.35	8950
1933.34	9048
1934.33	8988
1935.32	8882
1936.31	9006
1937.3	8956
1938.29	8984
1939.28	8868
1940.27	8960
1941.26	8938
1942.24	8866
1943.23	8820
1944.22	8954
1945.21	8870
1946.2	8920
1947.19	8838
1948.17	8972
1949.16	8936
1950.15	8926
1951.14	8916
1952.13	8870
1953.11	8850
1954.1	8780
1955.09	8858
1956.07	8788
1957.06	8930
1958.05	8876
1959.03	8846
1960.02	8854
1961	8874
1961.99	8750
1962.98	8836
1963.96	8706
1964.95	8714
1965.93	8712
1966.92	8702
1967.9	8804
1968.89	8770
1969.87	8786
1970.85	8692
1971.84	8680
1972.82	8714
1973.81	8672
1974.79	8692
1975.78	8800
1976.76	8630
1977.74	8738
1978.73	8600
1979.71	8788
1980.69	8660
1981.67	8732
1982.66	8688
1983.64	8670
1984.62	8792
1985.6	8676
1986.59	8724
1987.57	8760
1988.55	8604
1989.53	8578
1990.51	8656
1991.49	8672
1992.47	8624
1993.45	8638
1994.44	8542
1995.42	8596
1996.4	8548
1997.38	8520
1998.36	8558
1999.34	8634
2000.32	8576
2001.3	8612
2002.28	8530
2003.26	8604
2004.24	8522
2005.22	8490
2006.19	8504
2007.17	8698
2008.15	8690
2009.13	8514
2010.11	8432
2011.09	8578
2012.06	8620
2013.04	8472
2014.02	8584
2015	8552
2015.98	8398
2016.95	8400
2017.93	8558
2018.91	8626
2019.88	8638
2020.86	8480
2021.84	8494
2022.81	8406
2023.79	8510
2024.77	8402
2025.74	8448
2026.72	8350
2027.69	8486
2028.67	8454
2029.65	8440
2030.62	8370
2031.6	8468
2032.57	8410
2033.55	8326
2034.52	8410
2035.5	8434
2036.47	8512
2037.44	8424
2038.42	8396
2039.39	8352
2040.36	8370
2041.34	8438
2042.31	8366
2043.29	8344
2044.26	8382
2045.23	8352
2046.2	8390
2047.18	8336
2048.15	8282
2049.12	8368
2050.09	8356
2051.07	8270
2052.04	8258
2053.01	8396
2053.98	8368
2054.95	8354
2055.93	8364
2056.9	8246
2057.87	8320
2058.84	8370
2059.81	8302
2060.78	8184
2061.75	8268
2062.72	8238
2063.69	8370
2064.66	8190
2065.63	8272
2066.6	8306
2067.57	8164
2068.54	8278
2069.51	8240
2070.48	8154
2071.45	8208
2072.42	8250
2073.38	8314
2074.35	8222
2075.32	8298
2076.29	8202
2077.26	8164
2078.23	8156
2079.19	8218
2080.16	8128
2081.13	8190
2082.1	8166
2083.06	8178
2084.03	8080
2085	8176
2085.96	8124
2086.93	8130
2087.9	8186
2088.86	8154
2089.83	8094
2090.8	8090
2091.76	8148
2092.73	8100
2093.69	8076
2094.66	8114
2095.62	8114
2096.59	8058
2097.55	8052
2098.52	8144
2099.48	8038
2100.45	8160
2101.41	7962
2102.38	7980
2103.34	8000
2104.31	8060
2105.27	8022
2106.23	8036
2107.2	8068
2108.16	8068
2109.12	8056
2110.09	7998
2111.05	7964
2112.01	8094
2112.98	8004
2113.94	8056
2114.9	7880
2115.86	7932
2116.82	7912
2117.79	8092
2118.75	7968
2119.71	7934
2120.67	8016
2121.63	7886
2122.59	8048
2123.55	7956
2124.52	7882
2125.48	7912
2126.44	7942
2127.4	8012
2128.36	7920
2129.32	7890
2130.28	7940
2131.24	7880
2132.2	7916
2133.16	7886
2134.12	7842
2135.08	7858
2136.04	7962
2136.99	7892
2137.95	7886
2138.91	7876
2139.87	7954
2140.83	7842
2141.79	7936
2142.75	7832
2143.7	7810
2144.66	7816
2145.62	7823.01
2146.58	7959.1
2147.53	7821.15
2148.49	7896.31
2149.45	7782.35
2150.41	7771.42
2151.36	7632.09
2152.32	7685.29
2153.28	7794.54
2154.23	7796.02
2155.19	7721.95
2156.14	7752.43
2157.1	7721.11
2158.06	7679.1
2159.01	7675.94
2159.97	7737.17
2160.92	7645.17
2161.88	7755.58
2162.83	7637.66
2163.79	7661.56
2164.74	7672.44
2165.7	7657.12
2166.65	7607.06
2167.61	7578.77
2168.56	7603.97
2169.51	7595.3
2170.47	7616.67
2171.42	7539.75
2172.38	7608.18
2173.33	7675.17
2174.28	7609
2175.24	7546.47
2176.19	7604.45
2177.14	7636.47
2178.09	7577.95
2179.05	7499.16
2180	7506.34
2180.95	7494.27
2181.9	7552.45
2182.86	7570.31
2183.81	7516.18
2184.76	7455.31
2185.71	7477.52
2186.66	7484.14
2187.61	7453.47
2188.57	7526.66
2189.52	7514.74
2190.47	7496.66
2191.42	7455.35
2192.37	7463.55
2193.32	7419.16
2194.27	7448.77
2195.22	7421.36
2196.17	7461.51
2197.12	7439.46
2198.07	7383.94
2199.02	7446.93
2199.97	7390.01
2200.92	7374.04
2201.87	7372.38
2202.82	7387.17
2203.76	7397.63
2204.71	7353.79
2205.66	7403.36
2206.61	7484.46
2207.56	7450.31
2208.51	7483.54
2209.45	7412.58
2210.4	7345.91
2211.35	7327.47
2212.3	7359.7
2213.25	7405.91
2214.19	7334.83
2215.14	7336.78
2216.09	7316.28
2217.03	7382.58
2217.98	7375.03
2218.93	7302.43
2219.87	7309.05
2220.82	7313.11
2221.77	7295
2222.71	7353.32
2223.66	7370.03
2224.6	7361.05
2225.55	7357.04
2226.49	7359.51
2227.44	7350.98
2228.38	7367.8
2229.33	7391.41
2230.27	7346.78
2231.22	7388.82
2232.16	7380.19
2233.11	7310.21
2234.05	7337.48
2235	7367.7
2235.94	7362.27
2236.88	7363.56
2237.83	7352.42
2238.77	7312.01
2239.72	7332.42
2240.66	7374.23
2241.6	7354.66
2242.07	7330
2243.02	7300
2243.97	7248
2244.92	7286
2245.87	7456
2246.81	7342
2247.76	7390
2248.71	7378
2249.65	7374
2250.6	7318
2251.55	7386
2252.49	7298
2253.44	7382
2254.39	7410
2255.33	7296
2256.28	7278
2257.22	7340
2258.17	7222
2259.12	7420
2260.06	7372
2261.01	7216
2261.95	7350
2262.9	7278
2263.84	7210
2264.78	7246
2265.73	7290
2266.67	7252
2267.62	7212
2268.56	7290
2269.51	7264
2270.45	7286
2271.39	7230
2272.34	7302
2273.28	7206
2274.22	7238
2275.17	7170
2276.11	7324
2277.05	7282
2277.99	7266
2278.94	7214
2279.88	7132
2280.82	7296
2281.76	7210
2282.71	7232
2283.65	7122
2284.59	7288
2285.53	7298
2286.47	7154
2287.41	7148
2288.35	7122
2289.3	7150
2290.24	7226
2291.18	7240
2292.12	7126
2293.06	7108
2294	7220
2294.94	7040
2295.88	7156
2296.82	7040
2297.76	7058
2298.7	7118
2299.64	7106
2300.58	7118
2301.52	7230
2302.46	7014
2303.39	7026
2304.33	7050
2305.27	7072
2306.21	7088
2307.15	7024
2308.09	6942
2309.02	7142
2309.96	7100
2310.9	7042
2311.84	7056
2312.77	6988
2313.71	7052
2314.65	7044
2315.59	7126
2316.52	6998
2317.46	7020
2318.4	6980
2319.33	7048
2320.27	6970
2321.21	6928
2322.14	7028
2323.08	7032
2324.01	7070
2324.95	7074
2325.89	6900
2326.82	6930
2327.76	7052
2328.69	6896
2329.63	7024
2330.56	6916
2331.5	7020
2332.43	6912
2333.36	6968
2334.3	6868
2335.23	6908
2336.17	6848
2337.1	6982
2338.03	6940
2338.97	6892
2339.9	6872
2340.83	6958
2341.77	7024
2342.7	6886
2343.63	6816
2344.57	6916
2345.5	6872
2346.43	6798
2347.36	6936
2348.3	6788
2349.23	6820
2350.16	6832
2351.09	6856
2352.02	6836
2352.95	6824
2353.89	6882
2354.82	6850
2355.75	6872
2356.68	6940
2357.61	6882
2358.54	6882
2359.47	6902
2360.4	6882
2361.33	6890
2362.26	6746
2363.19	6826
2364.12	6930
2365.05	6856
2365.98	6692
2366.91	6748
2367.84	6816
2368.77	6754
2369.7	6834
2370.63	6826
2371.56	6754
2372.48	6756
2373.41	6778
2374.34	6806
2375.27	6786
2376.2	6730
2377.12	6754
2378.05	6798
2378.98	6686
2379.91	6756
2380.84	6772
2381.76	6746
2382.69	6722
2383.62	6810
2384.54	6660
2385.47	6696
2386.4	6650
2387.32	6618
2388.25	6636
2389.18	6708
2390.1	6750
2391.03	6644
2391.95	6694
2392.88	6620
2393.8	6654
2394.73	6544
2395.65	6674
2396.58	6586
2397.5	6620
2398.43	6546
2399.35	6648
2400.28	6652
2401.2	6668
2402.13	6540
2403.05	6588
2403.97	6672
2404.9	6586
2405.82	6558
2406.75	6564
2407.67	6546
2408.59	6634
2409.51	6608
2410.44	6568
2411.36	6504
2412.28	6570
2413.21	6586
2414.13	6570
2415.05	6544
2415.97	6552
2416.9	6592
2417.82	6542
2418.74	6418
2419.66	6554
2420.58	6562
2421.5	6490
2422.42	6536
2423.35	6484
2424.27	6338
2425.19	6502
2426.11	6478
2427.03	6482
2427.95	6508
2428.87	6384
2429.79	6544
2430.71	6388
2431.63	6318
2432.55	6414
2433.47	6322
2434.39	6518
2435.31	6360
2436.23	6364
2437.14	6410
2438.06	6318
2438.98	6378
2439.9	6428
2440.82	6582
2441.74	6394
2442.66	6332
2443.57	6390
2444.49	6242
2445.41	6358
2446.33	6358
2447.24	6398
2448.16	6352
2449.08	6304
2450	6326
2450.91	6342
2451.83	6254
2452.75	6180
2453.66	6296
2454.58	6316
2455.5	6332
2456.41	6278
2457.33	6292
2458.24	6230
2459.16	6214
2460.08	6244
2460.99	6242
2461.91	6284
2462.82	6250
2463.74	6230
2464.65	6256
2465.57	6298
2466.48	6218
2467.4	6288
2468.31	6284
2469.22	6198
2470.14	6250
2471.05	6256
2471.97	6198
2472.88	6182
2473.79	6266
2474.71	6252
2475.62	6130
2476.53	6138
2477.45	6152
2478.36	6192
2479.27	6164
2480.19	6110
2481.1	6220
2482.01	6230
2482.92	6162
2483.83	6130
2484.75	6090
2485.66	6182
2486.57	6196
2487.48	6046
2488.39	6174
2489.3	6260
2490.22	6044
2491.13	6060
2492.04	6068
2492.95	6096
2493.86	6084
2494.77	6080
2495.68	6090
2496.59	6110
2497.5	5946
2498.41	6062
2499.32	5978
2500.23	6074
2501.14	6036
2502.05	5942
2502.96	5916
2503.87	6024
2504.78	5920
2505.68	6038
2506.59	6050
2507.5	6060
2508.41	5924
2509.32	5960
2510.23	6020
2511.14	5986
2512.04	5922
2512.95	5900
2513.86	5858
2514.77	5942
2515.67	5850
2516.58	5954
2517.49	5984
2518.39	5930
2519.3	5876
2520.21	5916
2521.11	5802
2522.02	5986
2522.93	5814
2523.83	5796
2524.74	5752
2525.65	5912
2526.55	5854
2527.46	5842
2528.36	5824
2529.27	5770
2530.17	5786
2531.08	5890
2531.98	5740
2532.89	5800
2533.79	5818
2534.7	5746
2535.6	5728
2536.51	5740
2537.41	5820
2538.32	5766
2539.22	5726
2540.12	5720
2541.03	5684
2541.93	5772
2542.83	5746
2543.74	5696
2544.64	5750
2545.54	5750
2546.45	5648
2547.35	5640
2548.25	5674
2549.15	5670
2550.06	5604
2550.96	5600
2551.86	5620
2552.76	5608
2553.66	5638
2554.56	5714
2555.47	5658
2556.37	5652
2557.27	5518
2558.17	5654
2559.07	5578
2559.97	5640
2560.87	5552
2561.77	5628
2562.67	5584
2563.58	5596
2564.47	5596
2565.38	5592
2566.27	5572
2567.18	5578
2568.07	5586
2568.97	5420
2569.87	5498
2570.77	5554
2571.67	5474
2572.57	5456
2573.47	5478
2574.37	5520
2575.27	5422
2576.17	5524
2577.06	5456
2577.96	5520
2578.86	5510
2579.76	5458
2580.66	5558
2581.55	5406
2582.45	5446
2583.35	5482
2584.25	5448
2585.14	5418
2586.04	5416
2586.94	5368
2587.83	5528
2588.73	5438
2589.63	5424
2590.52	5466
2591.42	5428
2592.32	5330
2593.21	5364
2594.11	5366
2595	5398
2595.9	5358
2596.8	5408
2597.69	5326
2598.59	5386
2599.48	5310
2600.38	5294
2601.27	5338
2602.17	5352
2603.06	5308
2603.95	5346
2604.85	5294
2605.74	5248
2606.64	5338
2607.53	5288
2608.42	5384
2609.32	5318
2610.21	5224
2611.1	5244
2612	5200
2612.89	5226
2613.78	5194
2614.68	5126
2615.57	5178
2616.46	5118
2617.36	5216
2618.25	5246
2619.14	5162
2620.03	5290
2620.92	5212
2621.82	5216
2622.71	5190
2623.6	5166
2624.49	5178
2625.38	5092
2626.27	5184
2627.16	5144
2628.05	5176
2628.95	5128
2629.84	5128
2630.73	5090
2631.62	5042
2632.51	5126
2633.4	5084
2634.29	5042
2635.18	5092
2636.07	5064
2636.96	5040
2637.85	4988
2638.74	5126
2639.62	5100
2640.51	4988
2641.4	4970
2642.29	5018
2643.18	4894
2644.07	4924
2644.96	4932
2645.85	4974
2646.73	4912
2647.62	4896
2648.51	4946
2649.4	4916
2650.28	4928
2651.17	4974
2652.06	4892
2652.95	4922
2653.83	4978
2654.72	4918
2655.61	4936
2656.5	4896
2657.38	4866
2658.27	4886
2659.15	4946
2660.04	4962
2660.93	4844
2661.81	4842
2662.7	4846
2663.58	4942
2664.47	4892
2665.35	4852
2666.24	4864
2667.13	4836
2668.01	4832
2668.9	4864
2669.78	4838
2670.66	4848
2671.55	4828
2672.43	4788
2673.32	4868
2674.2	4834
2675.09	4848
2675.97	4794
2676.85	4866
2677.74	4874
2678.62	4858
2679.5	4980
2680.39	4774
2681.27	4688
2682.15	4822
2683.04	4788
2683.92	4748
2684.8	4782
2685.68	4738
2686.57	4748
2687.45	4720
2688.33	4748
2689.21	4678
2690.09	4760
2690.98	4650
2691.86	4716
2692.74	4730
2693.62	4680
2694.5	4706
2695.38	4670
2696.26	4814
2697.15	4706
2698.03	4590
2698.91	4712
2699.79	4636
2700.67	4694
2701.55	4614
2702.43	4580
2703.31	4688
2704.19	4676
2705.07	4584
2705.95	4574
2706.83	4608
2707.7	4566
2708.58	4544
2709.46	4612
2710.34	4650
2711.22	4594
2712.1	4614
2712.98	4542
2713.86	4556
2714.73	4510
2715.61	4560
2716.49	4570
2717.37	4518
2718.25	4538
2719.12	4520
2720	4506
2720.88	4578
2721.76	4516
2722.63	4432
2723.51	4556
2724.39	4474
2725.26	4494
2726.14	4494
2727.02	4482
2727.89	4486
2728.77	4474
2729.64	4484
2730.52	4446
2731.4	4440
2732.27	4474
2733.15	4394
2734.02	4464
2734.9	4466
2735.77	4412
2736.65	4396
2737.52	4380
2738.4	4388
2739.27	4420
2740.15	4372
2741.02	4340
2741.9	4398
2742.77	4342
2743.64	4352
2744.52	4334
2745.39	4282
2746.27	4288
2747.14	4328
2748.01	4294
2748.89	4336
2749.76	4338
2750.63	4330
2751.51	4360
2752.38	4298
2753.25	4318
2754.12	4196
2755	4282
2755.87	4232
2756.74	4276
2757.61	4330
2758.48	4266
2759.35	4278
2760.23	4182
2761.1	4180
2761.97	4254
2762.84	4200
2763.71	4242
2764.58	4226
2765.45	4180
2766.32	4208
2767.19	4216
2768.07	4134
2768.94	4160
2769.81	4178
2770.68	4192
2771.55	4128
2772.42	4152
2773.29	4098
2774.16	4128
2775.02	4124
2775.89	4070
2776.76	4124
2777.63	4168
2778.5	4134
2779.37	4090
2780.24	4098
2781.11	4112
2781.98	4100
2782.84	4134
2783.71	4118
2784.58	4010
2785.45	4114
2786.32	4072
2787.18	4102
2788.05	4006
2788.92	4032
2789.79	4010
2790.65	3976
2791.52	4098
2792.39	3998
2793.25	4002
2794.12	4014
2794.99	4066
2795.85	3962
2796.72	3970
2797.59	3984
2798.45	4004
2799.32	3970
2800.18	4026
2801.05	3998
2801.92	4052
2802.78	3956
2803.65	3988
2804.51	4020
2805.38	3972
2806.24	3944
2807.11	3936
2807.97	3944
2808.84	3940
2809.7	3934
2810.57	3926
2811.43	3838
2812.29	4008
2813.16	3908
2814.02	3900
2814.88	3882
2815.75	3894
2816.61	3800
2817.47	3846
2818.34	3828
2819.2	3914
2820.06	3906
2820.93	3868
2821.79	3876
2822.65	3788
2823.51	3830
2824.38	3838
2825.24	3826
2826.1	3828
2826.96	3816
2827.82	3860
2828.69	3792
2829.55	3852
2830.41	3768
2831.27	3714
2832.13	3696
2832.99	3778
2833.85	3698
2834.71	3792
2835.57	3802
2836.44	3718
2837.3	3812
2838.16	3752
2839.02	3752
2839.88	3694
2840.74	3692
2841.6	3782
2842.46	3720
2843.32	3724
2844.18	3690
2845.03	3622
2845.89	3626
2846.75	3672
2847.61	3700
2848.47	3728
2849.33	3724
2850.19	3720
2851.05	3598
2851.9	3610
2852.76	3620
2853.62	3678
2854.48	3622
2855.34	3600
2856.19	3572
2857.05	3654
2857.91	3574
2858.77	3548
2859.62	3570
2860.48	3616
2861.34	3594
2862.19	3556
2863.05	3494
2863.91	3598
2864.76	3560
2865.62	3528
2866.48	3534
2867.33	3570
2868.19	3498
2869.04	3560
2869.9	3534
2870.76	3540
2871.61	3472
2872.47	3540
2873.32	3524
2874.18	3482
2875.03	3426
2875.89	3498
2876.74	3484
2877.6	3460
2878.45	3462
2879.31	3390
2880.16	3520
2881.01	3394
2881.87	3498
2882.72	3526
2883.58	3432
2884.43	3444
2885.28	3402
2886.14	3424
2886.99	3426
2887.84	3368
2888.7	3374
2889.55	3462
2890.4	3386
2891.25	3340
2892.11	3364
2892.96	3474
2893.81	3388
2894.66	3456
2895.52	3422
2896.37	3368
2897.22	3340
2898.07	3428
2898.92	3420
2899.77	3324
2900.62	3304
2901.48	3304
2902.33	3332
2903.18	3376
2904.03	3318
2904.88	3390
2905.73	3336
2906.58	3300
2907.43	3340
2908.28	3368
2909.13	3304
2909.98	3276
2910.83	3344
2911.68	3328
2912.53	3322
2913.38	3300
2914.23	3288
2915.08	3296
2915.93	3264
2916.78	3280
2917.63	3288
2918.47	3236
2919.32	3186
2920.17	3324
2921.02	3342
2921.87	3324
2922.72	3308
2923.56	3278
2924.41	3276
2925.26	3246
2926.11	3332
2926.95	3354
2927.8	3228
2928.65	3252
2929.5	3166
2930.34	3226
2931.19	3244
2932.04	3286
2932.88	3218
2933.73	3228
2934.58	3262
2935.42	3184
2936.27	3186
2937.11	3204
2937.96	3192
2938.81	3230
2939.65	3136
2940.5	3214
2941.34	3150
2942.19	3174
2943.03	3184
2943.88	3190
2944.72	3154
2945.57	3186
2946.41	3110
2947.26	3138
2948.1	3140
2948.95	3138
2949.79	3190
2950.64	3126
2951.48	3122
2952.32	3150
2953.17	3148
2954.01	3122
2954.85	3112
2955.7	3166
2956.54	3104
2957.38	3124
2958.23	3134
2959.07	3126
2959.91	3076
2960.75	3122
2961.6	3038
2962.44	3154
2963.28	3036
2964.12	3050
2964.97	3106
2965.81	3106
2966.65	3016
2967.49	3020
2968.33	3068
2969.17	3126
2970.02	2986
2970.86	3058
2971.7	3088
2972.54	2970
2973.38	3136
2974.22	2946
2975.06	3018
2975.9	3016
2976.74	3076
2977.58	3024
2978.42	2978
2979.26	2988
2980.1	3004
2980.94	2994
2981.78	2976
2982.62	2954
2983.46	2966
2984.3	2940
2985.14	2994
2985.98	2944
2986.82	2936
2987.66	2914
2988.49	2920
2989.33	2974
2990.17	2942
2991.01	2872
2991.85	2946
2992.69	2892
2993.52	2916
2994.36	2886
2995.2	2868
2996.04	2940
2996.87	2888
2997.71	2914
2998.55	2908
2999.39	2954
