#Acq. time (s)=	10
#Accumulations=	1
#Range (cm-¹)=	100...3000
#Windows=	3
#Autofocus=	Off
#AutoExposure=	Off
#Spike filter=	Off
#Delay time (s)=	0
#Binning=	1
#Readout mode=	Signal
#DeNoise=	Off
#ICS correction=	Off
#Dark correction=	Off
#Inst. Process=	Off
#Instrument=	LabRAM HR Evol
#Detector=	Syncerity OE
#Objective=	x100_VIS
#Grating=	600 (500nm)
#ND Filter=	3.2%
#Laser=	633nm_Edge
#Hole=	100.021
#Range=	Visible
#Project=	Omar
#Sample=	26-06-23
#Site=	2
#Title=	Organic
#Remark=	
#Date=	26.06.2023 16:16
#Acquired=	26.06.2023 16:16:04
101.018	4652
102.302	4550
103.586	4610
104.869	4644
106.152	4612
107.435	4618
108.717	4668
109.999	4662
111.281	4740
112.563	4692
113.845	4684
115.126	4790
116.407	4756
117.688	4736
118.969	4670
120.249	4752
121.53	4674
122.81	4758
124.09	4758
125.369	4760
126.649	4852
127.928	4764
129.207	4780
130.486	4850
131.765	4864
133.043	4886
134.321	4842
135.599	4780
136.877	4884
138.155	4748
139.432	4886
140.708	4796
141.985	4872
143.261	4906
144.538	4806
145.814	4906
147.09	4914
148.366	4924
149.641	4996
150.916	5060
152.191	4950
153.466	4910
154.741	4960
156.016	4950
157.289	4998
158.563	5016
159.837	5030
161.111	5004
162.385	5018
163.657	4950
164.93	4990
166.203	4998
167.476	5046
168.747	5106
170.019	5066
171.291	5038
172.562	5094
173.834	4980
175.105	5050
176.377	5118
177.646	5118
178.917	5060
180.188	4984
181.457	5054
182.727	5124
183.996	5158
185.266	5070
186.536	5160
187.804	5118
189.073	5178
190.342	5202
191.609	5268
192.878	5172
194.145	5190
195.413	5196
196.681	5202
197.948	5292
199.215	5364
200.481	5284
201.749	5256
203.014	5308
204.281	5284
205.546	5342
206.813	5284
208.077	5400
209.343	5400
210.608	5374
211.873	5426
213.137	5394
214.402	5374
215.666	5426
216.93	5526
218.194	5396
219.458	5382
220.721	5454
221.983	5384
223.247	5548
224.509	5488
225.772	5524
227.034	5514
228.295	5592
229.558	5550
230.819	5544
232.081	5600
233.342	5572
234.602	5630
235.864	5574
237.124	5610
238.384	5590
239.645	5610
240.904	5634
242.164	5640
243.423	5714
244.683	5690
245.941	5716
247.2	5698
248.46	5686
249.717	5756
250.975	5658
252.233	5768
253.492	5730
254.749	5700
256.006	5794
257.263	5734
258.519	5708
259.777	5784
261.033	5774
262.289	5772
263.545	5740
264.8	5794
266.057	5834
267.312	5800
268.567	5724
269.822	5816
271.076	5688
272.331	5742
273.585	5726
274.839	5842
276.094	5802
277.347	5770
278.601	5726
279.854	5852
281.107	5764
282.359	5790
283.612	5952
284.864	5864
286.116	5978
287.368	5958
288.62	5956
289.871	5992
291.123	5928
292.374	5902
293.625	5954
294.875	6052
296.126	6024
297.376	6086
298.626	6176
299.876	6056
301.126	6168
302.375	6030
303.625	6134
304.874	6168
306.122	6096
307.371	6134
308.62	6190
309.866	6122
311.114	6142
312.362	6134
313.61	6166
314.857	6226
316.105	6298
317.352	6208
318.599	6272
319.844	6172
321.09	6330
322.337	6244
323.583	6302
324.828	6286
326.073	6270
327.318	6320
328.563	6180
329.808	6270
331.053	6314
332.296	6294
333.541	6278
334.785	6278
336.029	6388
337.272	6280
338.515	6356
339.759	6394
341.001	6364
342.244	6484
343.486	6442
344.728	6318
345.97	6378
347.212	6478
348.453	6458
349.695	6470
350.936	6468
352.176	6474
353.418	6452
354.659	6616
355.898	6560
357.139	6522
358.378	6580
359.618	6564
360.858	6646
362.097	6566
363.336	6560
364.574	6500
365.813	6618
367.051	6626
368.29	6548
369.527	6576
370.766	6676
372.002	6704
373.241	6578
374.477	6552
375.715	6640
376.951	6590
378.188	6670
379.424	6652
380.66	6596
381.896	6644
383.132	6772
384.367	6674
385.603	6672
386.838	6614
388.072	6748
389.307	6720
390.541	6786
391.776	6750
393.01	6730
394.243	6762
395.477	6808
396.71	6754
397.943	6784
399.177	6820
400.409	6846
401.641	6816
402.875	6826
404.106	6898
405.338	6878
406.57	6872
407.802	6846
409.032	6998
410.263	6890
411.495	6982
412.725	6990
413.955	7012
415.185	6984
416.417	7246
417.646	7096
418.875	7014
420.104	7136
421.335	7138
422.564	7132
423.792	7096
425.02	7258
426.249	7244
427.477	7222
428.706	7292
429.933	7282
431.161	7390
432.388	7292
433.615	7342
434.841	7358
436.068	7334
437.294	7392
438.522	7434
439.748	7464
440.974	7392
442.199	7506
443.425	7370
444.65	7354
445.875	7262
447.1	7278
448.324	7438
449.549	7372
450.773	7406
451.997	7382
453.221	7510
454.445	7414
455.668	7556
456.891	7378
458.114	7494
459.337	7442
460.56	7454
461.782	7482
463.005	7540
464.227	7528
465.447	7566
466.669	7548
467.89	7538
469.112	7514
470.333	7640
471.554	7568
472.774	7612
473.995	7630
475.214	7570
476.434	7600
477.654	7650
478.874	7638
480.093	7648
481.312	7630
482.53	7710
483.749	7638
484.968	7770
486.186	7596
487.405	7742
488.622	7770
489.84	7710
491.057	7848
492.275	7878
493.491	7808
494.708	7906
495.925	7854
497.141	7970
498.357	7962
499.574	7874
500.789	7870
502.005	7894
503.221	7966
504.435	7938
505.65	8012
506.866	7966
508.079	7946
509.294	7992
510.509	7982
511.722	7972
512.936	8078
514.149	8078
515.363	8090
516.577	7972
517.789	8120
519.002	8000
520.214	8074
521.427	8080
522.638	8250
523.851	8108
525.062	8126
526.274	8138
527.485	8170
528.697	8128
529.907	8296
531.118	8094
532.328	8142
533.539	8108
534.748	8186
535.959	8168
537.168	8042
538.379	8128
539.587	8220
540.796	8206
542.005	8302
543.214	8348
544.423	8134
545.631	8248
546.838	8330
548.047	8272
549.254	8296
550.461	8360
551.669	8376
552.876	8430
554.082	8418
555.29	8282
556.496	8376
557.701	8338
558.909	8440
560.114	8422
561.319	8390
562.524	8522
563.731	8574
564.935	8456
566.14	8610
567.344	8510
568.549	8528
569.753	8564
570.957	8564
572.161	8604
573.364	8628
574.568	8646
575.771	8560
576.974	8618
578.177	8786
579.379	8602
580.581	8748
581.785	8824
582.987	8764
584.188	8844
585.39	8788
586.591	8810
587.792	8788
588.993	8834
590.193	8810
591.394	8846
592.594	8902
593.796	8908
594.996	8842
596.195	8920
597.395	8956
598.594	8890
599.793	9048
600.992	8982
602.191	8962
603.39	8976
604.588	9084
605.786	9126
606.984	9116
608.181	9166
609.378	9212
610.576	9124
611.773	9210
612.97	9252
614.167	9342
615.364	9268
616.56	9384
617.757	9412
618.953	9356
620.149	9456
621.343	9434
622.539	9474
623.734	9456
624.929	9546
626.124	9614
627.319	9508
628.512	9638
629.707	9574
630.901	9686
632.095	9684
633.289	9710
634.481	9774
635.675	9710
636.868	9854
638.061	9864
639.253	9966
640.446	9876
641.638	9894
642.831	9972
644.021	9954
645.213	10060
646.405	10002
647.595	10074
648.787	10146
649.978	10136
651.168	10092
652.359	10102
653.549	10124
654.738	10308
655.929	10214
657.117	10296
658.307	10306
659.497	10374
660.685	10250
661.875	10146
663.063	10388
664.252	10340
665.439	10346
666.628	10344
667.816	10490
669.003	10406
670.191	10528
671.378	10520
672.565	10518
673.751	10532
674.939	10618
676.124	10656
677.311	10606
678.497	10590
679.682	10542
680.868	10616
682.053	10640
683.239	10646
684.424	10664
685.609	10720
686.793	10708
687.977	10774
689.162	10758
690.346	10836
691.529	10846
692.714	10938
693.897	10950
695.081	10998
696.264	10964
697.446	10932
698.63	10980
699.812	11042
700.993	11024
702.175	10986
703.358	11182
704.539	11062
705.72	11204
706.901	11316
708.083	11302
709.264	11288
710.444	11394
711.625	11452
712.806	11402
713.986	11492
715.165	11482
716.345	11536
717.524	11522
718.705	11560
719.884	11650
721.062	11618
722.241	11738
723.419	11752
724.597	11828
725.775	11930
726.954	11794
728.132	11778
729.31	11854
730.487	11756
731.664	12014
732.841	11960
734.017	11942
735.194	11964
736.37	12110
737.546	12024
738.722	12094
739.898	12110
741.074	12208
742.249	12112
743.424	12302
744.599	12200
745.774	12232
746.949	12224
748.123	12276
749.298	12452
750.472	12384
751.646	12446
752.819	12414
753.993	12534
755.166	12548
756.34	12588
757.511	12608
758.684	12518
759.857	12624
761.029	12538
762.202	12724
763.374	12726
764.546	12666
765.716	12752
766.888	12686
768.059	12948
769.23	12848
770.401	12952
771.571	21050
772.741	13992
773.912	13036
775.082	13146
776.251	13072
777.421	13074
778.59	13156
779.76	13234
780.928	13402
782.097	13332
783.266	13266
784.434	13166
785.602	13464
786.771	13346
787.938	13430
789.106	13574
790.274	13494
791.44	13546
792.608	13486
793.775	13650
794.941	13816
796.108	13706
797.273	13854
798.44	13774
799.606	13774
800.771	13854
801.937	13910
803.102	13954
804.268	14100
805.432	14120
806.597	14074
807.761	14196
808.926	14194
810.09	14204
811.254	14230
812.417	14436
813.582	14366
814.744	14372
815.908	14466
817.071	14546
818.234	14754
819.396	14582
820.558	14680
821.721	15022
822.883	15010
824.045	14840
825.206	14878
826.367	14934
827.529	14958
828.69	15150
829.85	15226
831.012	15284
832.172	15272
833.332	15276
834.493	15256
835.653	15374
836.812	15296
837.972	15640
839.131	15614
840.29	15558
841.449	15694
842.609	15588
843.767	15824
844.925	15846
846.083	16006
847.242	15944
848.399	15804
849.557	15950
850.714	15858
851.871	16188
853.029	16076
854.186	16176
855.342	16292
856.498	16260
857.654	16476
858.81	16424
859.966	16520
861.122	16312
862.278	16576
863.434	16568
864.589	16628
865.744	16644
866.898	16902
868.053	16780
869.207	16836
870.361	16786
871.515	16888
872.669	16954
873.822	17016
874.976	16948
876.129	17022
877.282	17110
878.435	17040
879.588	17306
880.74	17036
881.893	17228
883.045	17324
884.197	17484
885.349	17352
886.5	17342
887.652	17428
888.802	17500
889.953	17418
891.104	17540
892.254	17644
893.405	17642
894.555	17722
895.706	17626
896.854	17456
898.004	17718
899.154	17854
900.303	17886
901.453	17728
902.6	17866
903.749	18048
904.898	18076
906.047	18124
907.194	18084
908.342	18062
909.49	18158
910.638	18134
911.785	18090
912.932	18340
914.08	18388
915.225	18484
916.372	18326
917.519	18566
918.666	18384
919.811	18616
920.957	18646
922.102	18704
923.248	18644
924.394	18674
925.538	18828
926.684	18838
927.828	18878
928.973	18938
930.118	19046
931.261	19078
932.406	19198
933.549	19022
934.693	19302
935.836	19062
936.979	19158
938.122	19282
939.265	19668
940.407	19678
941.55	19608
942.692	19640
943.835	19846
944.976	19660
946.118	19880
947.259	19830
948.401	20038
949.542	20038
950.682	20018
951.824	20104
952.964	20302
954.105	20202
955.245	20442
956.385	20490
957.525	20316
958.664	20552
959.803	20564
960.944	20634
962.082	20652
963.221	20698
964.36	20742
965.498	20846
966.636	20736
967.774	20940
968.913	20898
970.051	20938
971.188	20979
972.325	21020
973.463	21040
974.6	21226
975.736	21350
976.873	21292
978.009	21398
979.146	21272
980.282	21478
981.418	21436
982.554	21390
983.689	21530
984.824	21582
985.959	21726
987.095	21648
988.23	21638
989.364	21690
990.499	21870
991.633	21920
992.767	21840
993.9	21932
995.034	21772
996.167	22104
997.301	22098
998.434	22118
999.567	22120
1000.7	22330
1001.83	22186
1002.96	22226
1004.1	22130
1005.23	22290
1006.36	22264
1007.49	22370
1008.62	22476
1009.76	22572
1010.89	22650
1012.02	22482
1013.15	22744
1014.28	22722
1015.41	22816
1016.54	22730
1017.67	22824
1018.8	22902
1019.93	22924
1021.06	22820
1022.19	23104
1023.32	23052
1024.44	23254
1025.57	23126
1026.7	23234
1027.83	23358
1028.96	23410
1030.09	23472
1031.21	23502
1032.34	23348
1033.47	23562
1034.6	23772
1035.72	23810
1036.85	23838
1037.98	23816
1039.1	23766
1040.23	23826
1041.35	23856
1042.48	23988
1043.61	24320
1044.73	24200
1045.86	24144
1046.98	24224
1048.11	24162
1049.23	24128
1050.36	24596
1051.48	24628
1052.61	24542
1053.73	24478
1054.85	24304
1055.98	24340
1057.1	24650
1058.22	24734
1059.35	24734
1060.47	24674
1061.59	24944
1062.72	24860
1063.84	24944
1064.96	24864
1066.08	24962
1067.2	24918
1068.33	25260
1069.45	24970
1070.57	25024
1071.69	25150
1072.81	25348
1073.93	25198
1075.05	25112
1076.17	25222
1077.29	25174
1078.41	25282
1079.53	25246
1080.65	25218
1081.77	25332
1082.89	25248
1084.01	25300
1085.13	25232
1086.25	25336
1087.37	25274
1088.48	25028
1089.6	25362
1090.72	25352
1091.84	25244
1092.96	25292
1094.07	25248
1095.19	25356
1096.31	25156
1097.43	25210
1098.54	25198
1099.66	25008
1100.78	25178
1101.89	25202
1103.01	25422
1104.12	25356
1105.24	25072
1106.35	25406
1107.47	25224
1108.59	25410
1109.7	25260
1110.81	25230
1111.93	25454
1113.04	25226
1114.16	25354
1115.27	25486
1116.39	25380
1117.5	25340
1118.61	25356
1119.73	25302
1120.84	25438
1121.95	25234
1123.06	25242
1124.18	25640
1125.29	25420
1126.4	25462
1127.51	25408
1128.63	25638
1129.74	25606
1130.85	25618
1131.96	25512
1133.07	25462
1134.18	25578
1135.29	25424
1136.4	25432
1137.51	25564
1138.62	25704
1139.73	25600
1140.84	25480
1141.95	25500
1143.06	25640
1144.17	25782
1145.28	25702
1146.39	25798
1147.5	25722
1148.61	25816
1149.72	25682
1150.82	25756
1151.93	25814
1153.04	25728
1154.15	26002
1155.26	25980
1156.36	25840
1157.47	25800
1158.58	25930
1159.68	25704
1160.79	25634
1161.9	25780
1163	25854
1164.11	25790
1165.22	26000
1166.32	25614
1167.43	25892
1168.53	25772
1169.64	25754
1170.74	25614
1171.85	25722
1172.95	25808
1174.06	25610
1175.16	25630
1176.26	25658
1177.37	25616
1178.47	25718
1179.58	25602
1180.68	25626
1181.78	25336
1182.88	25574
1183.99	25268
1185.09	25366
1186.19	25374
1187.3	25268
1188.4	25298
1189.5	25182
1190.6	25170
1191.7	25222
1192.8	25004
1193.9	24846
1195.01	25014
1196.11	25014.2
1197.21	25051.5
1198.31	24791
1199.41	24805.2
1200.51	24699.4
1201.61	24856.9
1202.71	24702.1
1203.81	24744.8
1204.91	24610.7
1206.01	24560.3
1207.11	24561
1208.2	24452.7
1209.3	24497.5
1210.4	24412.5
1211.5	24368.5
1212.6	24276.4
1213.7	24241.3
1214.8	24417.7
1215.89	24184.4
1216.99	24238.7
1218.09	24064.1
1219.18	24099.7
1220.28	24001.2
1221.38	24003.8
1222.48	23880.5
1223.57	23706.6
1224.67	23980.1
1225.76	23809.6
1226.86	23698.5
1227.96	23753.7
1229.05	23790.3
1230.15	23658.9
1231.24	23719.1
1232.34	23599.1
1233.43	23517.3
1234.53	23468.2
1235.62	23633.9
1236.71	23388.3
1237.81	23441.9
1238.9	23415.8
1240	23351.3
1241.09	23400.7
1242.18	23333.5
1243.28	23105.1
1244.37	22973.5
1245.46	23293.6
1246.56	23086.7
1247.65	23052
1248.74	23065.4
1249.83	23079.9
1250.93	23074
1252.02	23015.7
1253.11	22906.2
1254.2	22984
1255.29	23093.8
1256.38	22992.7
1257.47	22817.6
1258.56	22723.1
1259.65	22842.7
1260.74	22675.6
1261.84	22639.8
1262.92	22693.9
1264.01	22682.4
1265.1	22622.3
1266.19	22629.5
1267.28	22505.1
1268.37	22621.6
1269.46	22578.7
1270.55	22499
1271.64	22344.1
1272.73	22283.5
1273.82	22365.5
1274.9	22256
1275.99	22249.6
1277.08	22340.1
1278.17	22338.4
1279.26	22077.5
1280.34	22024.7
1281.43	22157.5
1282.52	22023.9
1283.6	21946.3
1284.69	21864.1
1285.78	21846.1
1286.86	21841.4
1287.95	21846.3
1289.03	21695.7
1290.12	21667
1291.21	21626.8
1292.29	21709.4
1293.38	21666.7
1294.46	21479.5
1295.55	21344.3
1296.63	21452.1
1297.71	21414.6
1298.8	21562.8
1299.88	21261.4
1300.97	21203.7
1302.05	21311.6
1303.13	21116.8
1304.22	20968.7
1305.3	21070.2
1306.38	21019
1307.34	21042
1308.43	20834
1309.52	20696
1310.61	20914
1311.7	20984
1312.78	20754
1313.87	20628
1314.96	20896
1316.05	20652
1317.13	20420
1318.22	20514
1319.3	20320
1320.39	20338
1321.48	20460
1322.56	20356
1323.65	20140
1324.73	20082
1325.82	20142
1326.9	20024
1327.99	20008
1329.07	19734
1330.16	19774
1331.24	19744
1332.33	19788
1333.41	19574
1334.5	19546
1335.58	19558
1336.66	19482
1337.75	19252
1338.83	19374
1339.91	19362
1341	19332
1342.08	19140
1343.16	19094
1344.25	19194
1345.33	18924
1346.41	19022
1347.49	18880
1348.57	18932
1349.65	18908
1350.74	18780
1351.82	18680
1352.9	18506
1353.98	18804
1355.06	18700
1356.14	18544
1357.22	18606
1358.3	18402
1359.38	18392
1360.46	18474
1361.54	18334
1362.62	18284
1363.7	18456
1364.78	18188
1365.86	18220
1366.94	18192
1368.02	18016
1369.09	17794
1370.17	17932
1371.25	17954
1372.33	18030
1373.41	17902
1374.48	17784
1375.56	17758
1376.64	17750
1377.72	17938
1378.79	17636
1379.87	17618
1380.95	17620
1382.02	17540
1383.1	17344
1384.17	17450
1385.25	17588
1386.33	17498
1387.4	17344
1388.48	17236
1389.55	17174
1390.63	17252
1391.7	17210
1392.78	17210
1393.85	17104
1394.93	17056
1396	17020
1397.07	16982
1398.15	17040
1399.22	16924
1400.3	17030
1401.37	16832
1402.44	16800
1403.52	16868
1404.59	16870
1405.66	16658
1406.73	16536
1407.81	16560
1408.88	16656
1409.95	16426
1411.02	16374
1412.09	16576
1413.17	16520
1414.24	16406
1415.31	16392
1416.38	16302
1417.45	16318
1418.52	16290
1419.59	16082
1420.66	16256
1421.73	16082
1422.8	16054
1423.87	16186
1424.94	15970
1426.01	16220
1427.08	16030
1428.15	16018
1429.22	15968
1430.29	15978
1431.35	15768
1432.42	15928
1433.49	15734
1434.56	15864
1435.63	15772
1436.7	15754
1437.76	15612
1438.83	15676
1439.9	15670
1440.96	15604
1442.03	15508
1443.1	15544
1444.17	15788
1445.23	15490
1446.3	15414
1447.36	15610
1448.43	15532
1449.49	15292
1450.56	15478
1451.63	15418
1452.69	15288
1453.76	15348
1454.82	15258
1455.89	15296
1456.95	15144
1458.01	15118
1459.08	15152
1460.14	15160
1461.21	15228
1462.27	15320
1463.34	15034
1464.4	14908
1465.46	15046
1466.52	14906
1467.59	15104
1468.65	15076
1469.71	14908
1470.77	14966
1471.84	14772
1472.9	14964
1473.96	14902
1475.02	14838
1476.08	14914
1477.15	14876
1478.21	14878
1479.27	14928
1480.33	14656
1481.39	14568
1482.45	14730
1483.51	14670
1484.57	14868
1485.63	14690
1486.69	14544
1487.75	14590
1488.81	14544
1489.87	14688
1490.93	14484
1491.99	14646
1493.05	14538
1494.1	14416
1495.16	14498
1496.22	14410
1497.28	14366
1498.34	14328
1499.4	14178
1500.45	14480
1501.51	14214
1502.57	14226
1503.63	14268
1504.68	14166
1505.74	14204
1506.8	14196
1507.85	14142
1508.91	14218
1509.97	14256
1511.02	14052
1512.08	14112
1513.13	14118
1514.19	13978
1515.24	14070
1516.3	14000
1517.35	13930
1518.41	13944
1519.46	13778
1520.52	13966
1521.57	13836
1522.63	13704
1523.68	13794
1524.73	13736
1525.79	13596
1526.84	13724
1527.9	13710
1528.95	13590
1530	13728
1531.06	13586
1532.11	13526
1533.16	13528
1534.21	13510
1535.26	13494
1536.32	13454
1537.37	13398
1538.42	13480
1539.47	13414
1540.52	13424
1541.57	13370
1542.63	13390
1543.68	13284
1544.73	13432
1545.78	13278
1546.83	13386
1547.88	13274
1548.93	13106
1549.98	13188
1551.03	13168
1552.08	12998
1553.13	13176
1554.18	13252
1555.23	13062
1556.27	12994
1557.32	13110
1558.37	13010
1559.42	13002
1560.47	13060
1561.52	12914
1562.56	12930
1563.61	12960
1564.66	12858
1565.71	12964
1566.75	12944
1567.8	12946
1568.85	12762
1569.9	12806
1570.94	12762
1571.99	12782
1573.03	12674
1574.08	12682
1575.13	12862
1576.17	12704
1577.22	12778
1578.26	12722
1579.31	12794
1580.35	12550
1581.4	12864
1582.44	12902
1583.49	12804
1584.53	12604
1585.58	12766
1586.62	12806
1587.66	12704
1588.71	12696
1589.75	12650
1590.8	12570
1591.84	12668
1592.88	12544
1593.93	12570
1594.97	12548
1596.01	12492
1597.05	12606
1598.1	12648
1599.14	12442
1600.18	12426
1601.22	12538
1602.26	12576
1603.31	12362
1604.35	12374
1605.39	12424
1606.43	12442
1607.47	12496
1608.51	12356
1609.55	12380
1610.59	12316
1611.63	12358
1612.67	12470
1613.71	12272
1614.75	12348
1615.79	12450
1616.83	12482
1617.87	12448
1618.91	12396
1619.95	12372
1620.99	12314
1622.02	12218
1623.06	12296
1624.1	12288
1625.14	12318
1626.18	12294
1627.21	12248
1628.25	12148
1629.29	12374
1630.33	12304
1631.36	12212
1632.4	12256
1633.44	12260
1634.48	12136
1635.51	12082
1636.55	12148
1637.58	12214
1638.62	12096
1639.66	12168
1640.69	12134
1641.73	12086
1642.76	12084
1643.8	12090
1644.83	12122
1645.87	12078
1646.9	12110
1647.94	12166
1648.97	11944
1650	11946
1651.04	11868
1652.07	12050
1653.11	12028
1654.14	11952
1655.17	11852
1656.21	11842
1657.24	11808
1658.27	11852
1659.31	11932
1660.34	11836
1661.37	11776
1662.4	11768
1663.43	11788
1664.47	11796
1665.5	11716
1666.53	11778
1667.56	11726
1668.59	11852
1669.62	11662
1670.66	11706
1671.69	11686
1672.72	11624
1673.75	11636
1674.78	11582
1675.81	11502
1676.84	11596
1677.87	11492
1678.9	11450
1679.93	11546
1680.96	11522
1681.98	11398
1683.01	11578
1684.04	11524
1685.07	11394
1686.1	11530
1687.13	11450
1688.16	11364
1689.19	11534
1690.21	11418
1691.24	11434
1692.27	11256
1693.3	11338
1694.32	11412
1695.35	11298
1696.38	11278
1697.4	11324
1698.43	11268
1699.46	11254
1700.48	11416
1701.51	11140
1702.54	11226
1703.56	11106
1704.59	11226
1705.61	11134
1706.64	11136
1707.66	11212
1708.69	11126
1709.71	11166
1710.74	11080
1711.76	11188
1712.79	11108
1713.81	10978
1714.83	11066
1715.86	11028
1716.88	11196
1717.91	11070
1718.93	10986
1719.95	10946
1720.98	11084
1722	11002
1723.02	11014
1724.04	11082
1725.07	10996
1726.09	11084
1727.11	10816
1728.13	10974
1729.15	11070
1730.18	10834
1731.2	10904
1732.22	10908
1733.24	10992
1734.26	10840
1735.28	10838
1736.3	10812
1737.32	10892
1738.34	10888
1739.36	10810
1740.38	10846
1741.4	10904
1742.42	10892
1743.44	10774
1744.46	10918
1745.48	10876
1746.5	10844
1747.52	10940
1748.54	10870
1749.56	10874
1750.58	10828
1751.6	10730
1752.61	10732
1753.63	10616
1754.65	10732
1755.67	10726
1756.68	10610
1757.7	10704
1758.72	10836
1759.74	10748
1760.75	10738
1761.77	10616
1762.79	10608
1763.8	10652
1764.82	10804
1765.84	10630
1766.85	10550
1767.87	10532
1768.88	10784
1769.9	10704
1770.91	10568
1771.93	10692
1772.94	10612
1773.96	10714
1774.97	10602
1775.99	10634
1777	10680
1778.02	10558
1779.03	10636
1780.04	10548
1781.06	10638
1782.07	10580
1783.09	10502
1784.1	10570
1785.11	10706
1786.13	10466
1787.14	10624
1788.15	10664
1789.16	10612
1790.18	10658
1791.19	10562
1792.2	10464
1793.21	10538
1794.22	10536
1795.23	10658
1796.25	10510
1797.26	10376
1798.27	10496
1799.28	10416
1800.29	10352
1801.3	10510
1802.31	10502
1803.32	10470
1804.33	10452
1805.34	10398
1806.35	10410
1807.36	10360
1808.37	10446
1809.38	10362
1810.39	10348
1811.4	10460
1812.41	10418
1813.42	10398
1814.43	10226
1815.43	10392
1816.44	10352
1817.45	10410
1818.46	10372
1819.47	10258
1820.47	10294
1821.48	10158
1822.49	10328
1823.49	10246
1824.5	10424
1825.51	10240
1826.52	10268
1827.52	10216
1828.53	10130
1829.54	10204
1830.54	10170
1831.55	10242
1832.55	10148
1833.56	10118
1834.56	10230
1835.57	10154
1836.57	10074
1837.58	10100
1838.58	10112
1839.59	10118
1840.59	10136
1841.6	10030
1842.6	10062
1843.61	10092
1844.61	10030
1845.61	10008
1846.62	10098
1847.62	9966
1848.62	10032
1849.63	10084
1850.63	9994
1851.63	9888
1852.64	9914
1853.64	9842
1854.64	9918
1855.64	10024
1856.64	9918
1857.65	10030
1858.65	9864
1859.65	9876
1860.65	9980
1861.65	9802
1862.65	9926
1863.65	9934
1864.66	9862
1865.66	9962
1866.66	9834
1867.66	9766
1868.66	9666
1869.66	9768
1870.66	9726
1871.66	9770
1872.66	9726
1873.66	9832
1874.66	9774
1875.65	9868
1876.65	9850
1877.65	9796
1878.65	9746
1879.65	9834
1880.65	9740
1881.65	9834
1882.64	9718
1883.64	9678
1884.64	9670
1885.64	9718
1886.63	9862
1887.63	9660
1888.63	9702
1889.63	9568
1890.62	9678
1891.62	9650
1892.62	9744
1893.61	9686
1894.61	9624
1895.6	9622
1896.6	9694
1897.6	9660
1898.59	9648
1899.59	9702
1900.58	9706
1901.58	9672
1902.57	9692
1903.57	9698
1904.56	9684
1905.56	9690
1906.55	9690
1907.54	9720
1908.54	9694
1909.53	9608
1910.53	9646
1911.52	9566
1912.51	9670
1913.51	9682
1914.5	9576
1915.49	9566
1916.49	9660
1917.48	9566
1918.47	9694
1919.46	9638
1920.46	9576
1921.45	9638
1922.44	9368
1923.43	9570
1924.42	9534
1925.41	9600
1926.41	9522
1927.4	9490
1928.39	9468
1929.38	9614
1930.37	9612
1931.36	9512
1932.35	9532
1933.34	9568
1934.33	9542
1935.32	9606
1936.31	9544
1937.3	9482
1938.29	9412
1939.28	9438
1940.27	9494
1941.26	9604
1942.24	9488
1943.23	9430
1944.22	9422
1945.21	9492
1946.2	9432
1947.19	9544
1948.17	9444
1949.16	9392
1950.15	9452
1951.14	9512
1952.13	9392
1953.11	9302
1954.1	9524
1955.09	9422
1956.07	9320
1957.06	9388
1958.05	9360
1959.03	9424
1960.02	9486
1961	9412
1961.99	9310
1962.98	9378
1963.96	9338
1964.95	9286
1965.93	9334
1966.92	9280
1967.9	9328
1968.89	9306
1969.87	9324
1970.85	9288
1971.84	9314
1972.82	9216
1973.81	9202
1974.79	9184
1975.78	9268
1976.76	9226
1977.74	9224
1978.73	9270
1979.71	9234
1980.69	9270
1981.67	9266
1982.66	9260
1983.64	9182
1984.62	9258
1985.6	9162
1986.59	9166
1987.57	9112
1988.55	9244
1989.53	9098
1990.51	9142
1991.49	9266
1992.47	9156
1993.45	8992
1994.44	8912
1995.42	9094
1996.4	9166
1997.38	9168
1998.36	9124
1999.34	9206
2000.32	9130
2001.3	9216
2002.28	9134
2003.26	9046
2004.24	9064
2005.22	9152
2006.19	9012
2007.17	9026
2008.15	9064
2009.13	9094
2010.11	9220
2011.09	9020
2012.06	9096
2013.04	8936
2014.02	9004
2015	8960
2015.98	9018
2016.95	8884
2017.93	9020
2018.91	8944
2019.88	9030
2020.86	8958
2021.84	8934
2022.81	9076
2023.79	8916
2024.77	8942
2025.74	8894
2026.72	9048
2027.69	8950
2028.67	8840
2029.65	8960
2030.62	8914
2031.6	9070
2032.57	8906
2033.55	8906
2034.52	8934
2035.5	9050
2036.47	8854
2037.44	8856
2038.42	8800
2039.39	8982
2040.36	8810
2041.34	9066
2042.31	8742
2043.29	8936
2044.26	8872
2045.23	8968
2046.2	8790
2047.18	8820
2048.15	8970
2049.12	8812
2050.09	8900
2051.07	9000
2052.04	8892
2053.01	8800
2053.98	8732
2054.95	8872
2055.93	8794
2056.9	8896
2057.87	8646
2058.84	8768
2059.81	8728
2060.78	8692
2061.75	8826
2062.72	8806
2063.69	8782
2064.66	8806
2065.63	8794
2066.6	8744
2067.57	8776
2068.54	8732
2069.51	8828
2070.48	8772
2071.45	8708
2072.42	8736
2073.38	8698
2074.35	8760
2075.32	8726
2076.29	8610
2077.26	8598
2078.23	8590
2079.19	8614
2080.16	8660
2081.13	8664
2082.1	8598
2083.06	8646
2084.03	8598
2085	8738
2085.96	8662
2086.93	8542
2087.9	8550
2088.86	8698
2089.83	8694
2090.8	8652
2091.76	8520
2092.73	8586
2093.69	8584
2094.66	8622
2095.62	8544
2096.59	8568
2097.55	8462
2098.52	8590
2099.48	8640
2100.45	8540
2101.41	8588
2102.38	8518
2103.34	8558
2104.31	8476
2105.27	8474
2106.23	8476
2107.2	8548
2108.16	8524
2109.12	8462
2110.09	8532
2111.05	8490
2112.01	8438
2112.98	8536
2113.94	8364
2114.9	8546
2115.86	8490
2116.82	8434
2117.79	8584
2118.75	8454
2119.71	8450
2120.67	8458
2121.63	8486
2122.59	8320
2123.55	8342
2124.52	8428
2125.48	8504
2126.44	8302
2127.4	8402
2128.36	8420
2129.32	8306
2130.28	8398
2131.24	8412
2132.2	8316
2133.16	8342
2134.12	8334
2135.08	8354
2136.04	8356
2136.99	8324
2137.95	8420
2138.91	8360
2139.87	8290
2140.83	8434
2141.79	8320
2142.75	8290
2143.7	8208
2144.66	8258
2145.62	8219.57
2146.58	8249.02
2147.53	8225.65
2148.49	8276.22
2149.45	8191.6
2150.41	8315.56
2151.36	8126.96
2152.32	8224.83
2153.28	8149.2
2154.23	8190.13
2155.19	8212.41
2156.14	8195.65
2157.1	8196.19
2158.06	8164.97
2159.01	8066
2159.97	8109.05
2160.92	8151.69
2161.88	8098.33
2162.83	8097.28
2163.79	8056.82
2164.74	8119.41
2165.7	8102.91
2166.65	8050.76
2167.61	8056.09
2168.56	8016
2169.51	8108.18
2170.47	8098.42
2171.42	8026.21
2172.38	8046.42
2173.33	8039.61
2174.28	8043.17
2175.24	8079.85
2176.19	8001.34
2177.14	7995.61
2178.09	8035.14
2179.05	7992.99
2180	7973.34
2180.95	7926.17
2181.9	7962.51
2182.86	7951.02
2183.81	7945.21
2184.76	7936.51
2185.71	7979.21
2186.66	7915.46
2187.61	7880.87
2188.57	7850.65
2189.52	7966.38
2190.47	7865.11
2191.42	7880.62
2192.37	7841.76
2193.32	7946.55
2194.27	7927.97
2195.22	7953.08
2196.17	7896.15
2197.12	7868.52
2198.07	7794.98
2199.02	7837.18
2199.97	7898.33
2200.92	7883.02
2201.87	7825.41
2202.82	7834.11
2203.76	7835.2
2204.71	7842.53
2205.66	7816.85
2206.61	7835.01
2207.56	7822.28
2208.51	7806.32
2209.45	7781.74
2210.4	7794.14
2211.35	7862.52
2212.3	7781.97
2213.25	7791.38
2214.19	7795.29
2215.14	7776.05
2216.09	7727.38
2217.03	7784.9
2217.98	7780.37
2218.93	7768.68
2219.87	7794.72
2220.82	7803.61
2221.77	7808.06
2222.71	7768.81
2223.66	7744.64
2224.6	7728.32
2225.55	7705.35
2226.49	7767.9
2227.44	7775.64
2228.38	7764.45
2229.33	7778.62
2230.27	7763.14
2231.22	7766.12
2232.16	7771.94
2233.11	7772.52
2234.05	7783.21
2235	7771.37
2235.94	7807.8
2236.88	7795.23
2237.83	7765.78
2238.77	7751.37
2239.72	7749.51
2240.66	7787.34
2241.6	7817.89
2242.07	7828
2243.02	7712
2243.97	7780
2244.92	7770
2245.87	7904
2246.81	7716
2247.76	7836
2248.71	7764
2249.65	7768
2250.6	7794
2251.55	7720
2252.49	7784
2253.44	7826
2254.39	7690
2255.33	7764
2256.28	7790
2257.22	7658
2258.17	7648
2259.12	7754
2260.06	7680
2261.01	7678
2261.95	7726
2262.9	7766
2263.84	7822
2264.78	7696
2265.73	7752
2266.67	7616
2267.62	7636
2268.56	7604
2269.51	7802
2270.45	7548
2271.39	7568
2272.34	7652
2273.28	7638
2274.22	7608
2275.17	7782
2276.11	7534
2277.05	7738
2277.99	7566
2278.94	7524
2279.88	7606
2280.82	7598
2281.76	7606
2282.71	7572
2283.65	7614
2284.59	7576
2285.53	7638
2286.47	7522
2287.41	7596
2288.35	7550
2289.3	7436
2290.24	7542
2291.18	7570
2292.12	7434
2293.06	7558
2294	7544
2294.94	7540
2295.88	7472
2296.82	7700
2297.76	7516
2298.7	7536
2299.64	7466
2300.58	7396
2301.52	7514
2302.46	7476
2303.39	7448
2304.33	7400
2305.27	7450
2306.21	7510
2307.15	7380
2308.09	7504
2309.02	7356
2309.96	7446
2310.9	7496
2311.84	7422
2312.77	7458
2313.71	7336
2314.65	7502
2315.59	7394
2316.52	7384
2317.46	7416
2318.4	7422
2319.33	7348
2320.27	7422
2321.21	7402
2322.14	7338
2323.08	7258
2324.01	7464
2324.95	7254
2325.89	7250
2326.82	7262
2327.76	7298
2328.69	7262
2329.63	7352
2330.56	7294
2331.5	7298
2332.43	7316
2333.36	7234
2334.3	7268
2335.23	7328
2336.17	7284
2337.1	7296
2338.03	7262
2338.97	7208
2339.9	7380
2340.83	7236
2341.77	7288
2342.7	7176
2343.63	7350
2344.57	7326
2345.5	7176
2346.43	7228
2347.36	7386
2348.3	7322
2349.23	7158
2350.16	7134
2351.09	7228
2352.02	7188
2352.95	7222
2353.89	7188
2354.82	7214
2355.75	7226
2356.68	7134
2357.61	7304
2358.54	7228
2359.47	7186
2360.4	7148
2361.33	7234
2362.26	7144
2363.19	7226
2364.12	7030
2365.05	7190
2365.98	7186
2366.91	7226
2367.84	7094
2368.77	7182
2369.7	7188
2370.63	7108
2371.56	7116
2372.48	7092
2373.41	7082
2374.34	7176
2375.27	7076
2376.2	7140
2377.12	7188
2378.05	7160
2378.98	7058
2379.91	7074
2380.84	7100
2381.76	7058
2382.69	7102
2383.62	7076
2384.54	6988
2385.47	7056
2386.4	7016
2387.32	6910
2388.25	7082
2389.18	7030
2390.1	7016
2391.03	7076
2391.95	7026
2392.88	7038
2393.8	6946
2394.73	6954
2395.65	6952
2396.58	6850
2397.5	6948
2398.43	6994
2399.35	6992
2400.28	6900
2401.2	6958
2402.13	6846
2403.05	6876
2403.97	6972
2404.9	6928
2405.82	7010
2406.75	6874
2407.67	6936
2408.59	6916
2409.51	6922
2410.44	6946
2411.36	6858
2412.28	6854
2413.21	6876
2414.13	6856
2415.05	6892
2415.97	6784
2416.9	6782
2417.82	6884
2418.74	6852
2419.66	6866
2420.58	6820
2421.5	6828
2422.42	6724
2423.35	6796
2424.27	6830
2425.19	6792
2426.11	6708
2427.03	6816
2427.95	6690
2428.87	6692
2429.79	6804
2430.71	6774
2431.63	6814
2432.55	6712
2433.47	6758
2434.39	6738
2435.31	6728
2436.23	6614
2437.14	6730
2438.06	6708
2438.98	6858
2439.9	6736
2440.82	6770
2441.74	6628
2442.66	6614
2443.57	6744
2444.49	6716
2445.41	6778
2446.33	6654
2447.24	6612
2448.16	6630
2449.08	6630
2450	6594
2450.91	6636
2451.83	6682
2452.75	6564
2453.66	6664
2454.58	6680
2455.5	6582
2456.41	6738
2457.33	6548
2458.24	6614
2459.16	6614
2460.08	6650
2460.99	6680
2461.91	6612
2462.82	6592
2463.74	6506
2464.65	6536
2465.57	6570
2466.48	6686
2467.4	6536
2468.31	6610
2469.22	6496
2470.14	6524
2471.05	6588
2471.97	6510
2472.88	6536
2473.79	6650
2474.71	6528
2475.62	6568
2476.53	6506
2477.45	6492
2478.36	6480
2479.27	6484
2480.19	6438
2481.1	6500
2482.01	6458
2482.92	6418
2483.83	6414
2484.75	6446
2485.66	6426
2486.57	6346
2487.48	6450
2488.39	6412
2489.3	6382
2490.22	6270
2491.13	6462
2492.04	6360
2492.95	6356
2493.86	6344
2494.77	6310
2495.68	6384
2496.59	6326
2497.5	6390
2498.41	6266
2499.32	6298
2500.23	6340
2501.14	6334
2502.05	6262
2502.96	6426
2503.87	6334
2504.78	6286
2505.68	6256
2506.59	6166
2507.5	6286
2508.41	6228
2509.32	6176
2510.23	6308
2511.14	6216
2512.04	6144
2512.95	6300
2513.86	6332
2514.77	6216
2515.67	6276
2516.58	6206
2517.49	6184
2518.39	6192
2519.3	6192
2520.21	6162
2521.11	6142
2522.02	6224
2522.93	6186
2523.83	6236
2524.74	6098
2525.65	6174
2526.55	6072
2527.46	6024
2528.36	6142
2529.27	6128
2530.17	6046
2531.08	6150
2531.98	6102
2532.89	6122
2533.79	6090
2534.7	6080
2535.6	5972
2536.51	6094
2537.41	6054
2538.32	6038
2539.22	6028
2540.12	6120
2541.03	5998
2541.93	6026
2542.83	5914
2543.74	5934
2544.64	6040
2545.54	5926
2546.45	5896
2547.35	5866
2548.25	5990
2549.15	5920
2550.06	5958
2550.96	5926
2551.86	5890
2552.76	5954
2553.66	5894
2554.56	5956
2555.47	5988
2556.37	6038
2557.27	5860
2558.17	5902
2559.07	5858
2559.97	5868
2560.87	5876
2561.77	5900
2562.67	5884
2563.58	5816
2564.47	5824
2565.38	5904
2566.27	5842
2567.18	5806
2568.07	5762
2568.97	5876
2569.87	5886
2570.77	5850
2571.67	5774
2572.57	5788
2573.47	5738
2574.37	5828
2575.27	5788
2576.17	5778
2577.06	5714
2577.96	5784
2578.86	5730
2579.76	5792
2580.66	5712
2581.55	5842
2582.45	5666
2583.35	5646
2584.25	5792
2585.14	5718
2586.04	5764
2586.94	5584
2587.83	5606
2588.73	5744
2589.63	5724
2590.52	5634
2591.42	5586
2592.32	5646
2593.21	5648
2594.11	5696
2595	5608
2595.9	5700
2596.8	5656
2597.69	5638
2598.59	5680
2599.48	5670
2600.38	5542
2601.27	5568
2602.17	5584
2603.06	5468
2603.95	5538
2604.85	5536
2605.74	5548
2606.64	5552
2607.53	5492
2608.42	5504
2609.32	5462
2610.21	5466
2611.1	5550
2612	5450
2612.89	5494
2613.78	5514
2614.68	5486
2615.57	5482
2616.46	5488
2617.36	5440
2618.25	5496
2619.14	5518
2620.03	5402
2620.92	5434
2621.82	5458
2622.71	5424
2623.6	5370
2624.49	5446
2625.38	5354
2626.27	5330
2627.16	5410
2628.05	5474
2628.95	5450
2629.84	5398
2630.73	5426
2631.62	5408
2632.51	5412
2633.4	5326
2634.29	5392
2635.18	5258
2636.07	5372
2636.96	5212
2637.85	5312
2638.74	5240
2639.62	5242
2640.51	5248
2641.4	5352
2642.29	5282
2643.18	5280
2644.07	5234
2644.96	5196
2645.85	5210
2646.73	5194
2647.62	5190
2648.51	5194
2649.4	5240
2650.28	5214
2651.17	5226
2652.06	5186
2652.95	5138
2653.83	5112
2654.72	5158
2655.61	5124
2656.5	5140
2657.38	5194
2658.27	5172
2659.15	5116
2660.04	5160
2660.93	5172
2661.81	5162
2662.7	5116
2663.58	5072
2664.47	5180
2665.35	5132
2666.24	5126
2667.13	5072
2668.01	5120
2668.9	5066
2669.78	5204
2670.66	5170
2671.55	5128
2672.43	5034
2673.32	5102
2674.2	5166
2675.09	5050
2675.97	5116
2676.85	5022
2677.74	5006
2678.62	5024
2679.5	5080
2680.39	5072
2681.27	5012
2682.15	4998
2683.04	5074
2683.92	4980
2684.8	5036
2685.68	5006
2686.57	5070
2687.45	4908
2688.33	5046
2689.21	5024
2690.09	4996
2690.98	4864
2691.86	5034
2692.74	4890
2693.62	4754
2694.5	4932
2695.38	4892
2696.26	4914
2697.15	4914
2698.03	4874
2698.91	4904
2699.79	4846
2700.67	4952
2701.55	4828
2702.43	4808
2703.31	4882
2704.19	4940
2705.07	4800
2705.95	4818
2706.83	4888
2707.7	4828
2708.58	4816
2709.46	4848
2710.34	4872
2711.22	4790
2712.1	4840
2712.98	4738
2713.86	4808
2714.73	4858
2715.61	4656
2716.49	4794
2717.37	4856
2718.25	4832
2719.12	4818
2720	4750
2720.88	4796
2721.76	4684
2722.63	4756
2723.51	4774
2724.39	4662
2725.26	4756
2726.14	4716
2727.02	4638
2727.89	4770
2728.77	4590
2729.64	4670
2730.52	4584
2731.4	4688
2732.27	4676
2733.15	4602
2734.02	4618
2734.9	4668
2735.77	4628
2736.65	4614
2737.52	4718
2738.4	4550
2739.27	4610
2740.15	4592
2741.02	4634
2741.9	4634
2742.77	4516
2743.64	4580
2744.52	4512
2745.39	4574
2746.27	4558
2747.14	4480
2748.01	4462
2748.89	4494
2749.76	4572
2750.63	4482
2751.51	4580
2752.38	4520
2753.25	4444
2754.12	4524
2755	4488
2755.87	4380
2756.74	4356
2757.61	4442
2758.48	4490
2759.35	4398
2760.23	4492
2761.1	4342
2761.97	4524
2762.84	4438
2763.71	4364
2764.58	4550
2765.45	4416
2766.32	4418
2767.19	4352
2768.07	4414
2768.94	4402
2769.81	4390
2770.68	4330
2771.55	4434
2772.42	4344
2773.29	4410
2774.16	4352
2775.02	4348
2775.89	4334
2776.76	4352
2777.63	4324
2778.5	4278
2779.37	4330
2780.24	4234
2781.11	4294
2781.98	4358
2782.84	4408
2783.71	4284
2784.58	4234
2785.45	4302
2786.32	4256
2787.18	4250
2788.05	4210
2788.92	4320
2789.79	4266
2790.65	4258
2791.52	4250
2792.39	4382
2793.25	4182
2794.12	4232
2794.99	4234
2795.85	4232
2796.72	4236
2797.59	4234
2798.45	4142
2799.32	4190
2800.18	4202
2801.05	4168
2801.92	4080
2802.78	4058
2803.65	4087
2804.51	4116
2805.38	4110
2806.24	4164
2807.11	4110
2807.97	4196
2808.84	4150
2809.7	4126
2810.57	4154
2811.43	4176
2812.29	4104
2813.16	4104
2814.02	4076
2814.88	4044
2815.75	4156
2816.61	4026
2817.47	4024
2818.34	4030
2819.2	4064
2820.06	4050
2820.93	4036
2821.79	4046
2822.65	3998
2823.51	4004
2824.38	4024
2825.24	4014
2826.1	3954
2826.96	4036
2827.82	3994
2828.69	3960
2829.55	4006
2830.41	4042
2831.27	4000
2832.13	3992
2832.99	3948
2833.85	3964
2834.71	3970
2835.57	3968
2836.44	3928
2837.3	3892
2838.16	3984
2839.02	3878
2839.88	3928
2840.74	3810
2841.6	3888
2842.46	3898
2843.32	3914
2844.18	3970
2845.03	3894
2845.89	3816
2846.75	3908
2847.61	3792
2848.47	3826
2849.33	3772
2850.19	3808
2851.05	3794
2851.9	3808
2852.76	3846
2853.62	3820
2854.48	3826
2855.34	3892
2856.19	3814
2857.05	3764
2857.91	3820
2858.77	3792
2859.62	3796
2860.48	3750
2861.34	3780
2862.19	3756
2863.05	3770
2863.91	3672
2864.76	3808
2865.62	3750
2866.48	3682
2867.33	3688
2868.19	3772
2869.04	3738
2869.9	3690
2870.76	3710
2871.61	3676
2872.47	3724
2873.32	3650
2874.18	3662
2875.03	3718
2875.89	3720
2876.74	3650
2877.6	3690
2878.45	3584
2879.31	3680
2880.16	3706
2881.01	3650
2881.87	3658
2882.72	3644
2883.58	3626
2884.43	3598
2885.28	3706
2886.14	3612
2886.99	3646
2887.84	3548
2888.7	3540
2889.55	3530
2890.4	3554
2891.25	3564
2892.11	3616
2892.96	3480
2893.81	3562
2894.66	3558
2895.52	3548
2896.37	3584
2897.22	3494
2898.07	3532
2898.92	3486
2899.77	3600
2900.62	3544
2901.48	3544
2902.33	3580
2903.18	3564
2904.03	3542
2904.88	3550
2905.73	3550
2906.58	3598
2907.43	3488
2908.28	3508
2909.13	3594
2909.98	3420
2910.83	3526
2911.68	3492
2912.53	3444
2913.38	3444
2914.23	3424
2915.08	3512
2915.93	3552
2916.78	3470
2917.63	3502
2918.47	3458
2919.32	3438
2920.17	3432
2921.02	3476
2921.87	3506
2922.72	3420
2923.56	3412
2924.41	3462
2925.26	3426
2926.11	3466
2926.95	3394
2927.8	3456
2928.65	3412
2929.5	3424
2930.34	3406
2931.19	3420
2932.04	3372
2932.88	3408
2933.73	3402
2934.58	3386
2935.42	3462
2936.27	3394
2937.11	3346
2937.96	3384
2938.81	3392
2939.65	3372
2940.5	3388
2941.34	3300
2942.19	3362
2943.03	3312
2943.88	3304
2944.72	3258
2945.57	3350
2946.41	3352
2947.26	3330
2948.1	3420
2948.95	3312
2949.79	3354
2950.64	3358
2951.48	3354
2952.32	3322
2953.17	3314
2954.01	3294
2954.85	3320
2955.7	3310
2956.54	3308
2957.38	3292
2958.23	3182
2959.07	3228
2959.91	3316
2960.75	3298
2961.6	3218
2962.44	3272
2963.28	3302
2964.12	3272
2964.97	3232
2965.81	3188
2966.65	3222
2967.49	3250
2968.33	3164
2969.17	3188
2970.02	3286
2970.86	3188
2971.7	3204
2972.54	3196
2973.38	3214
2974.22	3202
2975.06	3072
2975.9	3160
2976.74	3232
2977.58	3152
2978.42	3156
2979.26	3122
2980.1	3130
2980.94	3140
2981.78	3114
2982.62	3134
2983.46	3140
2984.3	3182
2985.14	3126
2985.98	3118
2986.82	3126
2987.66	3130
2988.49	3148
2989.33	3058
2990.17	3136
2991.01	3154
2991.85	3066
2992.69	3058
2993.52	3088
2994.36	3060
2995.2	3062
2996.04	3058
2996.87	3084
2997.71	3100
2998.55	3044
2999.39	2968
