#Acq. time (s)=	10
#Accumulations=	1
#Range (cm-¹)=	100...3000
#Windows=	3
#Autofocus=	Off
#AutoExposure=	Off
#Spike filter=	Off
#Delay time (s)=	0
#Binning=	1
#Readout mode=	Signal
#DeNoise=	Off
#ICS correction=	Off
#Dark correction=	Off
#Inst. Process=	Off
#Instrument=	LabRAM HR Evol
#Detector=	Syncerity OE
#Objective=	x100_VIS
#Grating=	600 (500nm)
#ND Filter=	3.2%
#Laser=	633nm_Edge
#Hole=	100.021
#Range=	Visible
#Project=	Omar
#Sample=	26-06-23
#Site=	2
#Title=	Organic
#Remark=	
#Date=	26.06.2023 16:25
#Acquired=	26.06.2023 16:25:58
101.018	3820
102.302	3788
103.586	3924
104.869	3874
106.152	3882
107.435	3826
108.717	3848
109.999	3840
111.281	3876
112.563	3928
113.845	3868
115.126	3850
116.407	3904
117.688	3848
118.969	3960
120.249	3882
121.53	3990
122.81	3900
124.09	3998
125.369	3992
126.649	3986
127.928	3972
129.207	3978
130.486	4018
131.765	4100
133.043	4076
134.321	4018
135.599	4118
136.877	4000
138.155	3990
139.432	3992
140.708	4116
141.985	3992
143.261	4046
144.538	4064
145.814	4054
147.09	4108
148.366	4020
149.641	4026
150.916	4022
152.191	4040
153.466	4078
154.741	4130
156.016	4076
157.289	4094
158.563	4124
159.837	4052
161.111	4160
162.385	4220
163.657	4096
164.93	4194
166.203	4150
167.476	4172
168.747	4072
170.019	4246
171.291	4274
172.562	4158
173.834	4198
175.105	4206
176.377	4148
177.646	4158
178.917	4194
180.188	4266
181.457	4230
182.727	4258
183.996	4208
185.266	4208
186.536	4236
187.804	4172
189.073	4234
190.342	4294
191.609	4226
192.878	4196
194.145	4350
195.413	4344
196.681	4278
197.948	4314
199.215	4276
200.481	4320
201.749	4424
203.014	4340
204.281	4390
205.546	4456
206.813	4246
208.077	4372
209.343	4456
210.608	4482
211.873	4436
213.137	4394
214.402	4448
215.666	4418
216.93	4514
218.194	4412
219.458	4438
220.721	4494
221.983	4494
223.247	4562
224.509	4576
225.772	4598
227.034	4532
228.295	4594
229.558	4580
230.819	4554
232.081	4584
233.342	4638
234.602	4672
235.864	4682
237.124	4612
238.384	4656
239.645	4690
240.904	4574
242.164	4608
243.423	4598
244.683	4736
245.941	4782
247.2	4726
248.46	4688
249.717	4708
250.975	4750
252.233	4748
253.492	4828
254.749	4750
256.006	4722
257.263	4706
258.519	4738
259.777	4774
261.033	4714
262.289	4702
263.545	4736
264.8	4746
266.057	4838
267.312	4768
268.567	4802
269.822	4748
271.076	4764
272.331	4758
273.585	4820
274.839	4732
276.094	4910
277.347	4774
278.601	4766
279.854	4798
281.107	4806
282.359	4750
283.612	4838
284.864	4870
286.116	4834
287.368	4928
288.62	4896
289.871	4896
291.123	4884
292.374	4894
293.625	4944
294.875	4896
296.126	4978
297.376	4962
298.626	4938
299.876	4964
301.126	5040
302.375	4990
303.625	5070
304.874	5010
306.122	5028
307.371	5054
308.62	5218
309.866	5212
311.114	5080
312.362	5072
313.61	5014
314.857	5072
316.105	5114
317.352	5204
318.599	5114
319.844	5068
321.09	5130
322.337	5120
323.583	5158
324.828	5256
326.073	5098
327.318	5104
328.563	5118
329.808	5132
331.053	5226
332.296	5182
333.541	5170
334.785	5162
336.029	5248
337.272	5174
338.515	5258
339.759	5172
341.001	5244
342.244	5310
343.486	5322
344.728	5348
345.97	5322
347.212	5312
348.453	5252
349.695	5250
350.936	5338
352.176	5374
353.418	5402
354.659	5360
355.898	5352
357.139	5276
358.378	5310
359.618	5406
360.858	5386
362.097	5428
363.336	5426
364.574	5470
365.813	5420
367.051	5326
368.29	5548
369.527	5484
370.766	5538
372.002	5448
373.241	5472
374.477	5448
375.715	5372
376.951	5492
378.188	5370
379.424	5452
380.66	5508
381.896	5550
383.132	5440
384.367	5454
385.603	5350
386.838	5522
388.072	5518
389.307	5472
390.541	5442
391.776	5490
393.01	5578
394.243	5474
395.477	5582
396.71	5476
397.943	5646
399.177	5594
400.409	5512
401.641	5656
402.875	5558
404.106	5586
405.338	5618
406.57	5608
407.802	5598
409.032	5696
410.263	5634
411.495	5624
412.725	5696
413.955	5760
415.185	5802
416.417	5732
417.646	5772
418.875	5764
420.104	5814
421.335	5820
422.564	5798
423.792	5900
425.02	5876
426.249	5914
427.477	5822
428.706	5908
429.933	5872
431.161	5950
432.388	5996
433.615	6022
434.841	6064
436.068	5988
437.294	6014
438.522	5962
439.748	6030
440.974	6058
442.199	6116
443.425	6140
444.65	6090
445.875	6040
447.1	6068
448.324	6016
449.549	6066
450.773	6072
451.997	6048
453.221	6100
454.445	6070
455.668	6104
456.891	6150
458.114	6114
459.337	6074
460.56	6150
461.782	6060
463.005	6072
464.227	6102
465.447	6150
466.669	6102
467.89	6170
469.112	6100
470.333	6140
471.554	6174
472.774	6230
473.995	6150
475.214	6232
476.434	6228
477.654	6248
478.874	6288
480.093	6242
481.312	6282
482.53	6288
483.749	6310
484.968	6332
486.186	6170
487.405	6316
488.622	6390
489.84	6354
491.057	6448
492.275	6358
493.491	6340
494.708	6388
495.925	6392
497.141	6508
498.357	6448
499.574	6530
500.789	6412
502.005	6588
503.221	6422
504.435	6460
505.65	6562
506.866	6534
508.079	6566
509.294	6556
510.509	6550
511.722	6702
512.936	6516
514.149	6552
515.363	6564
516.577	6596
517.789	6518
519.002	6596
520.214	6648
521.427	6652
522.638	6582
523.851	6588
525.062	6616
526.274	6580
527.485	6688
528.697	6690
529.907	6640
531.118	6600
532.328	6750
533.539	6604
534.748	6648
535.959	6700
537.168	6634
538.379	6744
539.587	6696
540.796	6574
542.005	6628
543.214	6774
544.423	6748
545.631	6716
546.838	6764
548.047	6816
549.254	6666
550.461	6760
551.669	6700
552.876	6838
554.082	6802
555.29	6850
556.496	6848
557.701	6798
558.909	6792
560.114	6960
561.319	6806
562.524	6880
563.731	6886
564.935	6950
566.14	6884
567.344	6940
568.549	6852
569.753	6984
570.957	6900
572.161	7060
573.364	6882
574.568	6996
575.771	7072
576.974	7044
578.177	7004
579.379	7108
580.581	7042
581.785	7172
582.987	7098
584.188	7140
585.39	7060
586.591	7160
587.792	7028
588.993	7186
590.193	7106
591.394	7194
592.594	7144
593.796	7094
594.996	7232
596.195	7334
597.395	7244
598.594	7258
599.793	7310
600.992	7250
602.191	7202
603.39	7318
604.588	7322
605.786	7360
606.984	7354
608.181	7406
609.378	7516
610.576	7484
611.773	7518
612.97	7466
614.167	7440
615.364	7676
616.56	7600
617.757	7544
618.953	7532
620.149	7532
621.343	7634
622.539	7626
623.734	7694
624.929	7660
626.124	7704
627.319	7722
628.512	7746
629.707	7874
630.901	7786
632.095	7826
633.289	7762
634.481	7870
635.675	7832
636.868	8006
638.061	7974
639.253	8060
640.446	8018
641.638	7972
642.831	8068
644.021	8070
645.213	8028
646.405	8134
647.595	8120
648.787	8108
649.978	8172
651.168	8298
652.359	8176
653.549	8238
654.738	8088
655.929	8142
657.117	8266
658.307	8248
659.497	8256
660.685	8266
661.875	8280
663.063	8292
664.252	8424
665.439	8298
666.628	8262
667.816	8350
669.003	8338
670.191	8340
671.378	8364
672.565	8450
673.751	8476
674.939	8510
676.124	8526
677.311	8532
678.497	8574
679.682	8538
680.868	8586
682.053	8600
683.239	8622
684.424	8530
685.609	8692
686.793	8686
687.977	8572
689.162	8580
690.346	8740
691.529	8682
692.714	8790
693.897	8788
695.081	8688
696.264	8738
697.446	8778
698.63	8734
699.812	8858
700.993	8824
702.175	8866
703.358	9028
704.539	8924
705.72	8984
706.901	9018
708.083	9028
709.264	9098
710.444	9024
711.625	9046
712.806	9046
713.986	9118
715.165	9000
716.345	9234
717.524	9138
718.705	9216
719.884	9194
721.062	9274
722.241	9292
723.419	9410
724.597	9330
725.775	9390
726.954	9480
728.132	9402
729.31	9428
730.487	9564
731.664	9500
732.841	9482
734.017	9486
735.194	9658
736.37	9576
737.546	9702
738.722	9600
739.898	9696
741.074	9642
742.249	9664
743.424	9778
744.599	9734
745.774	9660
746.949	9804
748.123	9824
749.298	9860
750.472	9906
751.646	9826
752.819	9928
753.993	9926
755.166	9920
756.34	9930
757.511	9924
758.684	9932
759.857	9942
761.029	9994
762.202	9900
763.374	10112
764.546	10184
765.716	10190
766.888	10172
768.059	10128
769.23	10372
770.401	10146
771.571	10226
772.741	10238
773.912	10358
775.082	10472
776.251	10340
777.421	10460
778.59	10386
779.76	10412
780.928	10568
782.097	10534
783.266	10590
784.434	10658
785.602	10560
786.771	10586
787.938	10548
789.106	10728
790.274	10772
791.44	10674
792.608	10790
793.775	10738
794.941	10946
796.108	10760
797.273	10992
798.44	10880
799.606	10988
800.771	11060
801.937	11022
803.102	10966
804.268	11116
805.432	11094
806.597	11152
807.761	11132
808.926	11242
810.09	11238
811.254	11242
812.417	11382
813.582	11366
814.744	11300
815.908	11404
817.071	11466
818.234	11520
819.396	11562
820.558	11602
821.721	11452
822.883	11638
824.045	11544
825.206	11856
826.367	11748
827.529	11738
828.69	11922
829.85	11934
831.012	11968
832.172	12124
833.332	12062
834.493	12036
835.653	12120
836.812	12198
837.972	12288
839.131	12202
840.29	12284
841.449	12270
842.609	12416
843.767	12436
844.925	12634
846.083	12562
847.242	12558
848.399	12534
849.557	12586
850.714	12628
851.871	12758
853.029	12716
854.186	12574
855.342	12802
856.498	12762
857.654	12904
858.81	12890
859.966	12908
861.122	12868
862.278	13034
863.434	12876
864.589	13064
865.744	13100
866.898	13108
868.053	13332
869.207	13318
870.361	13196
871.515	13360
872.669	13264
873.822	13364
874.976	13456
876.129	13216
877.282	13432
878.435	13378
879.588	13508
880.74	13348
881.893	13616
883.045	13594
884.197	13568
885.349	13730
886.5	13588
887.652	13660
888.802	13694
889.953	13692
891.104	13760
892.254	13718
893.405	13636
894.555	13750
895.706	13912
896.854	13864
898.004	13974
899.154	13880
900.303	14006
901.453	14086
902.6	14182
903.749	14046
904.898	14164
906.047	14218
907.194	14142
908.342	14340
909.49	14414
910.638	14312
911.785	14284
912.932	14388
914.08	14300
915.225	14338
916.372	14566
917.519	14422
918.666	14542
919.811	14646
920.957	14584
922.102	14596
923.248	14646
924.394	14718
925.538	14786
926.684	14826
927.828	14926
928.973	14844
930.118	14868
931.261	14914
932.406	14974
933.549	15146
934.693	15170
935.836	15180
936.979	15198
938.122	15174
939.265	15236
940.407	15348
941.55	15320
942.692	15378
943.835	15444
944.976	15616
946.118	15404
947.259	15636
948.401	15548
949.542	15666
950.682	15694
951.824	15842
952.964	15736
954.105	15916
955.245	15962
956.385	15896
957.525	16168
958.664	16160
959.803	16162
960.944	16296
962.082	16320
963.221	16160
964.36	16100
965.498	16286
966.636	16332
967.774	16442
968.913	16432
970.051	16552
971.188	16523
972.325	16494
973.463	16596
974.6	16694
975.736	16780
976.873	16730
978.009	16818
979.146	16798
980.282	16652
981.418	16744
982.554	16806
983.689	16938
984.824	16836
985.959	16948
987.095	16954
988.23	16854
989.364	17076
990.499	17082
991.633	17100
992.767	17222
993.9	17166
995.034	17236
996.167	17274
997.301	17372
998.434	17476
999.567	17448
1000.7	17350
1001.83	17340
1002.96	17498
1004.1	17506
1005.23	17550
1006.36	17632
1007.49	17624
1008.62	17674
1009.76	17784
1010.89	17700
1012.02	17836
1013.15	17890
1014.28	17760
1015.41	17912
1016.54	17916
1017.67	17928
1018.8	18084
1019.93	17940
1021.06	18182
1022.19	18076
1023.32	18202
1024.44	18312
1025.57	18282
1026.7	18394
1027.83	18606
1028.96	18366
1030.09	18420
1031.21	18510
1032.34	18564
1033.47	18520
1034.6	18490
1035.72	18744
1036.85	18664
1037.98	18740
1039.1	18832
1040.23	18858
1041.35	18956
1042.48	18824
1043.61	18986
1044.73	19024
1045.86	18990
1046.98	19292
1048.11	19232
1049.23	19198
1050.36	19260
1051.48	19290
1052.61	19370
1053.73	19322
1054.85	19440
1055.98	19416
1057.1	19498
1058.22	19610
1059.35	19692
1060.47	19616
1061.59	19652
1062.72	19752
1063.84	19694
1064.96	19784
1066.08	19734
1067.2	19702
1068.33	19666
1069.45	19778
1070.57	19924
1071.69	19886
1072.81	19886
1073.93	19780
1075.05	19996
1076.17	19972
1077.29	19846
1078.41	19934
1079.53	19864
1080.65	19930
1081.77	19990
1082.89	20012
1084.01	19836
1085.13	19964
1086.25	20140
1087.37	20014
1088.48	20086
1089.6	20016
1090.72	19862
1091.84	20040
1092.96	19990
1094.07	20150
1095.19	20080
1096.31	20048
1097.43	20026
1098.54	19940
1099.66	20102
1100.78	19962
1101.89	20064
1103.01	20044
1104.12	20080
1105.24	20162
1106.35	20282
1107.47	20050
1108.59	20312
1109.7	20118
1110.81	20022
1111.93	20198
1113.04	20060
1114.16	20096
1115.27	20180
1116.39	20168
1117.5	20302
1118.61	20154
1119.73	20324
1120.84	20418
1121.95	20156
1123.06	20256
1124.18	20220
1125.29	20368
1126.4	20336
1127.51	20288
1128.63	20190
1129.74	20364
1130.85	20324
1131.96	20236
1133.07	20320
1134.18	20390
1135.29	20492
1136.4	20368
1137.51	20472
1138.62	20442
1139.73	20484
1140.84	20412
1141.95	20204
1143.06	20566
1144.17	20520
1145.28	20532
1146.39	20406
1147.5	20612
1148.61	20476
1149.72	20704
1150.82	20614
1151.93	20698
1153.04	20580
1154.15	20648
1155.26	20540
1156.36	20796
1157.47	20674
1158.58	20558
1159.68	20722
1160.79	20732
1161.9	20694
1163	20470
1164.11	20588
1165.22	20750
1166.32	20498
1167.43	20516
1168.53	20630
1169.64	20630
1170.74	20580
1171.85	20620
1172.95	20488
1174.06	20388
1175.16	20514
1176.26	20406
1177.37	20454
1178.47	20450
1179.58	20540
1180.68	20404
1181.78	20428
1182.88	20510
1183.99	20374
1185.09	20422
1186.19	20284
1187.3	20140
1188.4	20154
1189.5	20124
1190.6	20274
1191.7	20118
1192.8	20064
1193.9	20138
1195.01	19974
1196.11	20151
1197.21	20031
1198.31	19817.8
1199.41	20006.2
1200.51	19813.3
1201.61	19806
1202.71	19720.3
1203.81	19821.1
1204.91	19820.1
1206.01	19729.3
1207.11	19565.6
1208.2	19828.5
1209.3	19474
1210.4	19469.4
1211.5	19581.7
1212.6	19636.4
1213.7	19442.3
1214.8	19292.9
1215.89	19459.6
1216.99	19412.1
1218.09	19282.1
1219.18	19187
1220.28	19320.7
1221.38	19248.5
1222.48	19156.2
1223.57	19166.6
1224.67	19106
1225.76	19064
1226.86	19106.3
1227.96	19132.9
1229.05	18959.7
1230.15	19019.1
1231.24	18860.1
1232.34	18986.4
1233.43	18869.7
1234.53	18797
1235.62	18789.1
1236.71	18856.6
1237.81	18844.2
1238.9	18647.6
1240	18686.7
1241.09	18607.2
1242.18	18732.8
1243.28	18659.3
1244.37	18619
1245.46	18519.1
1246.56	18655.3
1247.65	18639
1248.74	18555.2
1249.83	18467.8
1250.93	18506
1252.02	18489.1
1253.11	18439.2
1254.2	18491.7
1255.29	18416.3
1256.38	18393.4
1257.47	18324.6
1258.56	18310.3
1259.65	18283.2
1260.74	18228
1261.84	18218.2
1262.92	18124.8
1264.01	18114.1
1265.1	18019.5
1266.19	18016.3
1267.28	18047.3
1268.37	18029.7
1269.46	18073.3
1270.55	18069
1271.64	17991.2
1272.73	17891.7
1273.82	17912
1274.9	17844.7
1275.99	17921.8
1277.08	17819.5
1278.17	17782.2
1279.26	17789.9
1280.34	17685.2
1281.43	17872.6
1282.52	17576.7
1283.6	17535.1
1284.69	17657.4
1285.78	17461.6
1286.86	17452.5
1287.95	17588.7
1289.03	17495.2
1290.12	17357.3
1291.21	17360
1292.29	17482.1
1293.38	17270
1294.46	17286
1295.55	17309.5
1296.63	17153.3
1297.71	17262.4
1298.8	17241.5
1299.88	17162.5
1300.97	16977.4
1302.05	17128.7
1303.13	17064.8
1304.22	16997.5
1305.3	17027.7
1306.38	16947.3
1307.34	16950
1308.43	16802
1309.52	16878
1310.61	16674
1311.7	16762
1312.78	16654
1313.87	16684
1314.96	16602
1316.05	16598
1317.13	16580
1318.22	16386
1319.3	16406
1320.39	16186
1321.48	16308
1322.56	16206
1323.65	16140
1324.73	16194
1325.82	16072
1326.9	16130
1327.99	15992
1329.07	16016
1330.16	16098
1331.24	15870
1332.33	15834
1333.41	15700
1334.5	15744
1335.58	15682
1336.66	15694
1337.75	15636
1338.83	15650
1339.91	15588
1341	15530
1342.08	15512
1343.16	15504
1344.25	15464
1345.33	15344
1346.41	15234
1347.49	15190
1348.57	15122
1349.65	15200
1350.74	15286
1351.82	15176
1352.9	15070
1353.98	15146
1355.06	15022
1356.14	15022
1357.22	15014
1358.3	14850
1359.38	14898
1360.46	14944
1361.54	14658
1362.62	14746
1363.7	14708
1364.78	14620
1365.86	14658
1366.94	14676
1368.02	14456
1369.09	14472
1370.17	14680
1371.25	14314
1372.33	14564
1373.41	14460
1374.48	14396
1375.56	14412
1376.64	14308
1377.72	14208
1378.79	14144
1379.87	14282
1380.95	14220
1382.02	14142
1383.1	14200
1384.17	14238
1385.25	13910
1386.33	13980
1387.4	14016
1388.48	13966
1389.55	13918
1390.63	13980
1391.7	13928
1392.78	13962
1393.85	13762
1394.93	13796
1396	13858
1397.07	13914
1398.15	13780
1399.22	13764
1400.3	13810
1401.37	13638
1402.44	13668
1403.52	13652
1404.59	13560
1405.66	13632
1406.73	13506
1407.81	13530
1408.88	13438
1409.95	13544
1411.02	13452
1412.09	13432
1413.17	13364
1414.24	13222
1415.31	13370
1416.38	13246
1417.45	13186
1418.52	13200
1419.59	13096
1420.66	13070
1421.73	13224
1422.8	13182
1423.87	13110
1424.94	13138
1426.01	13170
1427.08	13072
1428.15	12900
1429.22	13030
1430.29	12806
1431.35	12896
1432.42	12872
1433.49	12978
1434.56	12892
1435.63	12892
1436.7	12780
1437.76	12766
1438.83	12706
1439.9	12672
1440.96	12892
1442.03	12590
1443.1	12846
1444.17	12668
1445.23	12582
1446.3	12634
1447.36	12608
1448.43	12414
1449.49	12576
1450.56	12450
1451.63	12582
1452.69	12422
1453.76	12562
1454.82	12442
1455.89	12362
1456.95	12360
1458.01	12428
1459.08	12396
1460.14	12270
1461.21	12326
1462.27	12540
1463.34	12384
1464.4	12308
1465.46	12250
1466.52	12284
1467.59	12252
1468.65	12284
1469.71	12328
1470.77	12238
1471.84	12332
1472.9	12132
1473.96	12078
1475.02	12218
1476.08	12052
1477.15	12212
1478.21	12040
1479.27	12104
1480.33	12108
1481.39	12182
1482.45	12066
1483.51	12060
1484.57	12006
1485.63	11986
1486.69	11930
1487.75	12058
1488.81	11990
1489.87	11960
1490.93	11856
1491.99	11896
1493.05	11852
1494.1	11910
1495.16	11920
1496.22	11726
1497.28	11742
1498.34	11764
1499.4	11676
1500.45	11702
1501.51	11834
1502.57	11772
1503.63	11596
1504.68	11726
1505.74	11662
1506.8	11582
1507.85	11654
1508.91	11552
1509.97	11602
1511.02	11484
1512.08	11428
1513.13	11606
1514.19	11374
1515.24	11416
1516.3	11486
1517.35	11436
1518.41	11454
1519.46	11184
1520.52	11304
1521.57	11394
1522.63	11294
1523.68	11280
1524.73	11300
1525.79	11270
1526.84	11306
1527.9	11260
1528.95	11234
1530	11266
1531.06	11320
1532.11	11034
1533.16	11148
1534.21	11022
1535.26	11228
1536.32	11046
1537.37	11136
1538.42	11120
1539.47	10906
1540.52	10892
1541.57	10980
1542.63	11110
1543.68	11014
1544.73	10916
1545.78	10938
1546.83	10800
1547.88	10980
1548.93	10832
1549.98	10810
1551.03	10728
1552.08	10922
1553.13	10712
1554.18	10882
1555.23	10778
1556.27	10718
1557.32	10810
1558.37	10708
1559.42	10726
1560.47	10716
1561.52	10782
1562.56	10644
1563.61	10686
1564.66	10576
1565.71	10704
1566.75	10702
1567.8	10710
1568.85	10604
1569.9	10652
1570.94	10678
1571.99	10484
1573.03	10610
1574.08	10588
1575.13	10606
1576.17	10534
1577.22	10638
1578.26	10714
1579.31	10546
1580.35	10530
1581.4	10466
1582.44	10548
1583.49	10494
1584.53	10566
1585.58	10458
1586.62	10426
1587.66	10362
1588.71	10472
1589.75	10502
1590.8	10340
1591.84	10328
1592.88	10406
1593.93	10398
1594.97	10380
1596.01	10440
1597.05	10398
1598.1	10346
1599.14	10388
1600.18	10472
1601.22	10404
1602.26	10338
1603.31	10330
1604.35	10508
1605.39	10362
1606.43	10436
1607.47	10294
1608.51	10222
1609.55	10284
1610.59	10312
1611.63	10310
1612.67	10186
1613.71	10118
1614.75	10336
1615.79	10286
1616.83	10284
1617.87	10252
1618.91	10232
1619.95	10216
1620.99	10208
1622.02	10234
1623.06	10238
1624.1	10142
1625.14	10228
1626.18	10360
1627.21	10098
1628.25	10156
1629.29	10244
1630.33	10250
1631.36	10124
1632.4	10152
1633.44	10002
1634.48	10144
1635.51	10106
1636.55	10146
1637.58	10180
1638.62	10048
1639.66	10018
1640.69	10072
1641.73	10046
1642.76	10180
1643.8	9936
1644.83	10110
1645.87	10060
1646.9	9956
1647.94	9838
1648.97	9926
1650	9918
1651.04	9930
1652.07	9902
1653.11	9770
1654.14	9874
1655.17	9746
1656.21	9892
1657.24	9914
1658.27	9922
1659.31	9824
1660.34	9864
1661.37	9790
1662.4	9858
1663.43	9762
1664.47	9682
1665.5	9742
1666.53	9728
1667.56	9710
1668.59	9628
1669.62	9598
1670.66	9660
1671.69	9746
1672.72	9666
1673.75	9660
1674.78	9602
1675.81	9580
1676.84	9636
1677.87	9520
1678.9	9704
1679.93	9558
1680.96	9546
1681.98	9508
1683.01	9594
1684.04	9560
1685.07	9550
1686.1	9470
1687.13	9446
1688.16	9528
1689.19	9450
1690.21	9416
1691.24	9460
1692.27	9424
1693.3	9364
1694.32	9448
1695.35	9362
1696.38	9350
1697.4	9484
1698.43	9484
1699.46	9412
1700.48	9242
1701.51	9310
1702.54	9294
1703.56	9218
1704.59	9372
1705.61	9360
1706.64	9302
1707.66	9406
1708.69	9194
1709.71	9246
1710.74	9234
1711.76	9194
1712.79	9144
1713.81	9262
1714.83	9218
1715.86	9122
1716.88	9296
1717.91	9118
1718.93	9114
1719.95	9144
1720.98	9136
1722	9154
1723.02	9096
1724.04	9004
1725.07	9126
1726.09	9124
1727.11	9040
1728.13	9088
1729.15	9102
1730.18	9018
1731.2	9160
1732.22	9190
1733.24	8956
1734.26	9066
1735.28	9006
1736.3	8982
1737.32	8988
1738.34	9012
1739.36	9070
1740.38	8892
1741.4	9022
1742.42	8930
1743.44	9084
1744.46	9014
1745.48	8994
1746.5	8928
1747.52	8930
1748.54	8960
1749.56	8962
1750.58	8934
1751.6	9030
1752.61	8856
1753.63	9032
1754.65	8972
1755.67	8986
1756.68	8758
1757.7	9020
1758.72	8898
1759.74	9048
1760.75	8932
1761.77	8914
1762.79	8994
1763.8	8806
1764.82	8960
1765.84	8774
1766.85	8942
1767.87	8750
1768.88	8726
1769.9	8886
1770.91	8956
1771.93	8866
1772.94	8858
1773.96	8810
1774.97	8814
1775.99	8860
1777	8698
1778.02	8892
1779.03	8778
1780.04	8904
1781.06	8888
1782.07	8760
1783.09	8790
1784.1	8718
1785.11	8824
1786.13	8838
1787.14	8686
1788.15	8900
1789.16	8742
1790.18	8748
1791.19	8710
1792.2	8778
1793.21	8768
1794.22	8676
1795.23	8722
1796.25	8682
1797.26	8844
1798.27	8832
1799.28	8634
1800.29	8798
1801.3	8744
1802.31	8688
1803.32	8656
1804.33	8660
1805.34	8620
1806.35	8724
1807.36	8706
1808.37	8754
1809.38	8606
1810.39	8624
1811.4	8524
1812.41	8608
1813.42	8538
1814.43	8632
1815.43	8642
1816.44	8650
1817.45	8672
1818.46	8666
1819.47	8538
1820.47	8530
1821.48	8480
1822.49	8524
1823.49	8536
1824.5	8502
1825.51	8486
1826.52	8492
1827.52	8366
1828.53	8404
1829.54	8432
1830.54	8390
1831.55	8482
1832.55	8390
1833.56	8548
1834.56	8420
1835.57	8378
1836.57	8468
1837.58	8376
1838.58	8402
1839.59	8420
1840.59	8400
1841.6	8348
1842.6	8454
1843.61	8292
1844.61	8376
1845.61	8384
1846.62	8272
1847.62	8288
1848.62	8302
1849.63	8322
1850.63	8396
1851.63	8246
1852.64	8284
1853.64	8260
1854.64	8160
1855.64	8196
1856.64	8196
1857.65	8260
1858.65	8258
1859.65	8246
1860.65	8306
1861.65	8246
1862.65	8270
1863.65	8276
1864.66	8228
1865.66	8144
1866.66	8208
1867.66	8294
1868.66	8206
1869.66	8132
1870.66	8232
1871.66	8228
1872.66	8140
1873.66	8268
1874.66	8100
1875.65	8186
1876.65	8054
1877.65	8110
1878.65	8158
1879.65	8154
1880.65	8088
1881.65	8158
1882.64	8210
1883.64	8084
1884.64	8078
1885.64	8052
1886.63	8040
1887.63	8078
1888.63	8102
1889.63	8068
1890.62	7984
1891.62	7938
1892.62	8030
1893.61	8002
1894.61	8010
1895.6	8020
1896.6	8022
1897.6	7978
1898.59	8146
1899.59	7996
1900.58	8026
1901.58	8018
1902.57	8178
1903.57	8122
1904.56	8040
1905.56	8060
1906.55	7986
1907.54	7982
1908.54	8096
1909.53	7888
1910.53	7998
1911.52	7934
1912.51	8022
1913.51	8044
1914.5	7910
1915.49	7932
1916.49	7890
1917.48	7954
1918.47	7940
1919.46	7908
1920.46	7912
1921.45	7904
1922.44	7954
1923.43	7898
1924.42	7978
1925.41	7920
1926.41	7884
1927.4	7884
1928.39	8036
1929.38	7934
1930.37	7980
1931.36	7954
1932.35	7940
1933.34	7766
1934.33	7832
1935.32	7806
1936.31	8042
1937.3	7926
1938.29	7906
1939.28	7826
1940.27	7922
1941.26	8036
1942.24	7910
1943.23	7782
1944.22	7906
1945.21	7798
1946.2	7840
1947.19	7820
1948.17	7830
1949.16	7728
1950.15	7732
1951.14	7736
1952.13	7836
1953.11	7738
1954.1	7812
1955.09	7730
1956.07	7714
1957.06	7652
1958.05	7810
1959.03	7768
1960.02	7796
1961	7648
1961.99	7762
1962.98	7742
1963.96	7876
1964.95	7768
1965.93	7754
1966.92	7742
1967.9	7768
1968.89	7636
1969.87	7730
1970.85	7666
1971.84	7742
1972.82	7720
1973.81	7634
1974.79	7560
1975.78	7700
1976.76	7656
1977.74	7692
1978.73	7514
1979.71	7698
1980.69	7710
1981.67	7580
1982.66	7600
1983.64	7690
1984.62	7646
1985.6	7598
1986.59	7642
1987.57	7596
1988.55	7616
1989.53	7618
1990.51	7622
1991.49	7532
1992.47	7568
1993.45	7572
1994.44	7598
1995.42	7618
1996.4	7608
1997.38	7504
1998.36	7514
1999.34	7572
2000.32	7520
2001.3	7488
2002.28	7564
2003.26	7564
2004.24	7526
2005.22	7450
2006.19	7406
2007.17	7594
2008.15	7540
2009.13	7490
2010.11	7526
2011.09	7456
2012.06	7550
2013.04	7512
2014.02	7444
2015	7528
2015.98	7454
2016.95	7410
2017.93	7442
2018.91	7448
2019.88	7448
2020.86	7476
2021.84	7530
2022.81	7496
2023.79	7388
2024.77	7374
2025.74	7404
2026.72	7376
2027.69	7340
2028.67	7302
2029.65	7460
2030.62	7528
2031.6	7348
2032.57	7430
2033.55	7446
2034.52	7364
2035.5	7486
2036.47	7400
2037.44	7320
2038.42	7380
2039.39	7396
2040.36	7324
2041.34	7360
2042.31	7320
2043.29	7398
2044.26	7374
2045.23	7398
2046.2	7306
2047.18	7392
2048.15	7294
2049.12	7328
2050.09	7344
2051.07	7358
2052.04	7412
2053.01	7354
2053.98	7238
2054.95	7330
2055.93	7276
2056.9	7252
2057.87	7208
2058.84	7240
2059.81	7306
2060.78	7284
2061.75	7182
2062.72	7184
2063.69	7216
2064.66	7208
2065.63	7154
2066.6	7188
2067.57	7196
2068.54	7178
2069.51	7164
2070.48	7244
2071.45	7148
2072.42	7174
2073.38	7252
2074.35	7214
2075.32	7278
2076.29	7292
2077.26	7188
2078.23	7146
2079.19	7114
2080.16	7252
2081.13	7066
2082.1	7156
2083.06	7094
2084.03	7174
2085	7194
2085.96	7124
2086.93	7142
2087.9	7092
2088.86	7120
2089.83	7154
2090.8	7166
2091.76	7096
2092.73	7000
2093.69	7176
2094.66	7128
2095.62	7080
2096.59	7136
2097.55	7080
2098.52	7220
2099.48	7036
2100.45	7188
2101.41	7170
2102.38	7016
2103.34	7002
2104.31	7112
2105.27	7056
2106.23	7006
2107.2	6948
2108.16	6946
2109.12	7042
2110.09	6992
2111.05	7078
2112.01	6964
2112.98	7098
2113.94	7122
2114.9	7050
2115.86	7060
2116.82	7038
2117.79	6992
2118.75	6962
2119.71	7016
2120.67	7016
2121.63	6928
2122.59	7012
2123.55	7020
2124.52	6964
2125.48	6968
2126.44	6864
2127.4	6934
2128.36	6984
2129.32	6910
2130.28	7006
2131.24	6976
2132.2	7012
2133.16	6954
2134.12	7036
2135.08	6918
2136.04	6884
2136.99	6942
2137.95	6928
2138.91	6814
2139.87	6946
2140.83	6848
2141.79	6880
2142.75	6922
2143.7	6954
2144.66	6858
2145.62	6913.04
2146.58	6760.79
2147.53	6910.73
2148.49	6887.61
2149.45	6856.14
2150.41	6862.45
2151.36	6811.76
2152.32	6744.02
2153.28	6820.83
2154.23	6804.89
2155.19	6768.56
2156.14	6794.63
2157.1	6732.97
2158.06	6792.54
2159.01	6710
2159.97	6713.3
2160.92	6768.83
2161.88	6783.32
2162.83	6848.72
2163.79	6715.12
2164.74	6716
2165.7	6759.95
2166.65	6777.18
2167.61	6707.61
2168.56	6690.46
2169.51	6586.7
2170.47	6694.05
2171.42	6593.84
2172.38	6636.05
2173.33	6643.37
2174.28	6686.31
2175.24	6668.2
2176.19	6590.81
2177.14	6639.16
2178.09	6635.53
2179.05	6669.01
2180	6565.04
2180.95	6565.88
2181.9	6600.54
2182.86	6566.2
2183.81	6588.01
2184.76	6564.22
2185.71	6598.54
2186.66	6593.51
2187.61	6609.37
2188.57	6576.31
2189.52	6501.47
2190.47	6582.59
2191.42	6592.22
2192.37	6531.9
2193.32	6593.27
2194.27	6552.47
2195.22	6508.86
2196.17	6514.92
2197.12	6540.61
2198.07	6571.11
2199.02	6547.63
2199.97	6524.74
2200.92	6466.02
2201.87	6479.23
2202.82	6529.67
2203.76	6520.39
2204.71	6547.17
2205.66	6490.55
2206.61	6510.06
2207.56	6522.33
2208.51	6524.23
2209.45	6464.39
2210.4	6530.49
2211.35	6541.91
2212.3	6528.09
2213.25	6454.99
2214.19	6512.3
2215.14	6496.67
2216.09	6506.12
2217.03	6519.65
2217.98	6469.16
2218.93	6484.38
2219.87	6489.1
2220.82	6500.23
2221.77	6542.87
2222.71	6468.98
2223.66	6448.95
2224.6	6529.14
2225.55	6520.19
2226.49	6514.37
2227.44	6477.44
2228.38	6453.19
2229.33	6460.56
2230.27	6496.14
2231.22	6513.57
2232.16	6517.46
2233.11	6502.03
2234.05	6473.68
2235	6484.46
2235.94	6518.98
2236.88	6521.25
2237.83	6493.63
2238.77	6517.24
2239.72	6546.38
2240.66	6499.04
2241.6	6469.82
2242.07	6494
2243.02	6494
2243.97	6494
2244.92	6484
2245.87	6444
2246.81	6484
2247.76	6470
2248.71	6428
2249.65	6496
2250.6	6532
2251.55	6484
2252.49	6420
2253.44	6458
2254.39	6396
2255.33	6472
2256.28	6478
2257.22	6474
2258.17	6426
2259.12	6394
2260.06	6408
2261.01	6396
2261.95	6392
2262.9	6418
2263.84	6392
2264.78	6396
2265.73	6364
2266.67	6474
2267.62	6508
2268.56	6306
2269.51	6366
2270.45	6388
2271.39	6404
2272.34	6420
2273.28	6422
2274.22	6496
2275.17	6486
2276.11	6344
2277.05	6322
2277.99	6252
2278.94	6446
2279.88	6318
2280.82	6322
2281.76	6330
2282.71	6356
2283.65	6354
2284.59	6328
2285.53	6310
2286.47	6316
2287.41	6320
2288.35	6360
2289.3	6336
2290.24	6388
2291.18	6228
2292.12	6334
2293.06	6258
2294	6364
2294.94	6250
2295.88	6288
2296.82	6340
2297.76	6160
2298.7	6166
2299.64	6218
2300.58	6242
2301.52	6330
2302.46	6242
2303.39	6296
2304.33	6248
2305.27	6212
2306.21	6200
2307.15	6222
2308.09	6238
2309.02	6132
2309.96	6198
2310.9	6246
2311.84	6194
2312.77	6208
2313.71	6212
2314.65	6118
2315.59	6218
2316.52	6238
2317.46	6240
2318.4	6050
2319.33	6134
2320.27	6204
2321.21	6098
2322.14	6148
2323.08	6190
2324.01	6200
2324.95	6182
2325.89	6162
2326.82	6194
2327.76	6216
2328.69	6116
2329.63	6148
2330.56	6048
2331.5	6072
2332.43	6134
2333.36	6130
2334.3	6070
2335.23	6132
2336.17	6192
2337.1	6182
2338.03	6068
2338.97	6140
2339.9	6126
2340.83	6106
2341.77	6030
2342.7	6036
2343.63	6154
2344.57	6058
2345.5	6030
2346.43	6114
2347.36	6128
2348.3	6052
2349.23	5998
2350.16	6122
2351.09	6018
2352.02	6022
2352.95	6112
2353.89	6046
2354.82	6056
2355.75	5960
2356.68	6118
2357.61	6048
2358.54	5998
2359.47	6104
2360.4	6122
2361.33	5992
2362.26	6128
2363.19	5984
2364.12	6016
2365.05	6106
2365.98	6046
2366.91	5938
2367.84	5968
2368.77	6056
2369.7	5956
2370.63	5930
2371.56	6078
2372.48	5886
2373.41	5936
2374.34	5980
2375.27	5922
2376.2	5920
2377.12	5944
2378.05	6036
2378.98	6022
2379.91	5992
2380.84	6006
2381.76	6000
2382.69	5864
2383.62	5922
2384.54	5802
2385.47	5904
2386.4	5882
2387.32	5886
2388.25	5960
2389.18	5864
2390.1	5888
2391.03	5924
2391.95	5866
2392.88	5892
2393.8	5944
2394.73	5920
2395.65	5834
2396.58	5902
2397.5	5880
2398.43	5838
2399.35	5918
2400.28	5858
2401.2	5792
2402.13	5824
2403.05	5868
2403.97	5802
2404.9	5838
2405.82	5832
2406.75	5808
2407.67	5764
2408.59	5702
2409.51	5814
2410.44	5824
2411.36	5728
2412.28	5810
2413.21	5850
2414.13	5708
2415.05	5858
2415.97	5852
2416.9	5804
2417.82	5728
2418.74	5724
2419.66	5698
2420.58	5706
2421.5	5790
2422.42	5760
2423.35	5740
2424.27	5720
2425.19	5766
2426.11	5746
2427.03	5744
2427.95	5738
2428.87	5612
2429.79	5736
2430.71	5740
2431.63	5706
2432.55	5730
2433.47	5626
2434.39	5690
2435.31	5670
2436.23	5642
2437.14	5750
2438.06	5662
2438.98	5606
2439.9	5632
2440.82	5712
2441.74	5674
2442.66	5592
2443.57	5686
2444.49	5522
2445.41	5570
2446.33	5594
2447.24	5602
2448.16	5576
2449.08	5570
2450	5534
2450.91	5560
2451.83	5574
2452.75	5618
2453.66	5594
2454.58	5598
2455.5	5556
2456.41	5560
2457.33	5510
2458.24	5560
2459.16	5476
2460.08	5542
2460.99	5610
2461.91	5500
2462.82	5498
2463.74	5518
2464.65	5498
2465.57	5524
2466.48	5482
2467.4	5430
2468.31	5540
2469.22	5502
2470.14	5516
2471.05	5524
2471.97	5412
2472.88	5512
2473.79	5452
2474.71	5438
2475.62	5390
2476.53	5482
2477.45	5460
2478.36	5482
2479.27	5374
2480.19	5406
2481.1	5502
2482.01	5446
2482.92	5490
2483.83	5358
2484.75	5470
2485.66	5382
2486.57	5404
2487.48	5360
2488.39	5458
2489.3	5388
2490.22	5412
2491.13	5378
2492.04	5366
2492.95	5354
2493.86	5294
2494.77	5328
2495.68	5312
2496.59	5426
2497.5	5326
2498.41	5476
2499.32	5342
2500.23	5370
2501.14	5342
2502.05	5322
2502.96	5202
2503.87	5274
2504.78	5276
2505.68	5266
2506.59	5268
2507.5	5310
2508.41	5294
2509.32	5334
2510.23	5222
2511.14	5254
2512.04	5246
2512.95	5282
2513.86	5258
2514.77	5260
2515.67	5204
2516.58	5148
2517.49	5216
2518.39	5208
2519.3	5082
2520.21	5164
2521.11	5218
2522.02	5150
2522.93	5114
2523.83	5212
2524.74	5110
2525.65	5070
2526.55	5248
2527.46	5168
2528.36	5180
2529.27	5130
2530.17	5154
2531.08	5026
2531.98	5098
2532.89	5140
2533.79	5108
2534.7	5188
2535.6	5164
2536.51	5168
2537.41	5148
2538.32	5068
2539.22	5086
2540.12	4984
2541.03	5154
2541.93	5086
2542.83	5006
2543.74	5074
2544.64	5050
2545.54	4944
2546.45	4990
2547.35	5016
2548.25	5020
2549.15	4910
2550.06	5026
2550.96	5104
2551.86	5032
2552.76	5008
2553.66	4980
2554.56	4932
2555.47	5008
2556.37	4930
2557.27	4936
2558.17	4880
2559.07	4986
2559.97	4832
2560.87	4990
2561.77	4912
2562.67	4998
2563.58	4930
2564.47	4972
2565.38	4902
2566.27	4978
2567.18	4856
2568.07	4898
2568.97	4874
2569.87	4878
2570.77	4786
2571.67	4850
2572.57	4886
2573.47	4912
2574.37	4872
2575.27	4866
2576.17	4898
2577.06	4892
2577.96	4810
2578.86	4908
2579.76	4810
2580.66	4730
2581.55	4800
2582.45	4866
2583.35	4868
2584.25	4764
2585.14	4784
2586.04	4780
2586.94	4802
2587.83	4818
2588.73	4778
2589.63	4762
2590.52	4732
2591.42	4664
2592.32	4736
2593.21	4742
2594.11	4732
2595	4670
2595.9	4640
2596.8	4660
2597.69	4774
2598.59	4698
2599.48	4638
2600.38	4740
2601.27	4696
2602.17	4622
2603.06	4694
2603.95	4738
2604.85	4688
2605.74	4640
2606.64	4596
2607.53	4626
2608.42	4718
2609.32	4556
2610.21	4616
2611.1	4714
2612	4664
2612.89	4628
2613.78	4588
2614.68	4636
2615.57	4612
2616.46	4564
2617.36	4598
2618.25	4572
2619.14	4550
2620.03	4532
2620.92	4522
2621.82	4614
2622.71	4546
2623.6	4578
2624.49	4534
2625.38	4522
2626.27	4568
2627.16	4554
2628.05	4470
2628.95	4600
2629.84	4552
2630.73	4548
2631.62	4518
2632.51	4538
2633.4	4444
2634.29	4544
2635.18	4474
2636.07	4490
2636.96	4486
2637.85	4416
2638.74	4534
2639.62	4470
2640.51	4458
2641.4	4434
2642.29	4438
2643.18	4378
2644.07	4480
2644.96	4402
2645.85	4326
2646.73	4360
2647.62	4308
2648.51	4360
2649.4	4342
2650.28	4368
2651.17	4362
2652.06	4326
2652.95	4360
2653.83	4326
2654.72	4366
2655.61	4348
2656.5	4376
2657.38	4300
2658.27	4290
2659.15	4346
2660.04	4304
2660.93	4338
2661.81	4376
2662.7	4314
2663.58	4292
2664.47	4328
2665.35	4332
2666.24	4272
2667.13	4276
2668.01	4232
2668.9	4282
2669.78	4234
2670.66	4282
2671.55	4302
2672.43	4292
2673.32	4354
2674.2	4272
2675.09	4256
2675.97	4240
2676.85	4298
2677.74	4168
2678.62	4264
2679.5	4292
2680.39	4280
2681.27	4302
2682.15	4180
2683.04	4188
2683.92	4164
2684.8	4146
2685.68	4180
2686.57	4220
2687.45	4118
2688.33	4182
2689.21	4176
2690.09	4228
2690.98	4172
2691.86	4126
2692.74	4088
2693.62	4096
2694.5	4132
2695.38	4152
2696.26	4126
2697.15	4086
2698.03	4148
2698.91	4124
2699.79	4112
2700.67	4114
2701.55	4060
2702.43	4106
2703.31	4200
2704.19	4104
2705.07	4030
2705.95	4044
2706.83	4098
2707.7	4110
2708.58	4018
2709.46	4044
2710.34	4156
2711.22	4108
2712.1	3934
2712.98	4052
2713.86	4080
2714.73	3984
2715.61	3980
2716.49	4010
2717.37	3918
2718.25	3988
2719.12	3988
2720	3996
2720.88	3940
2721.76	3934
2722.63	4028
2723.51	3942
2724.39	4038
2725.26	3956
2726.14	4008
2727.02	3976
2727.89	4014
2728.77	3938
2729.64	3838
2730.52	3898
2731.4	3908
2732.27	3890
2733.15	3890
2734.02	3906
2734.9	3974
2735.77	3940
2736.65	3818
2737.52	3972
2738.4	3866
2739.27	3816
2740.15	3854
2741.02	3912
2741.9	3804
2742.77	3856
2743.64	3840
2744.52	3778
2745.39	3828
2746.27	3818
2747.14	3920
2748.01	3796
2748.89	3808
2749.76	3804
2750.63	3772
2751.51	3836
2752.38	3810
2753.25	3790
2754.12	3742
2755	3756
2755.87	3806
2756.74	3730
2757.61	3748
2758.48	3688
2759.35	3740
2760.23	3716
2761.1	3748
2761.97	3750
2762.84	3672
2763.71	3686
2764.58	3750
2765.45	3626
2766.32	3686
2767.19	3712
2768.07	3704
2768.94	3672
2769.81	3702
2770.68	3630
2771.55	3652
2772.42	3664
2773.29	3680
2774.16	3682
2775.02	3552
2775.89	3584
2776.76	3672
2777.63	3690
2778.5	3576
2779.37	3600
2780.24	3658
2781.11	3638
2781.98	3568
2782.84	3678
2783.71	3626
2784.58	3580
2785.45	3588
2786.32	3588
2787.18	3572
2788.05	3620
2788.92	3580
2789.79	3644
2790.65	3572
2791.52	3524
2792.39	3576
2793.25	3578
2794.12	3524
2794.99	3534
2795.85	3512
2796.72	3524
2797.59	3570
2798.45	3510
2799.32	3520
2800.18	3592
2801.05	3500
2801.92	3484
2802.78	3502
2803.65	3501
2804.51	3500
2805.38	3566
2806.24	3546
2807.11	3468
2807.97	3484
2808.84	3474
2809.7	3488
2810.57	3442
2811.43	3446
2812.29	3444
2813.16	3344
2814.02	3480
2814.88	3410
2815.75	3386
2816.61	3520
2817.47	3420
2818.34	3362
2819.2	3414
2820.06	3482
2820.93	3346
2821.79	3378
2822.65	3388
2823.51	3438
2824.38	3386
2825.24	3422
2826.1	3414
2826.96	3368
2827.82	3392
2828.69	3386
2829.55	3318
2830.41	3392
2831.27	3400
2832.13	3296
2832.99	3342
2833.85	3402
2834.71	3262
2835.57	3284
2836.44	3308
2837.3	3368
2838.16	3334
2839.02	3324
2839.88	3292
2840.74	3280
2841.6	3288
2842.46	3298
2843.32	3208
2844.18	3334
2845.03	3256
2845.89	3264
2846.75	3234
2847.61	3220
2848.47	3240
2849.33	3242
2850.19	3288
2851.05	3214
2851.9	3212
2852.76	3218
2853.62	3234
2854.48	3218
2855.34	3142
2856.19	3180
2857.05	3192
2857.91	3250
2858.77	3164
2859.62	3232
2860.48	3188
2861.34	3168
2862.19	3130
2863.05	3188
2863.91	3136
2864.76	3102
2865.62	3118
2866.48	3152
2867.33	3184
2868.19	3166
2869.04	3120
2869.9	3076
2870.76	3084
2871.61	3106
2872.47	3132
2873.32	3100
2874.18	3142
2875.03	3088
2875.89	3140
2876.74	3014
2877.6	3052
2878.45	3090
2879.31	3028
2880.16	3052
2881.01	3052
2881.87	3018
2882.72	3042
2883.58	3042
2884.43	3004
2885.28	3076
2886.14	3026
2886.99	3010
2887.84	2990
2888.7	3010
2889.55	3084
2890.4	3066
2891.25	3002
2892.11	3054
2892.96	3000
2893.81	3008
2894.66	3002
2895.52	3016
2896.37	2990
2897.22	3032
2898.07	2962
2898.92	2898
2899.77	2986
2900.62	2982
2901.48	2958
2902.33	2948
2903.18	2958
2904.03	2982
2904.88	2958
2905.73	2936
2906.58	2918
2907.43	2970
2908.28	2922
2909.13	2916
2909.98	3018
2910.83	2906
2911.68	2868
2912.53	2914
2913.38	2956
2914.23	2898
2915.08	2922
2915.93	2906
2916.78	2964
2917.63	2926
2918.47	2906
2919.32	2860
2920.17	2914
2921.02	2852
2921.87	2872
2922.72	2900
2923.56	2874
2924.41	2856
2925.26	2916
2926.11	2900
2926.95	2922
2927.8	2956
2928.65	2844
2929.5	2802
2930.34	2896
2931.19	2826
2932.04	2886
2932.88	2862
2933.73	2754
2934.58	2850
2935.42	2868
2936.27	2818
2937.11	2846
2937.96	2822
2938.81	2856
2939.65	2824
2940.5	2832
2941.34	2814
2942.19	2774
2943.03	2866
2943.88	2810
2944.72	2756
2945.57	2760
2946.41	2786
2947.26	2720
2948.1	2818
2948.95	2796
2949.79	2762
2950.64	2788
2951.48	2740
2952.32	2744
2953.17	2724
2954.01	2740
2954.85	2778
2955.7	2744
2956.54	2754
2957.38	2758
2958.23	2800
2959.07	2744
2959.91	2718
2960.75	2782
2961.6	2718
2962.44	2774
2963.28	2702
2964.12	2768
2964.97	2700
2965.81	2786
2966.65	2664
2967.49	2720
2968.33	2668
2969.17	2768
2970.02	2664
2970.86	2672
2971.7	2704
2972.54	2716
2973.38	2678
2974.22	2620
2975.06	2684
2975.9	2686
2976.74	2642
2977.58	2640
2978.42	2690
2979.26	2610
2980.1	2632
2980.94	2632
2981.78	2724
2982.62	2636
2983.46	2622
2984.3	2692
2985.14	2576
2985.98	2678
2986.82	2672
2987.66	2576
2988.49	2582
2989.33	2588
2990.17	2602
2991.01	2588
2991.85	2578
2992.69	2530
2993.52	2558
2994.36	2584
2995.2	2556
2996.04	2636
2996.87	2572
2997.71	2586
2998.55	2544
2999.39	2540
