#Acq. time (s)=	10
#Accumulations=	1
#Range (cm-¹)=	100...3000
#Windows=	3
#Autofocus=	Off
#AutoExposure=	Off
#Spike filter=	Off
#Delay time (s)=	0
#Binning=	1
#Readout mode=	Signal
#DeNoise=	Off
#ICS correction=	Off
#Dark correction=	Off
#Inst. Process=	Off
#Instrument=	LabRAM HR Evol
#Detector=	Syncerity OE
#Objective=	x100_VIS
#Grating=	600 (500nm)
#ND Filter=	3.2%
#Laser=	633nm_Edge
#Hole=	100.021
#Range=	Visible
#Project=	Omar
#Sample=	26-06-23
#Site=	2
#Title=	Organic
#Remark=	
#Date=	26.06.2023 16:22
#Acquired=	26.06.2023 16:22:48
101.018	3874
102.302	3942
103.586	3972
104.869	3932
106.152	3938
107.435	3942
108.717	3930
109.999	3946
111.281	3974
112.563	4002
113.845	3992
115.126	3984
116.407	3938
117.688	3988
118.969	4050
120.249	4002
121.53	4018
122.81	4000
124.09	4078
125.369	4078
126.649	4074
127.928	4034
129.207	4112
130.486	4058
131.765	4156
133.043	4146
134.321	4160
135.599	4120
136.877	4124
138.155	4176
139.432	4110
140.708	4130
141.985	4120
143.261	4048
144.538	4138
145.814	4174
147.09	4158
148.366	4222
149.641	4206
150.916	4280
152.191	4174
153.466	4236
154.741	4220
156.016	4292
157.289	4238
158.563	4230
159.837	4238
161.111	4208
162.385	4256
163.657	4232
164.93	4332
166.203	4304
167.476	4368
168.747	4288
170.019	4198
171.291	4220
172.562	4242
173.834	4312
175.105	4298
176.377	4294
177.646	4244
178.917	4322
180.188	4314
181.457	4292
182.727	4384
183.996	4324
185.266	4370
186.536	4376
187.804	4398
189.073	4346
190.342	4442
191.609	4396
192.878	4410
194.145	4378
195.413	4432
196.681	4360
197.948	4414
199.215	4460
200.481	4434
201.749	4496
203.014	4442
204.281	4492
205.546	4522
206.813	4430
208.077	4536
209.343	4536
210.608	4440
211.873	4544
213.137	4598
214.402	4554
215.666	4626
216.93	4564
218.194	4540
219.458	4650
220.721	4572
221.983	4612
223.247	4562
224.509	4626
225.772	4604
227.034	4766
228.295	4732
229.558	4656
230.819	4698
232.081	4724
233.342	4700
234.602	4730
235.864	4728
237.124	4756
238.384	4810
239.645	4824
240.904	4782
242.164	4820
243.423	4808
244.683	4848
245.941	4822
247.2	4878
248.46	4830
249.717	4836
250.975	4900
252.233	4856
253.492	4876
254.749	4860
256.006	4790
257.263	4910
258.519	4796
259.777	4924
261.033	4794
262.289	4788
263.545	4906
264.8	4906
266.057	4906
267.312	4876
268.567	4868
269.822	4868
271.076	4844
272.331	4874
273.585	4854
274.839	4890
276.094	4840
277.347	4830
278.601	4938
279.854	4890
281.107	4996
282.359	4910
283.612	5028
284.864	5022
286.116	5032
287.368	4998
288.62	4984
289.871	5002
291.123	5074
292.374	5072
293.625	5060
294.875	5110
296.126	5090
297.376	5132
298.626	5112
299.876	5206
301.126	5114
302.375	5146
303.625	5206
304.874	5152
306.122	5156
307.371	5156
308.62	5160
309.866	5284
311.114	5236
312.362	5164
313.61	5306
314.857	5224
316.105	5272
317.352	5270
318.599	5352
319.844	5212
321.09	5238
322.337	5242
323.583	5338
324.828	5148
326.073	5292
327.318	5292
328.563	5290
329.808	5388
331.053	5288
332.296	5414
333.541	5338
334.785	5314
336.029	5342
337.272	5286
338.515	5392
339.759	5366
341.001	5400
342.244	5410
343.486	5452
344.728	5492
345.97	5510
347.212	5464
348.453	5522
349.695	5492
350.936	5492
352.176	5496
353.418	5438
354.659	5530
355.898	5536
357.139	5462
358.378	5536
359.618	5554
360.858	5542
362.097	5534
363.336	5536
364.574	5558
365.813	5584
367.051	5612
368.29	5582
369.527	5548
370.766	5548
372.002	5586
373.241	5478
374.477	5598
375.715	5524
376.951	5638
378.188	5604
379.424	5586
380.66	5736
381.896	5658
383.132	5610
384.367	5666
385.603	5624
386.838	5604
388.072	5696
389.307	5736
390.541	5634
391.776	5664
393.01	5738
394.243	5720
395.477	5800
396.71	5770
397.943	5816
399.177	5752
400.409	5740
401.641	5802
402.875	5844
404.106	5776
405.338	5676
406.57	5896
407.802	5898
409.032	5864
410.263	5932
411.495	5896
412.725	5916
413.955	5986
415.185	5916
416.417	5970
417.646	5900
418.875	6064
420.104	6034
421.335	6168
422.564	6014
423.792	6080
425.02	6130
426.249	6028
427.477	6114
428.706	6164
429.933	6184
431.161	6110
432.388	6136
433.615	6146
434.841	6166
436.068	6192
437.294	6126
438.522	6180
439.748	6316
440.974	6288
442.199	6238
443.425	6218
444.65	6290
445.875	6240
447.1	6296
448.324	6290
449.549	6312
450.773	6302
451.997	6258
453.221	6346
454.445	6280
455.668	6260
456.891	6254
458.114	6372
459.337	6290
460.56	6416
461.782	6448
463.005	6344
464.227	6330
465.447	6382
466.669	6292
467.89	6394
469.112	6362
470.333	6326
471.554	6370
472.774	6346
473.995	6380
475.214	6386
476.434	6410
477.654	6420
478.874	6428
480.093	6444
481.312	6474
482.53	6508
483.749	6550
484.968	6528
486.186	6534
487.405	6522
488.622	6610
489.84	6488
491.057	6658
492.275	6608
493.491	6558
494.708	6640
495.925	6598
497.141	6676
498.357	6618
499.574	6672
500.789	6636
502.005	6768
503.221	6730
504.435	6750
505.65	6754
506.866	6680
508.079	6832
509.294	6796
510.509	6802
511.722	6804
512.936	6852
514.149	6852
515.363	6756
516.577	6652
517.789	6780
519.002	6878
520.214	6864
521.427	6712
522.638	6842
523.851	6884
525.062	6780
526.274	6808
527.485	6854
528.697	6780
529.907	6862
531.118	6864
532.328	6894
533.539	6874
534.748	6848
535.959	6868
537.168	6890
538.379	6864
539.587	6820
540.796	6854
542.005	6928
543.214	6916
544.423	6944
545.631	6804
546.838	7026
548.047	7070
549.254	6916
550.461	7140
551.669	7022
552.876	7054
554.082	7016
555.29	7022
556.496	7100
557.701	7056
558.909	7104
560.114	7046
561.319	7206
562.524	7058
563.731	7156
564.935	7226
566.14	7114
567.344	7134
568.549	7202
569.753	7182
570.957	7238
572.161	7244
573.364	7190
574.568	7262
575.771	7342
576.974	7300
578.177	7310
579.379	7264
580.581	7340
581.785	7426
582.987	7350
584.188	7398
585.39	7456
586.591	7326
587.792	7346
588.993	7434
590.193	7366
591.394	7502
592.594	7532
593.796	7430
594.996	7540
596.195	7450
597.395	7608
598.594	7444
599.793	7636
600.992	7558
602.191	7576
603.39	7640
604.588	7572
605.786	7744
606.984	7606
608.181	7712
609.378	7684
610.576	7768
611.773	7708
612.97	7784
614.167	7754
615.364	7892
616.56	7922
617.757	7822
618.953	7850
620.149	8036
621.343	7836
622.539	7888
623.734	8066
624.929	7988
626.124	8112
627.319	7994
628.512	8066
629.707	8102
630.901	8180
632.095	8178
633.289	8212
634.481	8262
635.675	8184
636.868	8256
638.061	8310
639.253	8230
640.446	8258
641.638	8262
642.831	8402
644.021	8312
645.213	8412
646.405	8384
647.595	8352
648.787	8440
649.978	8488
651.168	8572
652.359	8532
653.549	8594
654.738	8484
655.929	8604
657.117	8672
658.307	8504
659.497	8576
660.685	8560
661.875	8810
663.063	8714
664.252	8676
665.439	8566
666.628	8722
667.816	8660
669.003	8768
670.191	8724
671.378	8802
672.565	8782
673.751	8824
674.939	8936
676.124	8780
677.311	8870
678.497	8804
679.682	8850
680.868	8916
682.053	8910
683.239	8868
684.424	8990
685.609	9004
686.793	9026
687.977	9178
689.162	9034
690.346	9142
691.529	9082
692.714	9104
693.897	9126
695.081	9182
696.264	9188
697.446	9226
698.63	9178
699.812	9192
700.993	9228
702.175	9284
703.358	9262
704.539	9328
705.72	9432
706.901	9342
708.083	9394
709.264	9490
710.444	9510
711.625	9590
712.806	9442
713.986	9446
715.165	9522
716.345	9670
717.524	9612
718.705	9604
719.884	9640
721.062	9644
722.241	9782
723.419	9900
724.597	9754
725.775	9858
726.954	9828
728.132	9846
729.31	9926
730.487	9898
731.664	9994
732.841	9874
734.017	10004
735.194	10180
736.37	10134
737.546	10076
738.722	10110
739.898	10178
741.074	10212
742.249	10178
743.424	10268
744.599	10314
745.774	10244
746.949	10368
748.123	10344
749.298	10402
750.472	10418
751.646	10326
752.819	10364
753.993	10556
755.166	10506
756.34	10646
757.511	10496
758.684	10476
759.857	10556
761.029	10584
762.202	10540
763.374	10690
764.546	10502
765.716	10848
766.888	10718
768.059	10656
769.23	10804
770.401	10808
771.571	10734
772.741	10768
773.912	10890
775.082	10902
776.251	10844
777.421	11070
778.59	11042
779.76	11054
780.928	10966
782.097	11206
783.266	11134
784.434	11068
785.602	11228
786.771	11076
787.938	11204
789.106	11338
790.274	11082
791.44	11314
792.608	11418
793.775	11210
794.941	11428
796.108	11388
797.273	11548
798.44	11618
799.606	11624
800.771	11518
801.937	11648
803.102	11652
804.268	11622
805.432	11604
806.597	11728
807.761	11876
808.926	11900
810.09	11994
811.254	11986
812.417	11884
813.582	12002
814.744	12026
815.908	12074
817.071	12216
818.234	12128
819.396	12178
820.558	12188
821.721	12210
822.883	12196
824.045	12312
825.206	12420
826.367	12284
827.529	12522
828.69	12624
829.85	12714
831.012	12582
832.172	12614
833.332	12836
834.493	12880
835.653	12764
836.812	12786
837.972	12832
839.131	12920
840.29	12922
841.449	12908
842.609	13130
843.767	13048
844.925	13244
846.083	13260
847.242	13202
848.399	13294
849.557	13294
850.714	13380
851.871	13428
853.029	13444
854.186	13450
855.342	13498
856.498	13414
857.654	13588
858.81	13596
859.966	13708
861.122	13606
862.278	13896
863.434	13898
864.589	14010
865.744	13958
866.898	13946
868.053	13988
869.207	14076
870.361	14036
871.515	13980
872.669	14162
873.822	14046
874.976	14070
876.129	14160
877.282	14198
878.435	14346
879.588	14252
880.74	14270
881.893	14312
883.045	14258
884.197	14374
885.349	14446
886.5	14490
887.652	14504
888.802	14640
889.953	14514
891.104	14590
892.254	14724
893.405	14630
894.555	14738
895.706	14880
896.854	14780
898.004	14880
899.154	14948
900.303	14882
901.453	14898
902.6	14966
903.749	14708
904.898	14984
906.047	14992
907.194	15070
908.342	14870
909.49	15116
910.638	15212
911.785	15036
912.932	15274
914.08	15240
915.225	15324
916.372	15278
917.519	15538
918.666	15440
919.811	15334
920.957	15512
922.102	15568
923.248	15506
924.394	15554
925.538	15616
926.684	15634
927.828	15844
928.973	15730
930.118	15796
931.261	15896
932.406	15988
933.549	15888
934.693	16044
935.836	16170
936.979	16102
938.122	16188
939.265	16146
940.407	16346
941.55	16310
942.692	16472
943.835	16388
944.976	16408
946.118	16528
947.259	16486
948.401	16650
949.542	16578
950.682	16792
951.824	16780
952.964	16934
954.105	16860
955.245	16878
956.385	16914
957.525	16976
958.664	16950
959.803	17116
960.944	17218
962.082	17130
963.221	17446
964.36	17378
965.498	17416
966.636	17434
967.774	17614
968.913	17390
970.051	17494
971.188	17594
972.325	17694
973.463	17624
974.6	17650
975.736	17750
976.873	17750
978.009	17804
979.146	17976
980.282	18020
981.418	17830
982.554	17924
983.689	18028
984.824	17974
985.959	18184
987.095	18072
988.23	18200
989.364	18162
990.499	18232
991.633	18248
992.767	18386
993.9	18464
995.034	18220
996.167	18408
997.301	18558
998.434	18492
999.567	18632
1000.7	18392
1001.83	18522
1002.96	18620
1004.1	18542
1005.23	18886
1006.36	18474
1007.49	18880
1008.62	18808
1009.76	19016
1010.89	18926
1012.02	18726
1013.15	18962
1014.28	19006
1015.41	19116
1016.54	18962
1017.67	19282
1018.8	19248
1019.93	19266
1021.06	19314
1022.19	19476
1023.32	19296
1024.44	19524
1025.57	19430
1026.7	19616
1027.83	19676
1028.96	19636
1030.09	19656
1031.21	19836
1032.34	19716
1033.47	19812
1034.6	20006
1035.72	19980
1036.85	19834
1037.98	20064
1039.1	20080
1040.23	20194
1041.35	20150
1042.48	20124
1043.61	20438
1044.73	20260
1045.86	20294
1046.98	20534
1048.11	20462
1049.23	20564
1050.36	20498
1051.48	20728
1052.61	20596
1053.73	20662
1054.85	20842
1055.98	20808
1057.1	20698
1058.22	20790
1059.35	20934
1060.47	21018
1061.59	20836
1062.72	20854
1063.84	21066
1064.96	20984
1066.08	21110
1067.2	21032
1068.33	21130
1069.45	21072
1070.57	21088
1071.69	21118
1072.81	21176
1073.93	21204
1075.05	21426
1076.17	21202
1077.29	21386
1078.41	21230
1079.53	21410
1080.65	21352
1081.77	21242
1082.89	21340
1084.01	21380
1085.13	21268
1086.25	21370
1087.37	21578
1088.48	21414
1089.6	21388
1090.72	21478
1091.84	21432
1092.96	21544
1094.07	21314
1095.19	21316
1096.31	21320
1097.43	21464
1098.54	21254
1099.66	21366
1100.78	21372
1101.89	21468
1103.01	21532
1104.12	21432
1105.24	21590
1106.35	21684
1107.47	21590
1108.59	21548
1109.7	21506
1110.81	21390
1111.93	21564
1113.04	21512
1114.16	21376
1115.27	21484
1116.39	21544
1117.5	21492
1118.61	21362
1119.73	21534
1120.84	21656
1121.95	21572
1123.06	21586
1124.18	21568
1125.29	21562
1126.4	21630
1127.51	21742
1128.63	21558
1129.74	21632
1130.85	21708
1131.96	21724
1133.07	21664
1134.18	21690
1135.29	21818
1136.4	21782
1137.51	21686
1138.62	21662
1139.73	21850
1140.84	21868
1141.95	21944
1143.06	21998
1144.17	21768
1145.28	22036
1146.39	21920
1147.5	21964
1148.61	22056
1149.72	22092
1150.82	22122
1151.93	21924
1153.04	21944
1154.15	22242
1155.26	22100
1156.36	22030
1157.47	21890
1158.58	22018
1159.68	22244
1160.79	22006
1161.9	21978
1163	21884
1164.11	22072
1165.22	22112
1166.32	21738
1167.43	22054
1168.53	22064
1169.64	21878
1170.74	21880
1171.85	21960
1172.95	21878
1174.06	21838
1175.16	21806
1176.26	21798
1177.37	21856
1178.47	21856
1179.58	21916
1180.68	21784
1181.78	21920
1182.88	21692
1183.99	21752
1185.09	21726
1186.19	21720
1187.3	21626
1188.4	21494
1189.5	21602
1190.6	21548
1191.7	21368
1192.8	21274
1193.9	21510
1195.01	21400
1196.11	21231.1
1197.21	21280.9
1198.31	21308
1199.41	21209.9
1200.51	21253.2
1201.61	21057.9
1202.71	21117.1
1203.81	21068.4
1204.91	21160.7
1206.01	21003.8
1207.11	21334.8
1208.2	21038.2
1209.3	20892.3
1210.4	20931.9
1211.5	20971.4
1212.6	20813.2
1213.7	20952.8
1214.8	20781.4
1215.89	20646.3
1216.99	20804.9
1218.09	20486.5
1219.18	20541.6
1220.28	20712.6
1221.38	20492.8
1222.48	20454.6
1223.57	20306.7
1224.67	20328.9
1225.76	20298.7
1226.86	20304.4
1227.96	20236.1
1229.05	20201.1
1230.15	20336.8
1231.24	20142
1232.34	20112.8
1233.43	20132.5
1234.53	20142.5
1235.62	20089
1236.71	20196.3
1237.81	20060
1238.9	20005.9
1240	19997
1241.09	19925
1242.18	19917.2
1243.28	19845.7
1244.37	19885.8
1245.46	19809.9
1246.56	19713.3
1247.65	19739
1248.74	19739.8
1249.83	19765.3
1250.93	19649.6
1252.02	19710.1
1253.11	19581.5
1254.2	19581.8
1255.29	19615.9
1256.38	19591.3
1257.47	19425.7
1258.56	19364.7
1259.65	19325.7
1260.74	19378.6
1261.84	19283.6
1262.92	19319.2
1264.01	19266.5
1265.1	19213.8
1266.19	19244
1267.28	19217.1
1268.37	19304.3
1269.46	19235.1
1270.55	19170
1271.64	19187.3
1272.73	19098.1
1273.82	19122.9
1274.9	19106.4
1275.99	19022.6
1277.08	19006.9
1278.17	18974.1
1279.26	18858.7
1280.34	18830.2
1281.43	18853.5
1282.52	18720
1283.6	18621.9
1284.69	18635.9
1285.78	18664.4
1286.86	18608.6
1287.95	18645.1
1289.03	18579.7
1290.12	18650.9
1291.21	18626.3
1292.29	18414.6
1293.38	18591.4
1294.46	18425.3
1295.55	18495.2
1296.63	18321.9
1297.71	18347.1
1298.8	18262.4
1299.88	18298.1
1300.97	18221.1
1302.05	18200.4
1303.13	18185.6
1304.22	18048.2
1305.3	18110.5
1306.38	17924.8
1307.34	18034
1308.43	17760
1309.52	17860
1310.61	17780
1311.7	17724
1312.78	17676
1313.87	17722
1314.96	17656
1316.05	17492
1317.13	17580
1318.22	17446
1319.3	17180
1320.39	17436
1321.48	17378
1322.56	17186
1323.65	17116
1324.73	17264
1325.82	17174
1326.9	17052
1327.99	17082
1329.07	17004
1330.16	16930
1331.24	16896
1332.33	16622
1333.41	16786
1334.5	16814
1335.58	16842
1336.66	16626
1337.75	16714
1338.83	16590
1339.91	16600
1341	16582
1342.08	16668
1343.16	16344
1344.25	16504
1345.33	16312
1346.41	16130
1347.49	16140
1348.57	16204
1349.65	16224
1350.74	15986
1351.82	16000
1352.9	15770
1353.98	15986
1355.06	15960
1356.14	15922
1357.22	15728
1358.3	15708
1359.38	15648
1360.46	15628
1361.54	15742
1362.62	15588
1363.7	15552
1364.78	15574
1365.86	15532
1366.94	15434
1368.02	15490
1369.09	15458
1370.17	15512
1371.25	15326
1372.33	15346
1373.41	15392
1374.48	15324
1375.56	15132
1376.64	15198
1377.72	15180
1378.79	15084
1379.87	15094
1380.95	15154
1382.02	14992
1383.1	14908
1384.17	14906
1385.25	14934
1386.33	14844
1387.4	14826
1388.48	14752
1389.55	14822
1390.63	14842
1391.7	14912
1392.78	14618
1393.85	14602
1394.93	14520
1396	14608
1397.07	14642
1398.15	14406
1399.22	14506
1400.3	14550
1401.37	14394
1402.44	14368
1403.52	14394
1404.59	14394
1405.66	14282
1406.73	14336
1407.81	14282
1408.88	14232
1409.95	14144
1411.02	14076
1412.09	14220
1413.17	13998
1414.24	14080
1415.31	14100
1416.38	14014
1417.45	13998
1418.52	14022
1419.59	13878
1420.66	13900
1421.73	13946
1422.8	13902
1423.87	13804
1424.94	13896
1426.01	13846
1427.08	13750
1428.15	13670
1429.22	13592
1430.29	13730
1431.35	13620
1432.42	13654
1433.49	13486
1434.56	13570
1435.63	13462
1436.7	13604
1437.76	13472
1438.83	13390
1439.9	13494
1440.96	13520
1442.03	13406
1443.1	13376
1444.17	13440
1445.23	13302
1446.3	13310
1447.36	13284
1448.43	13222
1449.49	13270
1450.56	13388
1451.63	13200
1452.69	13176
1453.76	13308
1454.82	13062
1455.89	13208
1456.95	13104
1458.01	12978
1459.08	12958
1460.14	13108
1461.21	13090
1462.27	12990
1463.34	13002
1464.4	12904
1465.46	12796
1466.52	12940
1467.59	12950
1468.65	12832
1469.71	12814
1470.77	12764
1471.84	12842
1472.9	12890
1473.96	12820
1475.02	12778
1476.08	12792
1477.15	12848
1478.21	12700
1479.27	12628
1480.33	12840
1481.39	12646
1482.45	12666
1483.51	12652
1484.57	12634
1485.63	12684
1486.69	12546
1487.75	12538
1488.81	12600
1489.87	12612
1490.93	12506
1491.99	12396
1493.05	12530
1494.1	12600
1495.16	12486
1496.22	12396
1497.28	12372
1498.34	12448
1499.4	12302
1500.45	12368
1501.51	12274
1502.57	12304
1503.63	12166
1504.68	12226
1505.74	12300
1506.8	12180
1507.85	12146
1508.91	12074
1509.97	12166
1511.02	12300
1512.08	12086
1513.13	12064
1514.19	12126
1515.24	11914
1516.3	11976
1517.35	12082
1518.41	11976
1519.46	12010
1520.52	11908
1521.57	12022
1522.63	11866
1523.68	11938
1524.73	11974
1525.79	11932
1526.84	11730
1527.9	11732
1528.95	11896
1530	11884
1531.06	11716
1532.11	11794
1533.16	11676
1534.21	11652
1535.26	11690
1536.32	11686
1537.37	11512
1538.42	11550
1539.47	11506
1540.52	11668
1541.57	11414
1542.63	11486
1543.68	11472
1544.73	11514
1545.78	11488
1546.83	11408
1547.88	11414
1548.93	11422
1549.98	11288
1551.03	11356
1552.08	11396
1553.13	11266
1554.18	11284
1555.23	11406
1556.27	11222
1557.32	11276
1558.37	11186
1559.42	11312
1560.47	11264
1561.52	11150
1562.56	11184
1563.61	11180
1564.66	11206
1565.71	11286
1566.75	11104
1567.8	11224
1568.85	11190
1569.9	11060
1570.94	11158
1571.99	11026
1573.03	11070
1574.08	10962
1575.13	11016
1576.17	11124
1577.22	11082
1578.26	10962
1579.31	11078
1580.35	11022
1581.4	11158
1582.44	10986
1583.49	10960
1584.53	11022
1585.58	10942
1586.62	11102
1587.66	10954
1588.71	10936
1589.75	11014
1590.8	10862
1591.84	10894
1592.88	10814
1593.93	10998
1594.97	10900
1596.01	10880
1597.05	10810
1598.1	10888
1599.14	10824
1600.18	10838
1601.22	10858
1602.26	10928
1603.31	10904
1604.35	10872
1605.39	10862
1606.43	10702
1607.47	10778
1608.51	10864
1609.55	10756
1610.59	10590
1611.63	10704
1612.67	10804
1613.71	10780
1614.75	10716
1615.79	10828
1616.83	10790
1617.87	10782
1618.91	10752
1619.95	10656
1620.99	10754
1622.02	10640
1623.06	10548
1624.1	10684
1625.14	10694
1626.18	10718
1627.21	10662
1628.25	10690
1629.29	10620
1630.33	10632
1631.36	10620
1632.4	10624
1633.44	10714
1634.48	10548
1635.51	10502
1636.55	10580
1637.58	10610
1638.62	10550
1639.66	10520
1640.69	10524
1641.73	10510
1642.76	10462
1643.8	10458
1644.83	10488
1645.87	10574
1646.9	10438
1647.94	10506
1648.97	10432
1650	10406
1651.04	10426
1652.07	10318
1653.11	10302
1654.14	10406
1655.17	10282
1656.21	10274
1657.24	10314
1658.27	10346
1659.31	10296
1660.34	10304
1661.37	10202
1662.4	10214
1663.43	10078
1664.47	10224
1665.5	10166
1666.53	10098
1667.56	10128
1668.59	10172
1669.62	10094
1670.66	10034
1671.69	10134
1672.72	10152
1673.75	10090
1674.78	10122
1675.81	9996
1676.84	10006
1677.87	10042
1678.9	9938
1679.93	10004
1680.96	10126
1681.98	9944
1683.01	9982
1684.04	9944
1685.07	9956
1686.1	9958
1687.13	9906
1688.16	9830
1689.19	9882
1690.21	9826
1691.24	9952
1692.27	9868
1693.3	9890
1694.32	9870
1695.35	9862
1696.38	9776
1697.4	9802
1698.43	9782
1699.46	9706
1700.48	9816
1701.51	9720
1702.54	9798
1703.56	9778
1704.59	9562
1705.61	9684
1706.64	9650
1707.66	9768
1708.69	9714
1709.71	9700
1710.74	9640
1711.76	9730
1712.79	9622
1713.81	9652
1714.83	9622
1715.86	9598
1716.88	9766
1717.91	9600
1718.93	9556
1719.95	9620
1720.98	9596
1722	9566
1723.02	9532
1724.04	9560
1725.07	9484
1726.09	9688
1727.11	9566
1728.13	9504
1729.15	9440
1730.18	9462
1731.2	9566
1732.22	9544
1733.24	9482
1734.26	9526
1735.28	9482
1736.3	9424
1737.32	9430
1738.34	9428
1739.36	9346
1740.38	9384
1741.4	9440
1742.42	9392
1743.44	9426
1744.46	9298
1745.48	9440
1746.5	9288
1747.52	9482
1748.54	9274
1749.56	9274
1750.58	9382
1751.6	9338
1752.61	9298
1753.63	9398
1754.65	9432
1755.67	9264
1756.68	9336
1757.7	9254
1758.72	9334
1759.74	9316
1760.75	9312
1761.77	9242
1762.79	9262
1763.8	9224
1764.82	9364
1765.84	9354
1766.85	9354
1767.87	9312
1768.88	9262
1769.9	9320
1770.91	9250
1771.93	9350
1772.94	9298
1773.96	9298
1774.97	9122
1775.99	9204
1777	9286
1778.02	9196
1779.03	9326
1780.04	9248
1781.06	9262
1782.07	9206
1783.09	9376
1784.1	9236
1785.11	9152
1786.13	9128
1787.14	9282
1788.15	9160
1789.16	9184
1790.18	9266
1791.19	9132
1792.2	9032
1793.21	9108
1794.22	9146
1795.23	9152
1796.25	9164
1797.26	9072
1798.27	9154
1799.28	9160
1800.29	9120
1801.3	9112
1802.31	9112
1803.32	9040
1804.33	9104
1805.34	8964
1806.35	8930
1807.36	9172
1808.37	8942
1809.38	9102
1810.39	9050
1811.4	8986
1812.41	8846
1813.42	8984
1814.43	9078
1815.43	8984
1816.44	8930
1817.45	9030
1818.46	9010
1819.47	8924
1820.47	8968
1821.48	8928
1822.49	8876
1823.49	8910
1824.5	8878
1825.51	8856
1826.52	8956
1827.52	8876
1828.53	9006
1829.54	8904
1830.54	8876
1831.55	8654
1832.55	8726
1833.56	8824
1834.56	8728
1835.57	8694
1836.57	8750
1837.58	8828
1838.58	8706
1839.59	8856
1840.59	8638
1841.6	8674
1842.6	8722
1843.61	8734
1844.61	8722
1845.61	8672
1846.62	8830
1847.62	8678
1848.62	8792
1849.63	8624
1850.63	8498
1851.63	8698
1852.64	8560
1853.64	8734
1854.64	8694
1855.64	8620
1856.64	8548
1857.65	8658
1858.65	8600
1859.65	8550
1860.65	8648
1861.65	8692
1862.65	8556
1863.65	8500
1864.66	8570
1865.66	8528
1866.66	8564
1867.66	8504
1868.66	8530
1869.66	8474
1870.66	8560
1871.66	8596
1872.66	8514
1873.66	8580
1874.66	8338
1875.65	8392
1876.65	8396
1877.65	8494
1878.65	8402
1879.65	8400
1880.65	8528
1881.65	8426
1882.64	8490
1883.64	8332
1884.64	8572
1885.64	8462
1886.63	8414
1887.63	8476
1888.63	8486
1889.63	8408
1890.62	8380
1891.62	8360
1892.62	8360
1893.61	8480
1894.61	8334
1895.6	8326
1896.6	8322
1897.6	8462
1898.59	8428
1899.59	8378
1900.58	8444
1901.58	8382
1902.57	8422
1903.57	8356
1904.56	8318
1905.56	8308
1906.55	8388
1907.54	8528
1908.54	8330
1909.53	8392
1910.53	8440
1911.52	8282
1912.51	8380
1913.51	8364
1914.5	8358
1915.49	8530
1916.49	8276
1917.48	8344
1918.47	8444
1919.46	8320
1920.46	8332
1921.45	8330
1922.44	8236
1923.43	8428
1924.42	8434
1925.41	8230
1926.41	8190
1927.4	8392
1928.39	8230
1929.38	8308
1930.37	8184
1931.36	8280
1932.35	8242
1933.34	8324
1934.33	8292
1935.32	8218
1936.31	8292
1937.3	8204
1938.29	8106
1939.28	8236
1940.27	8192
1941.26	8242
1942.24	8246
1943.23	8256
1944.22	8252
1945.21	8270
1946.2	8182
1947.19	8206
1948.17	8260
1949.16	8140
1950.15	8124
1951.14	8108
1952.13	8248
1953.11	8158
1954.1	8204
1955.09	8142
1956.07	8100
1957.06	8148
1958.05	8100
1959.03	8012
1960.02	8110
1961	8160
1961.99	8000
1962.98	7998
1963.96	8114
1964.95	8050
1965.93	8034
1966.92	7992
1967.9	8174
1968.89	8118
1969.87	7976
1970.85	8080
1971.84	8044
1972.82	8100
1973.81	8042
1974.79	8170
1975.78	8018
1976.76	7984
1977.74	7936
1978.73	8102
1979.71	8090
1980.69	8024
1981.67	7962
1982.66	7920
1983.64	7918
1984.62	7972
1985.6	7952
1986.59	8060
1987.57	8042
1988.55	7982
1989.53	7954
1990.51	7904
1991.49	7878
1992.47	7906
1993.45	7936
1994.44	7956
1995.42	7902
1996.4	7924
1997.38	7974
1998.36	7930
1999.34	7844
2000.32	7854
2001.3	7884
2002.28	8004
2003.26	7922
2004.24	7904
2005.22	7888
2006.19	7840
2007.17	7782
2008.15	7958
2009.13	7866
2010.11	7762
2011.09	7844
2012.06	7786
2013.04	7864
2014.02	7812
2015	7764
2015.98	7852
2016.95	7710
2017.93	7844
2018.91	7744
2019.88	7938
2020.86	7822
2021.84	7832
2022.81	7834
2023.79	7836
2024.77	7732
2025.74	7760
2026.72	7734
2027.69	7776
2028.67	7794
2029.65	7732
2030.62	7710
2031.6	7758
2032.57	7780
2033.55	7732
2034.52	7768
2035.5	7766
2036.47	7706
2037.44	7762
2038.42	7706
2039.39	7794
2040.36	7680
2041.34	7702
2042.31	7668
2043.29	7602
2044.26	7676
2045.23	7672
2046.2	7658
2047.18	7614
2048.15	7726
2049.12	7558
2050.09	7606
2051.07	7692
2052.04	7570
2053.01	7704
2053.98	7666
2054.95	7608
2055.93	7628
2056.9	7520
2057.87	7650
2058.84	7624
2059.81	7638
2060.78	7520
2061.75	7534
2062.72	7496
2063.69	7558
2064.66	7548
2065.63	7474
2066.6	7554
2067.57	7534
2068.54	7600
2069.51	7640
2070.48	7496
2071.45	7452
2072.42	7578
2073.38	7536
2074.35	7502
2075.32	7510
2076.29	7478
2077.26	7582
2078.23	7616
2079.19	7472
2080.16	7508
2081.13	7434
2082.1	7418
2083.06	7548
2084.03	7460
2085	7410
2085.96	7468
2086.93	7426
2087.9	7502
2088.86	7456
2089.83	7564
2090.8	7480
2091.76	7476
2092.73	7426
2093.69	7514
2094.66	7518
2095.62	7454
2096.59	7470
2097.55	7448
2098.52	7368
2099.48	7406
2100.45	7400
2101.41	7332
2102.38	7476
2103.34	7432
2104.31	7386
2105.27	7364
2106.23	7394
2107.2	7358
2108.16	7436
2109.12	7428
2110.09	7414
2111.05	7428
2112.01	7334
2112.98	7398
2113.94	7306
2114.9	7360
2115.86	7392
2116.82	7322
2117.79	7302
2118.75	7288
2119.71	7318
2120.67	7444
2121.63	7320
2122.59	7342
2123.55	7218
2124.52	7388
2125.48	7296
2126.44	7252
2127.4	7268
2128.36	7234
2129.32	7252
2130.28	7334
2131.24	7234
2132.2	7250
2133.16	7202
2134.12	7234
2135.08	7188
2136.04	7276
2136.99	7332
2137.95	7298
2138.91	7180
2139.87	7188
2140.83	7084
2141.79	7176
2142.75	7106
2143.7	7246
2144.66	7136
2145.62	7159.81
2146.58	7188.27
2147.53	7211.11
2148.49	7165.62
2149.45	7134.87
2150.41	7066.53
2151.36	7102.48
2152.32	7176.61
2153.28	7164.42
2154.23	7101.11
2155.19	7129.02
2156.14	7082.52
2157.1	7082.53
2158.06	7074.19
2159.01	7160.38
2159.97	7105.24
2160.92	7057.69
2161.88	7010.69
2162.83	7063.56
2163.79	6986.79
2164.74	7067.67
2165.7	7140.95
2166.65	6988.72
2167.61	7005.61
2168.56	6984.76
2169.51	6971.58
2170.47	7012.53
2171.42	7096.16
2172.38	7049.97
2173.33	6964.77
2174.28	7018
2175.24	6996.39
2176.19	6920.66
2177.14	6999.8
2178.09	6981.08
2179.05	6940.38
2180	6961.21
2180.95	6965.58
2181.9	6897.18
2182.86	6923.71
2183.81	6973.78
2184.76	6898.23
2185.71	6949.02
2186.66	6810.79
2187.61	6870.62
2188.57	6922.52
2189.52	6882.97
2190.47	6856.96
2191.42	6853.43
2192.37	6847.13
2193.32	6844
2194.27	6861.06
2195.22	6870.43
2196.17	6864.88
2197.12	6864.99
2198.07	6845.97
2199.02	6874.24
2199.97	6826.72
2200.92	6732.41
2201.87	6824.89
2202.82	6770.39
2203.76	6808.91
2204.71	6823.85
2205.66	6840.42
2206.61	6811.93
2207.56	6796.33
2208.51	6877.86
2209.45	6889.58
2210.4	6813.05
2211.35	6778.98
2212.3	6820.78
2213.25	6793.53
2214.19	6802.76
2215.14	6781.09
2216.09	6790.65
2217.03	6798.07
2217.98	6851.48
2218.93	6810.76
2219.87	6768.05
2220.82	6742.28
2221.77	6819.7
2222.71	6865.8
2223.66	6768.43
2224.6	6794.48
2225.55	6776.77
2226.49	6714.55
2227.44	6758
2228.38	6800.88
2229.33	6797.61
2230.27	6848.73
2231.22	6824.38
2232.16	6763.96
2233.11	6840.78
2234.05	6836.91
2235	6811.34
2235.94	6848.58
2236.88	6826.16
2237.83	6809.06
2238.77	6753.98
2239.72	6750.69
2240.66	6848.39
2241.6	6810.9
2242.07	6716
2243.02	6746
2243.97	6810
2244.92	6782
2245.87	6720
2246.81	6786
2247.76	6734
2248.71	6740
2249.65	6810
2250.6	6812
2251.55	6840
2252.49	6868
2253.44	6700
2254.39	6682
2255.33	6724
2256.28	6762
2257.22	6708
2258.17	6724
2259.12	6670
2260.06	6740
2261.01	6708
2261.95	6830
2262.9	6660
2263.84	6842
2264.78	6728
2265.73	6680
2266.67	6654
2267.62	6744
2268.56	6666
2269.51	6668
2270.45	6696
2271.39	6648
2272.34	6622
2273.28	6664
2274.22	6668
2275.17	6606
2276.11	6778
2277.05	6682
2277.99	6640
2278.94	6710
2279.88	6684
2280.82	6692
2281.76	6682
2282.71	6720
2283.65	6710
2284.59	6688
2285.53	6594
2286.47	6540
2287.41	6680
2288.35	6672
2289.3	6660
2290.24	6530
2291.18	6692
2292.12	6604
2293.06	6508
2294	6612
2294.94	6582
2295.88	6490
2296.82	6574
2297.76	6544
2298.7	6612
2299.64	6506
2300.58	6598
2301.52	6482
2302.46	6504
2303.39	6538
2304.33	6606
2305.27	6512
2306.21	6524
2307.15	6514
2308.09	6544
2309.02	6492
2309.96	6570
2310.9	6446
2311.84	6584
2312.77	6482
2313.71	6470
2314.65	6546
2315.59	6486
2316.52	6458
2317.46	6488
2318.4	6432
2319.33	6322
2320.27	6388
2321.21	6386
2322.14	6586
2323.08	6466
2324.01	6422
2324.95	6442
2325.89	6474
2326.82	6468
2327.76	6372
2328.69	6446
2329.63	6444
2330.56	6356
2331.5	6370
2332.43	6412
2333.36	6408
2334.3	6416
2335.23	6394
2336.17	6454
2337.1	6428
2338.03	6384
2338.97	6380
2339.9	6386
2340.83	6420
2341.77	6426
2342.7	6454
2343.63	6402
2344.57	6372
2345.5	6436
2346.43	6320
2347.36	6398
2348.3	6390
2349.23	6374
2350.16	6260
2351.09	6416
2352.02	6376
2352.95	6294
2353.89	6368
2354.82	6384
2355.75	6256
2356.68	6370
2357.61	6284
2358.54	6396
2359.47	6378
2360.4	6442
2361.33	6332
2362.26	6252
2363.19	6356
2364.12	6272
2365.05	6298
2365.98	6284
2366.91	6410
2367.84	6322
2368.77	6198
2369.7	6226
2370.63	6334
2371.56	6172
2372.48	6270
2373.41	6298
2374.34	6250
2375.27	6342
2376.2	6224
2377.12	6284
2378.05	6288
2378.98	6206
2379.91	6180
2380.84	6250
2381.76	6374
2382.69	6236
2383.62	6176
2384.54	6224
2385.47	6212
2386.4	6226
2387.32	6250
2388.25	6196
2389.18	6178
2390.1	6220
2391.03	6116
2391.95	6172
2392.88	6166
2393.8	6248
2394.73	6160
2395.65	6180
2396.58	6050
2397.5	6122
2398.43	6130
2399.35	6108
2400.28	6114
2401.2	6202
2402.13	6156
2403.05	6132
2403.97	6184
2404.9	6122
2405.82	6080
2406.75	6090
2407.67	6092
2408.59	6048
2409.51	6108
2410.44	6178
2411.36	6106
2412.28	6094
2413.21	6148
2414.13	6088
2415.05	6040
2415.97	6114
2416.9	6058
2417.82	6020
2418.74	6010
2419.66	6050
2420.58	6036
2421.5	5982
2422.42	5900
2423.35	6102
2424.27	6046
2425.19	6032
2426.11	5934
2427.03	5986
2427.95	5968
2428.87	5916
2429.79	5938
2430.71	5996
2431.63	5896
2432.55	5996
2433.47	6018
2434.39	5944
2435.31	5856
2436.23	5944
2437.14	5964
2438.06	5886
2438.98	5960
2439.9	5968
2440.82	5914
2441.74	5908
2442.66	5840
2443.57	5862
2444.49	5956
2445.41	5936
2446.33	5804
2447.24	5906
2448.16	5884
2449.08	5798
2450	5800
2450.91	5804
2451.83	5916
2452.75	5886
2453.66	5832
2454.58	5908
2455.5	5802
2456.41	5850
2457.33	5826
2458.24	5796
2459.16	5914
2460.08	5858
2460.99	5770
2461.91	5828
2462.82	5812
2463.74	5758
2464.65	5722
2465.57	5828
2466.48	5828
2467.4	5742
2468.31	5816
2469.22	5798
2470.14	5712
2471.05	5720
2471.97	5780
2472.88	5790
2473.79	5814
2474.71	5742
2475.62	5758
2476.53	5660
2477.45	5698
2478.36	5654
2479.27	5734
2480.19	5624
2481.1	5756
2482.01	5620
2482.92	5804
2483.83	5678
2484.75	5708
2485.66	5756
2486.57	5738
2487.48	5686
2488.39	5716
2489.3	5682
2490.22	5648
2491.13	5628
2492.04	5544
2492.95	5666
2493.86	5574
2494.77	5608
2495.68	5620
2496.59	5618
2497.5	5636
2498.41	5584
2499.32	5486
2500.23	5600
2501.14	5496
2502.05	5540
2502.96	5570
2503.87	5518
2504.78	5512
2505.68	5572
2506.59	5570
2507.5	5560
2508.41	5496
2509.32	5544
2510.23	5456
2511.14	5460
2512.04	5446
2512.95	5514
2513.86	5478
2514.77	5472
2515.67	5496
2516.58	5462
2517.49	5434
2518.39	5422
2519.3	5390
2520.21	5394
2521.11	5286
2522.02	5424
2522.93	5402
2523.83	5378
2524.74	5508
2525.65	5360
2526.55	5480
2527.46	5394
2528.36	5356
2529.27	5388
2530.17	5388
2531.08	5320
2531.98	5350
2532.89	5330
2533.79	5376
2534.7	5312
2535.6	5374
2536.51	5418
2537.41	5338
2538.32	5318
2539.22	5346
2540.12	5262
2541.03	5320
2541.93	5260
2542.83	5430
2543.74	5284
2544.64	5322
2545.54	5290
2546.45	5174
2547.35	5228
2548.25	5294
2549.15	5230
2550.06	5382
2550.96	5236
2551.86	5276
2552.76	5306
2553.66	5228
2554.56	5188
2555.47	5256
2556.37	5216
2557.27	5214
2558.17	5176
2559.07	5074
2559.97	5236
2560.87	5166
2561.77	5180
2562.67	5272
2563.58	5214
2564.47	5174
2565.38	5144
2566.27	5116
2567.18	5148
2568.07	5252
2568.97	5116
2569.87	5150
2570.77	5112
2571.67	5106
2572.57	5086
2573.47	5126
2574.37	5100
2575.27	5052
2576.17	5060
2577.06	5054
2577.96	5070
2578.86	5054
2579.76	5014
2580.66	5124
2581.55	5040
2582.45	5094
2583.35	5008
2584.25	5004
2585.14	5082
2586.04	4988
2586.94	5128
2587.83	5042
2588.73	4974
2589.63	5012
2590.52	4904
2591.42	4984
2592.32	4972
2593.21	4882
2594.11	5012
2595	4982
2595.9	4992
2596.8	4884
2597.69	4910
2598.59	4856
2599.48	4936
2600.38	4984
2601.27	4958
2602.17	4888
2603.06	4950
2603.95	4976
2604.85	4906
2605.74	4848
2606.64	4846
2607.53	4918
2608.42	4826
2609.32	4846
2610.21	4902
2611.1	4862
2612	4850
2612.89	4838
2613.78	4846
2614.68	4800
2615.57	4788
2616.46	4840
2617.36	4814
2618.25	4848
2619.14	4786
2620.03	4824
2620.92	4774
2621.82	4778
2622.71	4714
2623.6	4760
2624.49	4786
2625.38	4754
2626.27	4832
2627.16	4692
2628.05	4834
2628.95	4818
2629.84	4752
2630.73	4734
2631.62	4752
2632.51	4800
2633.4	4784
2634.29	4610
2635.18	4696
2636.07	4654
2636.96	4712
2637.85	4720
2638.74	4650
2639.62	4722
2640.51	4730
2641.4	4754
2642.29	4656
2643.18	4672
2644.07	4624
2644.96	4550
2645.85	4664
2646.73	4640
2647.62	4566
2648.51	4560
2649.4	4646
2650.28	4582
2651.17	4508
2652.06	4576
2652.95	4504
2653.83	4534
2654.72	4570
2655.61	4504
2656.5	4526
2657.38	4584
2658.27	4540
2659.15	4462
2660.04	4566
2660.93	4496
2661.81	4486
2662.7	4492
2663.58	4552
2664.47	4528
2665.35	4556
2666.24	4566
2667.13	4512
2668.01	4470
2668.9	4604
2669.78	4552
2670.66	4474
2671.55	4450
2672.43	4488
2673.32	4416
2674.2	4520
2675.09	4452
2675.97	4402
2676.85	4422
2677.74	4488
2678.62	4524
2679.5	4414
2680.39	4386
2681.27	4382
2682.15	4430
2683.04	4344
2683.92	4468
2684.8	4390
2685.68	4472
2686.57	4348
2687.45	4404
2688.33	4338
2689.21	4398
2690.09	4390
2690.98	4354
2691.86	4388
2692.74	4350
2693.62	4424
2694.5	4308
2695.38	4292
2696.26	4334
2697.15	4302
2698.03	4254
2698.91	4284
2699.79	4340
2700.67	4324
2701.55	4250
2702.43	4364
2703.31	4314
2704.19	4312
2705.07	4264
2705.95	4284
2706.83	4246
2707.7	4258
2708.58	4260
2709.46	4270
2710.34	4292
2711.22	4232
2712.1	4246
2712.98	4220
2713.86	4234
2714.73	4162
2715.61	4184
2716.49	4216
2717.37	4170
2718.25	4212
2719.12	4246
2720	4214
2720.88	4204
2721.76	4196
2722.63	4202
2723.51	4152
2724.39	4120
2725.26	4168
2726.14	4158
2727.02	4142
2727.89	4126
2728.77	4134
2729.64	4050
2730.52	4096
2731.4	4150
2732.27	4048
2733.15	4076
2734.02	4084
2734.9	4104
2735.77	4076
2736.65	4064
2737.52	4116
2738.4	3992
2739.27	4114
2740.15	4026
2741.02	4016
2741.9	4044
2742.77	3970
2743.64	4034
2744.52	4064
2745.39	4036
2746.27	3952
2747.14	3990
2748.01	4046
2748.89	3982
2749.76	4012
2750.63	3978
2751.51	3972
2752.38	3964
2753.25	3938
2754.12	4004
2755	3942
2755.87	3846
2756.74	3984
2757.61	4016
2758.48	3918
2759.35	3956
2760.23	3834
2761.1	3924
2761.97	3936
2762.84	3902
2763.71	3860
2764.58	3820
2765.45	3860
2766.32	3878
2767.19	3894
2768.07	3854
2768.94	3872
2769.81	3784
2770.68	3810
2771.55	3884
2772.42	3848
2773.29	3862
2774.16	3868
2775.02	3836
2775.89	3820
2776.76	3788
2777.63	3834
2778.5	3828
2779.37	3768
2780.24	3798
2781.11	3764
2781.98	3746
2782.84	3766
2783.71	3802
2784.58	3758
2785.45	3760
2786.32	3780
2787.18	3700
2788.05	3796
2788.92	3814
2789.79	3740
2790.65	3790
2791.52	3754
2792.39	3760
2793.25	3720
2794.12	3732
2794.99	3704
2795.85	3764
2796.72	3672
2797.59	3790
2798.45	3726
2799.32	3768
2800.18	3676
2801.05	3666
2801.92	3674
2802.78	3674
2803.65	3660
2804.51	3646
2805.38	3624
2806.24	3626
2807.11	3654
2807.97	3656
2808.84	3620
2809.7	3616
2810.57	3692
2811.43	3608
2812.29	3658
2813.16	3648
2814.02	3550
2814.88	3628
2815.75	3586
2816.61	3570
2817.47	3560
2818.34	3648
2819.2	3514
2820.06	3602
2820.93	3494
2821.79	3608
2822.65	3558
2823.51	3542
2824.38	3584
2825.24	3448
2826.1	3544
2826.96	3570
2827.82	3630
2828.69	3528
2829.55	3534
2830.41	3540
2831.27	3524
2832.13	3476
2832.99	3510
2833.85	3454
2834.71	3476
2835.57	3528
2836.44	3406
2837.3	3446
2838.16	3462
2839.02	3392
2839.88	3442
2840.74	3436
2841.6	3426
2842.46	3422
2843.32	3430
2844.18	3386
2845.03	3426
2845.89	3408
2846.75	3488
2847.61	3370
2848.47	3418
2849.33	3398
2850.19	3380
2851.05	3336
2851.9	3406
2852.76	3372
2853.62	3384
2854.48	3330
2855.34	3336
2856.19	3328
2857.05	3334
2857.91	3322
2858.77	3332
2859.62	3302
2860.48	3336
2861.34	3352
2862.19	3274
2863.05	3338
2863.91	3226
2864.76	3280
2865.62	3236
2866.48	3302
2867.33	3278
2868.19	3336
2869.04	3238
2869.9	3254
2870.76	3274
2871.61	3314
2872.47	3282
2873.32	3246
2874.18	3272
2875.03	3272
2875.89	3218
2876.74	3234
2877.6	3260
2878.45	3204
2879.31	3208
2880.16	3222
2881.01	3176
2881.87	3224
2882.72	3234
2883.58	3208
2884.43	3150
2885.28	3220
2886.14	3162
2886.99	3160
2887.84	3178
2888.7	3188
2889.55	3182
2890.4	3156
2891.25	3202
2892.11	3180
2892.96	3144
2893.81	3182
2894.66	3138
2895.52	3150
2896.37	3186
2897.22	3052
2898.07	3072
2898.92	3086
2899.77	3146
2900.62	3132
2901.48	3170
2902.33	3126
2903.18	3112
2904.03	3078
2904.88	3042
2905.73	3112
2906.58	3044
2907.43	3110
2908.28	3112
2909.13	3050
2909.98	3086
2910.83	3020
2911.68	3068
2912.53	3064
2913.38	2988
2914.23	3056
2915.08	3056
2915.93	3066
2916.78	3018
2917.63	3044
2918.47	3094
2919.32	3022
2920.17	3056
2921.02	3082
2921.87	3064
2922.72	3044
2923.56	2998
2924.41	2968
2925.26	3030
2926.11	3014
2926.95	3026
2927.8	2924
2928.65	3002
2929.5	3024
2930.34	3046
2931.19	3012
2932.04	3058
2932.88	3016
2933.73	2986
2934.58	2980
2935.42	2912
2936.27	2930
2937.11	2970
2937.96	2938
2938.81	2982
2939.65	2958
2940.5	3000
2941.34	2924
2942.19	2980
2943.03	2962
2943.88	2902
2944.72	2906
2945.57	2882
2946.41	2958
2947.26	2930
2948.1	2864
2948.95	2936
2949.79	2894
2950.64	2924
2951.48	2912
2952.32	2902
2953.17	2864
2954.01	2890
2954.85	2868
2955.7	2904
2956.54	2846
2957.38	2904
2958.23	2822
2959.07	2856
2959.91	2896
2960.75	2878
2961.6	2862
2962.44	2878
2963.28	2908
2964.12	2882
2964.97	2838
2965.81	2816
2966.65	2848
2967.49	2788
2968.33	2800
2969.17	2836
2970.02	2826
2970.86	2788
2971.7	2788
2972.54	2792
2973.38	2802
2974.22	2780
2975.06	2730
2975.9	2764
2976.74	2832
2977.58	2734
2978.42	2854
2979.26	2796
2980.1	2718
2980.94	2736
2981.78	2774
2982.62	2706
2983.46	2748
2984.3	2686
2985.14	2704
2985.98	2782
2986.82	2718
2987.66	2690
2988.49	2782
2989.33	2672
2990.17	2766
2991.01	2720
2991.85	2662
2992.69	2772
2993.52	2718
2994.36	2734
2995.2	2684
2996.04	2680
2996.87	2702
2997.71	2690
2998.55	2696
2999.39	2646
