#Acq. time (s)=	10
#Accumulations=	1
#Range (cm-¹)=	100...3000
#Windows=	3
#Autofocus=	Off
#AutoExposure=	Off
#Spike filter=	Off
#Delay time (s)=	0
#Binning=	1
#Readout mode=	Signal
#DeNoise=	Off
#ICS correction=	Off
#Dark correction=	Off
#Inst. Process=	Off
#Instrument=	LabRAM HR Evol
#Detector=	Syncerity OE
#Objective=	x100_VIS
#Grating=	600 (500nm)
#ND Filter=	3.2%
#Laser=	633nm_Edge
#Hole=	100.021
#Range=	Visible
#Project=	Omar
#Sample=	26-06-23
#Site=	2
#Title=	Organic
#Remark=	
#Date=	26.06.2023 16:17
#Acquired=	26.06.2023 16:17:54
101.018	4328
102.302	4252
103.586	4332
104.869	4354
106.152	4302
107.435	4408
108.717	4374
109.999	4414
111.281	4358
112.563	4398
113.845	4458
115.126	4336
116.407	4414
117.688	4420
118.969	4412
120.249	4520
121.53	4516
122.81	4384
124.09	4466
125.369	4452
126.649	4478
127.928	4542
129.207	4522
130.486	4504
131.765	4534
133.043	4508
134.321	4576
135.599	4592
136.877	4612
138.155	4526
139.432	4548
140.708	4574
141.985	4658
143.261	4598
144.538	4594
145.814	4560
147.09	4526
148.366	4558
149.641	4610
150.916	4682
152.191	4662
153.466	4608
154.741	4662
156.016	4706
157.289	4620
158.563	4642
159.837	4664
161.111	4634
162.385	4788
163.657	4656
164.93	4722
166.203	4740
167.476	4780
168.747	4764
170.019	4796
171.291	4806
172.562	4818
173.834	4768
175.105	4782
176.377	4778
177.646	4794
178.917	4780
180.188	4756
181.457	4892
182.727	4754
183.996	4852
185.266	4704
186.536	4760
187.804	4852
189.073	4786
190.342	4864
191.609	4834
192.878	4906
194.145	4950
195.413	4934
196.681	4900
197.948	4918
199.215	4996
200.481	4834
201.749	4960
203.014	5026
204.281	5016
205.546	4940
206.813	4964
208.077	5038
209.343	4940
210.608	5014
211.873	4966
213.137	5058
214.402	4984
215.666	4968
216.93	5150
218.194	5050
219.458	5120
220.721	5058
221.983	5126
223.247	5062
224.509	5122
225.772	5168
227.034	5144
228.295	5206
229.558	5198
230.819	5264
232.081	5276
233.342	5172
234.602	5234
235.864	5294
237.124	5234
238.384	5316
239.645	5194
240.904	5366
242.164	5314
243.423	5388
244.683	5430
245.941	5296
247.2	5414
248.46	5332
249.717	5418
250.975	5470
252.233	5404
253.492	5400
254.749	5352
256.006	5326
257.263	5398
258.519	5370
259.777	5344
261.033	5384
262.289	5482
263.545	5342
264.8	5370
266.057	5342
267.312	5440
268.567	5322
269.822	5318
271.076	5412
272.331	5434
273.585	5392
274.839	5478
276.094	5438
277.347	5440
278.601	5570
279.854	5476
281.107	5502
282.359	5466
283.612	5572
284.864	5494
286.116	5500
287.368	5544
288.62	5572
289.871	5572
291.123	5486
292.374	5574
293.625	5666
294.875	5522
296.126	5636
297.376	5614
298.626	5686
299.876	5698
301.126	5710
302.375	5670
303.625	5740
304.874	5750
306.122	5820
307.371	5738
308.62	5800
309.866	5872
311.114	5780
312.362	5824
313.61	5882
314.857	5876
316.105	5894
317.352	5814
318.599	5800
319.844	5818
321.09	5954
322.337	5900
323.583	5894
324.828	5914
326.073	5932
327.318	5886
328.563	5934
329.808	5928
331.053	5818
332.296	5962
333.541	6006
334.785	5932
336.029	5962
337.272	5938
338.515	6030
339.759	5972
341.001	5950
342.244	5974
343.486	6070
344.728	6022
345.97	6058
347.212	6068
348.453	5994
349.695	6046
350.936	6182
352.176	6216
353.418	6112
354.659	6176
355.898	6150
357.139	6064
358.378	6188
359.618	6140
360.858	6142
362.097	6240
363.336	6158
364.574	6208
365.813	6216
367.051	6178
368.29	6096
369.527	6212
370.766	6148
372.002	6240
373.241	6146
374.477	6292
375.715	6310
376.951	6236
378.188	6244
379.424	6304
380.66	6182
381.896	6286
383.132	6282
384.367	6344
385.603	6252
386.838	6284
388.072	6394
389.307	6280
390.541	6260
391.776	6272
393.01	6316
394.243	6364
395.477	6322
396.71	6336
397.943	6420
399.177	6422
400.409	6390
401.641	6392
402.875	6360
404.106	6506
405.338	6358
406.57	6512
407.802	6584
409.032	6556
410.263	6426
411.495	6624
412.725	6508
413.955	6638
415.185	6730
416.417	6622
417.646	6618
418.875	6674
420.104	6626
421.335	6804
422.564	6864
423.792	6804
425.02	6742
426.249	6784
427.477	6848
428.706	6898
429.933	6912
431.161	6872
432.388	6946
433.615	6810
434.841	6940
436.068	6930
437.294	6994
438.522	6968
439.748	6908
440.974	6998
442.199	6992
443.425	6950
444.65	6882
445.875	7020
447.1	6992
448.324	6970
449.549	6922
450.773	6964
451.997	6926
453.221	7038
454.445	7022
455.668	6988
456.891	7004
458.114	6944
459.337	6954
460.56	6932
461.782	7030
463.005	7054
464.227	7224
465.447	7044
466.669	7066
467.89	7056
469.112	7010
470.333	7136
471.554	7238
472.774	7064
473.995	7184
475.214	7146
476.434	7228
477.654	7194
478.874	7262
480.093	7284
481.312	7282
482.53	7190
483.749	7214
484.968	7296
486.186	7306
487.405	7300
488.622	7318
489.84	7270
491.057	7422
492.275	7288
493.491	7434
494.708	7400
495.925	7380
497.141	7414
498.357	7360
499.574	7434
500.789	7426
502.005	7548
503.221	7418
504.435	7446
505.65	7570
506.866	7558
508.079	7538
509.294	7568
510.509	7646
511.722	7494
512.936	7576
514.149	7622
515.363	7620
516.577	7586
517.789	7634
519.002	7640
520.214	7620
521.427	7672
522.638	7662
523.851	7588
525.062	7660
526.274	7712
527.485	7608
528.697	7668
529.907	7646
531.118	7740
532.328	7718
533.539	7668
534.748	7710
535.959	7742
537.168	7796
538.379	7706
539.587	7738
540.796	7780
542.005	7650
543.214	7810
544.423	7768
545.631	7736
546.838	7762
548.047	7880
549.254	7906
550.461	7884
551.669	7882
552.876	7818
554.082	7860
555.29	7964
556.496	7960
557.701	8010
558.909	8056
560.114	7864
561.319	7878
562.524	8064
563.731	8006
564.935	8066
566.14	8076
567.344	8010
568.549	8128
569.753	8102
570.957	8106
572.161	8096
573.364	8116
574.568	8172
575.771	8126
576.974	8216
578.177	8216
579.379	8202
580.581	8190
581.785	8146
582.987	8130
584.188	8202
585.39	8224
586.591	8366
587.792	8368
588.993	8332
590.193	8312
591.394	8340
592.594	8360
593.796	8428
594.996	8512
596.195	8314
597.395	8522
598.594	8498
599.793	8390
600.992	8472
602.191	8552
603.39	8480
604.588	8470
605.786	8548
606.984	8618
608.181	8700
609.378	8736
610.576	8686
611.773	8786
612.97	8822
614.167	8822
615.364	8782
616.56	8794
617.757	8772
618.953	8756
620.149	8952
621.343	8970
622.539	8906
623.734	9030
624.929	9044
626.124	9026
627.319	9056
628.512	9236
629.707	9080
630.901	9170
632.095	9214
633.289	9226
634.481	9166
635.675	9336
636.868	9248
638.061	9394
639.253	9320
640.446	9278
641.638	9434
642.831	9412
644.021	9364
645.213	9506
646.405	9506
647.595	9430
648.787	9582
649.978	9596
651.168	9588
652.359	9772
653.549	9662
654.738	9726
655.929	9648
657.117	9690
658.307	9610
659.497	9764
660.685	9714
661.875	9722
663.063	9770
664.252	9926
665.439	9866
666.628	9790
667.816	9724
669.003	9862
670.191	9844
671.378	9974
672.565	9900
673.751	9972
674.939	9982
676.124	9818
677.311	10056
678.497	10064
679.682	10070
680.868	10064
682.053	10098
683.239	10036
684.424	10118
685.609	10220
686.793	10230
687.977	10128
689.162	10226
690.346	10254
691.529	10100
692.714	10384
693.897	10232
695.081	10398
696.264	10440
697.446	10428
698.63	10446
699.812	10536
700.993	10384
702.175	10582
703.358	10456
704.539	10592
705.72	10648
706.901	10780
708.083	10644
709.264	10790
710.444	10752
711.625	10712
712.806	10722
713.986	10710
715.165	10814
716.345	10784
717.524	10882
718.705	10936
719.884	10962
721.062	10896
722.241	11006
723.419	11114
724.597	11028
725.775	11126
726.954	11144
728.132	11176
729.31	11268
730.487	11340
731.664	11206
732.841	11272
734.017	11384
735.194	11344
736.37	11368
737.546	11460
738.722	11536
739.898	11540
741.074	11584
742.249	11460
743.424	11566
744.599	11642
745.774	11754
746.949	11866
748.123	11622
749.298	11786
750.472	11602
751.646	11670
752.819	11812
753.993	11858
755.166	11968
756.34	11920
757.511	11856
758.684	11850
759.857	12004
761.029	11914
762.202	12066
763.374	12068
764.546	12154
765.716	12192
766.888	12164
768.059	12330
769.23	12268
770.401	12340
771.571	12392
772.741	12382
773.912	12266
775.082	12440
776.251	12518
777.421	12314
778.59	12362
779.76	12528
780.928	12566
782.097	12520
783.266	12652
784.434	12654
785.602	12688
786.771	12716
787.938	12762
789.106	12800
790.274	12806
791.44	12780
792.608	13084
793.775	12972
794.941	12960
796.108	13110
797.273	13070
798.44	13178
799.606	13238
800.771	13182
801.937	13252
803.102	13344
804.268	13264
805.432	13288
806.597	13340
807.761	13460
808.926	13528
810.09	13416
811.254	13794
812.417	13662
813.582	13608
814.744	13716
815.908	13836
817.071	13754
818.234	13974
819.396	14036
820.558	14038
821.721	13910
822.883	14120
824.045	14144
825.206	14132
826.367	14214
827.529	14364
828.69	14504
829.85	14282
831.012	14516
832.172	14516
833.332	14434
834.493	14598
835.653	14542
836.812	14626
837.972	14738
839.131	14842
840.29	14992
841.449	14936
842.609	15020
843.767	15106
844.925	15004
846.083	15122
847.242	15088
848.399	15142
849.557	15350
850.714	15140
851.871	15236
853.029	15406
854.186	15468
855.342	15500
856.498	15502
857.654	15500
858.81	15576
859.966	15688
861.122	15814
862.278	15606
863.434	15814
864.589	15708
865.744	15724
866.898	16100
868.053	16008
869.207	15962
870.361	16000
871.515	16168
872.669	16116
873.822	16050
874.976	16284
876.129	16264
877.282	16264
878.435	16208
879.588	16344
880.74	16500
881.893	16590
883.045	16474
884.197	16604
885.349	16694
886.5	16612
887.652	16744
888.802	16588
889.953	16648
891.104	16668
892.254	16830
893.405	16674
894.555	16976
895.706	16914
896.854	16698
898.004	16936
899.154	17112
900.303	16986
901.453	17276
902.6	17124
903.749	16916
904.898	17186
906.047	17202
907.194	17328
908.342	17240
909.49	17354
910.638	17276
911.785	17452
912.932	17496
914.08	17568
915.225	17510
916.372	17560
917.519	17674
918.666	17772
919.811	17928
920.957	17804
922.102	17744
923.248	17902
924.394	17914
925.538	17944
926.684	17972
927.828	18086
928.973	18206
930.118	18070
931.261	18282
932.406	18090
933.549	18324
934.693	18194
935.836	18466
936.979	18504
938.122	18612
939.265	18646
940.407	18660
941.55	18780
942.692	18856
943.835	18938
944.976	18886
946.118	19222
947.259	19080
948.401	19228
949.542	19214
950.682	19208
951.824	19334
952.964	19398
954.105	19374
955.245	19506
956.385	19534
957.525	19666
958.664	19428
959.803	19704
960.944	19724
962.082	19634
963.221	19924
964.36	19772
965.498	19988
966.636	19966
967.774	20032
968.913	20036
970.051	20016
971.188	20138
972.325	20260
973.463	20360
974.6	20146
975.736	20418
976.873	20422
978.009	20328
979.146	20578
980.282	20518
981.418	20568
982.554	20548
983.689	20564
984.824	20720
985.959	20762
987.095	20918
988.23	20916
989.364	20770
990.499	20844
991.633	20852
992.767	20872
993.9	20992
995.034	21188
996.167	20950
997.301	21116
998.434	21300
999.567	21192
1000.7	21270
1001.83	21248
1002.96	21590
1004.1	21204
1005.23	21604
1006.36	21578
1007.49	21410
1008.62	21718
1009.76	21580
1010.89	21540
1012.02	21934
1013.15	21798
1014.28	21736
1015.41	21914
1016.54	21858
1017.67	22128
1018.8	22102
1019.93	21990
1021.06	22154
1022.19	22202
1023.32	22188
1024.44	22334
1025.57	22400
1026.7	22504
1027.83	22492
1028.96	22668
1030.09	22566
1031.21	22756
1032.34	22692
1033.47	22758
1034.6	22886
1035.72	22960
1036.85	23028
1037.98	23036
1039.1	23066
1040.23	22928
1041.35	23146
1042.48	23134
1043.61	23284
1044.73	23228
1045.86	23288
1046.98	23400
1048.11	23462
1049.23	23608
1050.36	23386
1051.48	23660
1052.61	23728
1053.73	23768
1054.85	23808
1055.98	23824
1057.1	23746
1058.22	23738
1059.35	23986
1060.47	23920
1061.59	23962
1062.72	23984
1063.84	24060
1064.96	24078
1066.08	24170
1067.2	24152
1068.33	24042
1069.45	24254
1070.57	23994
1071.69	24054
1072.81	24210
1073.93	24316
1075.05	24202
1076.17	24240
1077.29	24278
1078.41	24232
1079.53	24284
1080.65	24390
1081.77	24458
1082.89	24422
1084.01	24528
1085.13	24500
1086.25	24600
1087.37	24300
1088.48	24484
1089.6	24302
1090.72	24640
1091.84	24308
1092.96	24332
1094.07	24536
1095.19	24486
1096.31	24386
1097.43	24476
1098.54	24514
1099.66	24526
1100.78	24564
1101.89	24364
1103.01	24760
1104.12	24368
1105.24	24528
1106.35	24534
1107.47	24536
1108.59	24520
1109.7	24460
1110.81	24504
1111.93	24612
1113.04	24570
1114.16	24610
1115.27	24680
1116.39	24666
1117.5	24826
1118.61	24734
1119.73	24670
1120.84	24828
1121.95	24466
1123.06	24502
1124.18	24554
1125.29	24652
1126.4	24640
1127.51	24758
1128.63	24912
1129.74	24972
1130.85	24808
1131.96	24860
1133.07	25040
1134.18	24702
1135.29	25010
1136.4	24798
1137.51	25106
1138.62	25028
1139.73	24960
1140.84	24960
1141.95	25056
1143.06	25006
1144.17	25036
1145.28	25114
1146.39	25110
1147.5	24996
1148.61	25108
1149.72	25264
1150.82	25318
1151.93	25234
1153.04	25216
1154.15	25104
1155.26	25254
1156.36	25064
1157.47	25184
1158.58	25198
1159.68	25180
1160.79	25268
1161.9	25176
1163	25198
1164.11	25096
1165.22	25138
1166.32	24990
1167.43	25182
1168.53	25034
1169.64	25230
1170.74	25088
1171.85	24998
1172.95	25062
1174.06	24948
1175.16	25028
1176.26	24964
1177.37	25038
1178.47	24964
1179.58	24784
1180.68	24520
1181.78	25074
1182.88	24950
1183.99	24834
1185.09	24866
1186.19	24696
1187.3	24718
1188.4	24616
1189.5	24606
1190.6	24396
1191.7	24530
1192.8	24560
1193.9	24430
1195.01	24260
1196.11	24303.2
1197.21	24280.4
1198.31	24152.8
1199.41	24148.7
1200.51	24138.1
1201.61	24034.3
1202.71	24142
1203.81	24125.6
1204.91	23890
1206.01	23719.3
1207.11	24074.2
1208.2	23939.5
1209.3	23633.7
1210.4	23797.2
1211.5	23692.4
1212.6	23655.7
1213.7	23549.7
1214.8	23520.9
1215.89	23609
1216.99	23646.6
1218.09	23399.1
1219.18	23557.6
1220.28	23315.2
1221.38	23363.5
1222.48	23338.9
1223.57	23231.1
1224.67	23235.4
1225.76	23135.7
1226.86	23113.4
1227.96	23102.9
1229.05	22978
1230.15	23198.3
1231.24	22978.2
1232.34	22890.7
1233.43	22836.9
1234.53	22881.1
1235.62	22778.1
1236.71	22937
1237.81	22913.1
1238.9	22807.5
1240	22711.2
1241.09	22550.2
1242.18	22582.7
1243.28	22657.4
1244.37	22481.9
1245.46	22471.6
1246.56	22565.6
1247.65	22405.5
1248.74	22309.4
1249.83	22424.7
1250.93	22497.5
1252.02	22370.4
1253.11	22239.8
1254.2	22217.3
1255.29	22255.8
1256.38	22173.8
1257.47	22164.2
1258.56	22092.8
1259.65	22142.1
1260.74	22071.9
1261.84	21986.3
1262.92	22016.4
1264.01	22018.7
1265.1	21905.4
1266.19	21930.8
1267.28	21893.5
1268.37	21817.8
1269.46	21750.5
1270.55	21665.2
1271.64	21679.5
1272.73	21631.3
1273.82	21577.8
1274.9	21568.9
1275.99	21675.7
1277.08	21555.1
1278.17	21496.7
1279.26	21365.2
1280.34	21349.1
1281.43	21322.5
1282.52	21392.2
1283.6	21223
1284.69	21151.8
1285.78	21062.3
1286.86	21139.9
1287.95	21227.3
1289.03	21094.9
1290.12	20928.8
1291.21	20850.9
1292.29	20953.3
1293.38	20933.2
1294.46	20919.2
1295.55	20891.2
1296.63	20690.9
1297.71	20648.5
1298.8	20582.2
1299.88	20762.8
1300.97	20690.3
1302.05	20705.6
1303.13	20538.3
1304.22	20410.2
1305.3	20352
1306.38	20371.6
1307.34	20234
1308.43	20382
1309.52	20192
1310.61	20136
1311.7	20008
1312.78	20120
1313.87	20008
1314.96	19878
1316.05	19914
1317.13	19764
1318.22	19840
1319.3	19554
1320.39	19600
1321.48	19430
1322.56	19424
1323.65	19470
1324.73	19528
1325.82	19432
1326.9	19302
1327.99	19250
1329.07	19168
1330.16	19182
1331.24	19106
1332.33	19066
1333.41	18868
1334.5	18838
1335.58	19010
1336.66	18870
1337.75	18744
1338.83	18908
1339.91	18634
1341	18610
1342.08	18672
1343.16	18570
1344.25	18418
1345.33	18328
1346.41	18382
1347.49	18272
1348.57	18294
1349.65	18262
1350.74	18240
1351.82	18282
1352.9	18140
1353.98	18044
1355.06	18048
1356.14	17940
1357.22	17756
1358.3	17806
1359.38	17766
1360.46	17774
1361.54	17754
1362.62	17728
1363.7	17668
1364.78	17478
1365.86	17550
1366.94	17362
1368.02	17504
1369.09	17388
1370.17	17438
1371.25	17332
1372.33	17336
1373.41	17244
1374.48	17068
1375.56	17042
1376.64	17104
1377.72	17008
1378.79	16908
1379.87	17064
1380.95	17026
1382.02	16942
1383.1	16850
1384.17	16840
1385.25	16888
1386.33	16706
1387.4	16946
1388.48	16716
1389.55	16718
1390.63	16574
1391.7	16636
1392.78	16596
1393.85	16454
1394.93	16308
1396	16240
1397.07	16298
1398.15	16494
1399.22	16256
1400.3	16214
1401.37	16154
1402.44	16120
1403.52	16184
1404.59	16064
1405.66	16192
1406.73	16080
1407.81	15998
1408.88	15758
1409.95	15992
1411.02	15958
1412.09	15944
1413.17	15766
1414.24	15734
1415.31	15738
1416.38	15640
1417.45	15656
1418.52	15644
1419.59	15496
1420.66	15564
1421.73	15702
1422.8	15468
1423.87	15590
1424.94	15428
1426.01	15432
1427.08	15496
1428.15	15348
1429.22	15180
1430.29	15360
1431.35	15352
1432.42	15440
1433.49	15122
1434.56	15120
1435.63	15216
1436.7	15306
1437.76	15280
1438.83	15126
1439.9	15226
1440.96	15044
1442.03	14998
1443.1	15046
1444.17	14998
1445.23	14858
1446.3	14882
1447.36	14956
1448.43	14984
1449.49	14790
1450.56	14860
1451.63	14830
1452.69	14796
1453.76	14912
1454.82	14546
1455.89	14614
1456.95	14848
1458.01	14714
1459.08	14624
1460.14	14680
1461.21	14666
1462.27	14620
1463.34	14714
1464.4	14514
1465.46	14508
1466.52	14504
1467.59	14500
1468.65	14488
1469.71	14494
1470.77	14378
1471.84	14338
1472.9	14358
1473.96	14334
1475.02	14358
1476.08	14210
1477.15	14162
1478.21	14326
1479.27	14376
1480.33	14278
1481.39	14126
1482.45	14162
1483.51	14166
1484.57	14208
1485.63	14070
1486.69	13936
1487.75	14078
1488.81	14046
1489.87	14142
1490.93	14068
1491.99	13820
1493.05	13942
1494.1	13958
1495.16	13924
1496.22	13886
1497.28	13912
1498.34	13864
1499.4	13794
1500.45	13876
1501.51	13702
1502.57	13944
1503.63	13812
1504.68	13740
1505.74	13756
1506.8	13652
1507.85	13638
1508.91	13670
1509.97	13612
1511.02	13600
1512.08	13470
1513.13	13378
1514.19	13512
1515.24	13490
1516.3	13568
1517.35	13356
1518.41	13404
1519.46	13330
1520.52	13464
1521.57	13356
1522.63	13252
1523.68	13294
1524.73	13256
1525.79	13258
1526.84	13266
1527.9	13248
1528.95	13142
1530	13044
1531.06	13104
1532.11	13076
1533.16	13058
1534.21	13060
1535.26	13042
1536.32	13032
1537.37	12982
1538.42	12886
1539.47	12848
1540.52	12792
1541.57	12960
1542.63	12808
1543.68	12756
1544.73	12828
1545.78	12668
1546.83	12816
1547.88	12696
1548.93	12788
1549.98	12614
1551.03	12800
1552.08	12760
1553.13	12576
1554.18	12642
1555.23	12660
1556.27	12588
1557.32	12524
1558.37	12438
1559.42	12482
1560.47	12546
1561.52	12550
1562.56	12478
1563.61	12504
1564.66	12406
1565.71	12388
1566.75	12504
1567.8	12422
1568.85	12290
1569.9	12470
1570.94	12320
1571.99	12418
1573.03	12414
1574.08	12346
1575.13	12288
1576.17	12428
1577.22	12250
1578.26	12328
1579.31	12408
1580.35	12288
1581.4	12138
1582.44	12226
1583.49	12256
1584.53	12284
1585.58	12132
1586.62	12172
1587.66	12168
1588.71	12212
1589.75	12104
1590.8	12032
1591.84	11984
1592.88	12048
1593.93	12000
1594.97	11986
1596.01	11998
1597.05	12048
1598.1	12132
1599.14	12080
1600.18	12072
1601.22	11986
1602.26	12042
1603.31	12080
1604.35	12044
1605.39	12030
1606.43	12028
1607.47	12072
1608.51	12064
1609.55	11986
1610.59	12010
1611.63	12010
1612.67	11966
1613.71	11952
1614.75	11958
1615.79	11974
1616.83	11960
1617.87	12002
1618.91	11988
1619.95	11864
1620.99	11896
1622.02	11818
1623.06	11972
1624.1	11806
1625.14	11866
1626.18	11808
1627.21	11826
1628.25	11844
1629.29	11738
1630.33	11738
1631.36	11824
1632.4	11736
1633.44	11652
1634.48	11822
1635.51	11738
1636.55	11872
1637.58	11650
1638.62	11678
1639.66	11742
1640.69	11776
1641.73	11696
1642.76	11566
1643.8	11600
1644.83	11444
1645.87	11588
1646.9	11590
1647.94	11664
1648.97	11556
1650	11476
1651.04	11582
1652.07	11438
1653.11	11522
1654.14	11514
1655.17	11516
1656.21	11476
1657.24	11432
1658.27	11482
1659.31	11394
1660.34	11536
1661.37	11288
1662.4	11276
1663.43	11376
1664.47	11230
1665.5	11390
1666.53	11326
1667.56	11270
1668.59	11352
1669.62	11250
1670.66	11234
1671.69	11300
1672.72	11150
1673.75	11230
1674.78	11094
1675.81	11172
1676.84	11246
1677.87	11158
1678.9	11178
1679.93	11122
1680.96	11086
1681.98	11036
1683.01	10970
1684.04	11074
1685.07	10946
1686.1	10926
1687.13	11026
1688.16	10968
1689.19	10890
1690.21	10888
1691.24	11020
1692.27	10916
1693.3	10890
1694.32	10856
1695.35	10986
1696.38	10998
1697.4	10844
1698.43	10940
1699.46	10806
1700.48	10866
1701.51	10648
1702.54	10714
1703.56	10864
1704.59	10758
1705.61	10854
1706.64	10692
1707.66	10708
1708.69	10696
1709.71	10748
1710.74	10766
1711.76	10716
1712.79	10726
1713.81	10634
1714.83	10650
1715.86	10596
1716.88	10680
1717.91	10672
1718.93	10714
1719.95	10646
1720.98	10648
1722	10626
1723.02	10646
1724.04	10590
1725.07	10622
1726.09	10550
1727.11	10504
1728.13	10580
1729.15	10636
1730.18	10538
1731.2	10442
1732.22	10524
1733.24	10542
1734.26	10502
1735.28	10534
1736.3	10436
1737.32	10510
1738.34	10510
1739.36	10552
1740.38	10426
1741.4	10404
1742.42	10506
1743.44	10408
1744.46	10374
1745.48	10394
1746.5	10462
1747.52	10334
1748.54	10282
1749.56	10490
1750.58	10400
1751.6	10304
1752.61	10450
1753.63	10398
1754.65	10356
1755.67	10346
1756.68	10280
1757.7	10430
1758.72	10282
1759.74	10286
1760.75	10246
1761.77	10324
1762.79	10416
1763.8	10338
1764.82	10362
1765.84	10156
1766.85	10340
1767.87	10278
1768.88	10300
1769.9	10288
1770.91	10332
1771.93	10158
1772.94	10014
1773.96	10184
1774.97	10228
1775.99	10328
1777	10248
1778.02	10158
1779.03	10156
1780.04	10254
1781.06	10162
1782.07	10162
1783.09	10062
1784.1	10012
1785.11	10242
1786.13	10150
1787.14	10180
1788.15	10226
1789.16	10230
1790.18	10132
1791.19	10184
1792.2	10090
1793.21	10142
1794.22	10166
1795.23	10058
1796.25	10028
1797.26	10100
1798.27	10014
1799.28	10142
1800.29	10136
1801.3	9942
1802.31	10162
1803.32	9946
1804.33	10058
1805.34	10106
1806.35	9960
1807.36	9944
1808.37	10034
1809.38	9992
1810.39	10132
1811.4	10084
1812.41	10000
1813.42	9944
1814.43	9944
1815.43	9962
1816.44	10020
1817.45	9978
1818.46	9932
1819.47	9988
1820.47	9858
1821.48	9900
1822.49	9804
1823.49	9940
1824.5	9820
1825.51	9898
1826.52	9862
1827.52	9792
1828.53	9952
1829.54	9832
1830.54	9826
1831.55	9872
1832.55	9748
1833.56	9798
1834.56	9718
1835.57	9776
1836.57	9638
1837.58	9716
1838.58	9802
1839.59	9628
1840.59	9540
1841.6	9522
1842.6	9560
1843.61	9752
1844.61	9696
1845.61	9668
1846.62	9678
1847.62	9556
1848.62	9532
1849.63	9564
1850.63	9744
1851.63	9484
1852.64	9684
1853.64	9620
1854.64	9538
1855.64	9640
1856.64	9658
1857.65	9566
1858.65	9578
1859.65	9484
1860.65	9510
1861.65	9392
1862.65	9564
1863.65	9468
1864.66	9562
1865.66	9434
1866.66	9388
1867.66	9418
1868.66	9326
1869.66	9360
1870.66	9404
1871.66	9458
1872.66	9438
1873.66	9374
1874.66	9384
1875.65	9432
1876.65	9326
1877.65	9422
1878.65	9424
1879.65	9456
1880.65	9368
1881.65	9370
1882.64	9358
1883.64	9322
1884.64	9404
1885.64	9400
1886.63	9466
1887.63	9272
1888.63	9394
1889.63	9408
1890.62	9370
1891.62	9294
1892.62	9398
1893.61	9464
1894.61	9298
1895.6	9352
1896.6	9366
1897.6	9384
1898.59	9332
1899.59	9242
1900.58	9254
1901.58	9204
1902.57	9342
1903.57	9296
1904.56	9224
1905.56	9314
1906.55	9124
1907.54	9368
1908.54	9330
1909.53	9282
1910.53	9350
1911.52	9304
1912.51	9188
1913.51	9406
1914.5	9230
1915.49	9246
1916.49	9172
1917.48	9262
1918.47	9172
1919.46	9300
1920.46	9200
1921.45	9186
1922.44	9160
1923.43	9172
1924.42	9110
1925.41	9206
1926.41	9194
1927.4	9152
1928.39	9220
1929.38	9190
1930.37	9070
1931.36	9224
1932.35	9154
1933.34	8946
1934.33	9200
1935.32	9108
1936.31	9146
1937.3	9150
1938.29	9164
1939.28	9158
1940.27	9154
1941.26	9162
1942.24	9028
1943.23	9132
1944.22	9200
1945.21	9148
1946.2	9100
1947.19	9038
1948.17	9150
1949.16	9036
1950.15	9047
1951.14	9058
1952.13	9146
1953.11	9028
1954.1	9074
1955.09	9044
1956.07	9084
1957.06	9046
1958.05	8982
1959.03	8912
1960.02	8994
1961	8826
1961.99	8938
1962.98	9048
1963.96	8796
1964.95	9016
1965.93	8918
1966.92	9032
1967.9	8842
1968.89	8936
1969.87	8816
1970.85	8898
1971.84	8902
1972.82	8956
1973.81	8960
1974.79	8930
1975.78	8830
1976.76	8846
1977.74	8998
1978.73	8914
1979.71	8808
1980.69	8864
1981.67	8818
1982.66	8780
1983.64	8788
1984.62	8892
1985.6	8828
1986.59	8728
1987.57	8870
1988.55	8814
1989.53	8808
1990.51	8828
1991.49	8706
1992.47	8848
1993.45	8832
1994.44	8706
1995.42	8808
1996.4	8692
1997.38	8754
1998.36	8680
1999.34	8590
2000.32	8852
2001.3	8750
2002.28	8688
2003.26	8772
2004.24	8606
2005.22	8706
2006.19	8678
2007.17	8708
2008.15	8704
2009.13	8812
2010.11	8714
2011.09	8692
2012.06	8758
2013.04	8752
2014.02	8682
2015	8606
2015.98	8632
2016.95	8716
2017.93	8686
2018.91	8600
2019.88	8636
2020.86	8674
2021.84	8540
2022.81	8566
2023.79	8676
2024.77	8774
2025.74	8656
2026.72	8622
2027.69	8564
2028.67	8546
2029.65	8616
2030.62	8614
2031.6	8484
2032.57	8510
2033.55	8504
2034.52	8486
2035.5	8648
2036.47	8584
2037.44	8550
2038.42	8554
2039.39	8550
2040.36	8426
2041.34	8550
2042.31	8564
2043.29	8514
2044.26	8648
2045.23	8536
2046.2	8446
2047.18	8480
2048.15	8534
2049.12	8546
2050.09	8498
2051.07	8450
2052.04	8494
2053.01	8496
2053.98	8440
2054.95	8544
2055.93	8518
2056.9	8458
2057.87	8518
2058.84	8454
2059.81	8524
2060.78	8480
2061.75	8414
2062.72	8380
2063.69	8442
2064.66	8452
2065.63	8414
2066.6	8582
2067.57	8346
2068.54	8414
2069.51	8364
2070.48	8306
2071.45	8472
2072.42	8482
2073.38	8404
2074.35	8356
2075.32	8378
2076.29	8370
2077.26	8198
2078.23	8304
2079.19	8330
2080.16	8358
2081.13	8428
2082.1	8168
2083.06	8358
2084.03	8352
2085	8252
2085.96	8308
2086.93	8360
2087.9	8270
2088.86	8362
2089.83	8270
2090.8	8218
2091.76	8358
2092.73	8366
2093.69	8204
2094.66	8246
2095.62	8236
2096.59	8200
2097.55	8304
2098.52	8098
2099.48	8210
2100.45	8198
2101.41	8202
2102.38	8176
2103.34	8254
2104.31	8234
2105.27	8136
2106.23	8190
2107.2	8214
2108.16	8180
2109.12	8138
2110.09	8326
2111.05	8172
2112.01	8142
2112.98	8150
2113.94	8088
2114.9	8152
2115.86	8102
2116.82	8086
2117.79	8056
2118.75	8068
2119.71	8130
2120.67	8098
2121.63	8092
2122.59	8212
2123.55	8070
2124.52	8238
2125.48	8132
2126.44	8066
2127.4	8120
2128.36	8146
2129.32	8004
2130.28	8060
2131.24	8034
2132.2	8060
2133.16	7972
2134.12	7962
2135.08	8028
2136.04	8012
2136.99	7988
2137.95	7998
2138.91	8066
2139.87	8038
2140.83	7896
2141.79	8074
2142.75	7928
2143.7	8016
2144.66	7946
2145.62	7996.86
2146.58	7953.63
2147.53	8043.16
2148.49	7912.07
2149.45	8035.06
2150.41	7919.85
2151.36	7988.51
2152.32	7864.79
2153.28	7898.95
2154.23	7885.24
2155.19	7871.3
2156.14	7852.23
2157.1	7807.43
2158.06	7832.54
2159.01	7906.87
2159.97	7795.97
2160.92	7896.8
2161.88	7932.8
2162.83	7877.46
2163.79	7828
2164.74	7797.13
2165.7	7783.77
2166.65	7760.67
2167.61	7681.3
2168.56	7773.98
2169.51	7716.14
2170.47	7840.7
2171.42	7715.44
2172.38	7670.58
2173.33	7758.39
2174.28	7773.6
2175.24	7702.95
2176.19	7736.72
2177.14	7712.35
2178.09	7672.24
2179.05	7701.02
2180	7794.98
2180.95	7693.91
2181.9	7587.73
2182.86	7674.26
2183.81	7632.2
2184.76	7589.33
2185.71	7634.39
2186.66	7624.42
2187.61	7616.7
2188.57	7586.68
2189.52	7593.13
2190.47	7564.8
2191.42	7652.96
2192.37	7597.82
2193.32	7571.56
2194.27	7570.46
2195.22	7572.63
2196.17	7604.19
2197.12	7557.09
2198.07	7593.55
2199.02	7593.16
2199.97	7494.88
2200.92	7508.61
2201.87	7520.2
2202.82	7549.84
2203.76	7500.06
2204.71	7481.65
2205.66	7560.19
2206.61	7499.04
2207.56	7596.8
2208.51	7551.77
2209.45	7491.25
2210.4	7442.96
2211.35	7486.45
2212.3	7515.87
2213.25	7511.04
2214.19	7490.24
2215.14	7552.84
2216.09	7524
2217.03	7550.24
2217.98	7456.91
2218.93	7431.65
2219.87	7497.73
2220.82	7460.47
2221.77	7457.52
2222.71	7497.7
2223.66	7538.2
2224.6	7563.27
2225.55	7440.78
2226.49	7457.53
2227.44	7447.13
2228.38	7438.67
2229.33	7480.35
2230.27	7490.07
2231.22	7486.96
2232.16	7463
2233.11	7481.97
2234.05	7509.13
2235	7522.34
2235.94	7546.75
2236.88	7565.62
2237.83	7536.5
2238.77	7515.88
2239.72	7494.04
2240.66	7490.31
2241.6	7499.1
2242.07	7486
2243.02	7574
2243.97	7440
2244.92	7510
2245.87	7482
2246.81	7428
2247.76	7524
2248.71	7484
2249.65	7474
2250.6	7608
2251.55	7478
2252.49	7462
2253.44	7468
2254.39	7488
2255.33	7418
2256.28	7520
2257.22	7416
2258.17	7414
2259.12	7422
2260.06	7394
2261.01	7434
2261.95	7382
2262.9	7292
2263.84	7382
2264.78	7432
2265.73	7352
2266.67	7352
2267.62	7348
2268.56	7386
2269.51	7448
2270.45	7462
2271.39	7330
2272.34	7414
2273.28	7358
2274.22	7340
2275.17	7370
2276.11	7370
2277.05	7218
2277.99	7358
2278.94	7334
2279.88	7384
2280.82	7316
2281.76	7480
2282.71	7308
2283.65	7294
2284.59	7358
2285.53	7400
2286.47	7330
2287.41	7318
2288.35	7286
2289.3	7236
2290.24	7264
2291.18	7244
2292.12	7216
2293.06	7310
2294	7192
2294.94	7326
2295.88	7296
2296.82	7224
2297.76	7210
2298.7	7164
2299.64	7154
2300.58	7246
2301.52	7352
2302.46	7198
2303.39	7134
2304.33	7090
2305.27	7260
2306.21	7090
2307.15	7278
2308.09	7250
2309.02	7206
2309.96	7190
2310.9	7110
2311.84	7208
2312.77	7164
2313.71	7108
2314.65	7168
2315.59	7082
2316.52	7086
2317.46	7196
2318.4	7158
2319.33	7072
2320.27	7060
2321.21	7216
2322.14	7144
2323.08	7162
2324.01	7090
2324.95	7070
2325.89	7076
2326.82	7108
2327.76	7042
2328.69	7074
2329.63	7088
2330.56	7040
2331.5	7056
2332.43	7076
2333.36	7096
2334.3	7092
2335.23	7030
2336.17	7030
2337.1	6930
2338.03	7008
2338.97	7004
2339.9	7030
2340.83	6998
2341.77	7040
2342.7	7050
2343.63	7038
2344.57	6948
2345.5	7054
2346.43	7016
2347.36	7076
2348.3	7046
2349.23	6988
2350.16	6954
2351.09	7098
2352.02	6972
2352.95	7032
2353.89	6890
2354.82	7020
2355.75	6936
2356.68	6900
2357.61	7022
2358.54	6932
2359.47	6948
2360.4	6946
2361.33	6954
2362.26	6932
2363.19	6968
2364.12	6932
2365.05	6882
2365.98	6976
2366.91	6986
2367.84	7010
2368.77	6980
2369.7	6934
2370.63	6972
2371.56	6780
2372.48	6904
2373.41	6830
2374.34	6838
2375.27	6894
2376.2	6800
2377.12	6852
2378.05	6838
2378.98	6960
2379.91	6826
2380.84	6856
2381.76	6818
2382.69	6766
2383.62	6864
2384.54	6830
2385.47	6870
2386.4	6830
2387.32	6746
2388.25	6786
2389.18	6742
2390.1	6782
2391.03	6726
2391.95	6834
2392.88	6612
2393.8	6884
2394.73	6832
2395.65	6794
2396.58	6802
2397.5	6726
2398.43	6724
2399.35	6792
2400.28	6750
2401.2	6696
2402.13	6752
2403.05	6724
2403.97	6698
2404.9	6700
2405.82	6712
2406.75	6668
2407.67	6760
2408.59	6688
2409.51	6786
2410.44	6740
2411.36	6738
2412.28	6704
2413.21	6700
2414.13	6726
2415.05	6590
2415.97	6678
2416.9	6646
2417.82	6570
2418.74	6682
2419.66	6642
2420.58	6596
2421.5	6550
2422.42	6600
2423.35	6588
2424.27	6508
2425.19	6642
2426.11	6568
2427.03	6698
2427.95	6574
2428.87	6510
2429.79	6574
2430.71	6560
2431.63	6594
2432.55	6444
2433.47	6520
2434.39	6534
2435.31	6638
2436.23	6472
2437.14	6476
2438.06	6600
2438.98	6518
2439.9	6560
2440.82	6484
2441.74	6460
2442.66	6500
2443.57	6550
2444.49	6398
2445.41	6458
2446.33	6402
2447.24	6450
2448.16	6416
2449.08	6450
2450	6460
2450.91	6442
2451.83	6346
2452.75	6392
2453.66	6466
2454.58	6510
2455.5	6422
2456.41	6504
2457.33	6400
2458.24	6282
2459.16	6430
2460.08	6414
2460.99	6412
2461.91	6362
2462.82	6382
2463.74	6452
2464.65	6380
2465.57	6354
2466.48	6386
2467.4	6366
2468.31	6268
2469.22	6334
2470.14	6278
2471.05	6212
2471.97	6238
2472.88	6266
2473.79	6312
2474.71	6292
2475.62	6290
2476.53	6262
2477.45	6260
2478.36	6366
2479.27	6224
2480.19	6202
2481.1	6136
2482.01	6298
2482.92	6174
2483.83	6238
2484.75	6276
2485.66	6212
2486.57	6200
2487.48	6246
2488.39	6188
2489.3	6202
2490.22	6242
2491.13	6222
2492.04	6210
2492.95	6268
2493.86	6162
2494.77	6172
2495.68	6144
2496.59	6144
2497.5	6138
2498.41	6102
2499.32	6134
2500.23	6150
2501.14	6024
2502.05	6112
2502.96	6150
2503.87	6150
2504.78	6162
2505.68	6058
2506.59	5998
2507.5	6018
2508.41	6070
2509.32	5992
2510.23	5982
2511.14	6034
2512.04	6122
2512.95	6060
2513.86	6082
2514.77	6044
2515.67	6072
2516.58	5966
2517.49	6002
2518.39	5932
2519.3	5934
2520.21	5952
2521.11	5998
2522.02	5910
2522.93	5866
2523.83	5916
2524.74	5994
2525.65	5936
2526.55	5980
2527.46	5942
2528.36	5820
2529.27	5968
2530.17	5874
2531.08	5928
2531.98	5834
2532.89	5948
2533.79	5900
2534.7	5828
2535.6	5894
2536.51	5754
2537.41	5766
2538.32	5854
2539.22	5798
2540.12	5794
2541.03	5754
2541.93	5850
2542.83	5796
2543.74	5866
2544.64	5844
2545.54	5840
2546.45	5762
2547.35	5818
2548.25	5654
2549.15	5820
2550.06	5792
2550.96	5778
2551.86	5726
2552.76	5798
2553.66	5712
2554.56	5776
2555.47	5664
2556.37	5730
2557.27	5732
2558.17	5714
2559.07	5700
2559.97	5736
2560.87	5624
2561.77	5706
2562.67	5712
2563.58	5688
2564.47	5662
2565.38	5640
2566.27	5598
2567.18	5566
2568.07	5676
2568.97	5624
2569.87	5606
2570.77	5562
2571.67	5586
2572.57	5586
2573.47	5686
2574.37	5590
2575.27	5522
2576.17	5578
2577.06	5544
2577.96	5516
2578.86	5576
2579.76	5620
2580.66	5520
2581.55	5584
2582.45	5640
2583.35	5584
2584.25	5572
2585.14	5530
2586.04	5520
2586.94	5550
2587.83	5496
2588.73	5558
2589.63	5460
2590.52	5540
2591.42	5466
2592.32	5450
2593.21	5426
2594.11	5478
2595	5372
2595.9	5442
2596.8	5398
2597.69	5434
2598.59	5404
2599.48	5460
2600.38	5372
2601.27	5406
2602.17	5448
2603.06	5380
2603.95	5404
2604.85	5368
2605.74	5366
2606.64	5328
2607.53	5318
2608.42	5308
2609.32	5312
2610.21	5334
2611.1	5302
2612	5418
2612.89	5296
2613.78	5300
2614.68	5308
2615.57	5378
2616.46	5378
2617.36	5314
2618.25	5334
2619.14	5312
2620.03	5244
2620.92	5276
2621.82	5244
2622.71	5300
2623.6	5166
2624.49	5260
2625.38	5238
2626.27	5202
2627.16	5312
2628.05	5172
2628.95	5184
2629.84	5194
2630.73	5272
2631.62	5246
2632.51	5184
2633.4	5198
2634.29	5156
2635.18	5198
2636.07	5138
2636.96	5108
2637.85	5168
2638.74	5182
2639.62	5142
2640.51	5062
2641.4	5120
2642.29	5032
2643.18	5056
2644.07	5080
2644.96	5074
2645.85	5148
2646.73	5066
2647.62	5052
2648.51	5120
2649.4	5046
2650.28	4996
2651.17	4994
2652.06	4984
2652.95	4966
2653.83	4990
2654.72	5108
2655.61	5012
2656.5	4956
2657.38	4960
2658.27	4996
2659.15	4988
2660.04	4928
2660.93	5022
2661.81	5004
2662.7	4994
2663.58	4956
2664.47	4946
2665.35	4962
2666.24	4994
2667.13	4964
2668.01	4950
2668.9	4912
2669.78	4938
2670.66	5006
2671.55	4916
2672.43	4904
2673.32	4862
2674.2	4920
2675.09	4934
2675.97	4920
2676.85	4860
2677.74	4868
2678.62	4900
2679.5	4854
2680.39	4828
2681.27	4920
2682.15	4874
2683.04	4900
2683.92	4866
2684.8	4820
2685.68	4864
2686.57	4836
2687.45	4832
2688.33	4796
2689.21	4802
2690.09	4834
2690.98	4822
2691.86	4724
2692.74	4758
2693.62	4728
2694.5	4688
2695.38	4778
2696.26	4754
2697.15	4724
2698.03	4744
2698.91	4756
2699.79	4726
2700.67	4664
2701.55	4694
2702.43	4734
2703.31	4712
2704.19	4670
2705.07	4672
2705.95	4694
2706.83	4630
2707.7	4668
2708.58	4764
2709.46	4670
2710.34	4658
2711.22	4730
2712.1	4626
2712.98	4616
2713.86	4640
2714.73	4654
2715.61	4594
2716.49	4568
2717.37	4590
2718.25	4602
2719.12	4666
2720	4584
2720.88	4620
2721.76	4550
2722.63	4506
2723.51	4524
2724.39	4576
2725.26	4548
2726.14	4568
2727.02	4528
2727.89	4478
2728.77	4488
2729.64	4422
2730.52	4528
2731.4	4550
2732.27	4418
2733.15	4502
2734.02	4426
2734.9	4534
2735.77	4506
2736.65	4460
2737.52	4456
2738.4	4454
2739.27	4418
2740.15	4432
2741.02	4420
2741.9	4386
2742.77	4388
2743.64	4432
2744.52	4436
2745.39	4390
2746.27	4402
2747.14	4450
2748.01	4364
2748.89	4400
2749.76	4368
2750.63	4406
2751.51	4358
2752.38	4322
2753.25	4330
2754.12	4410
2755	4314
2755.87	4294
2756.74	4318
2757.61	4346
2758.48	4328
2759.35	4364
2760.23	4274
2761.1	4314
2761.97	4286
2762.84	4278
2763.71	4314
2764.58	4296
2765.45	4328
2766.32	4340
2767.19	4294
2768.07	4316
2768.94	4304
2769.81	4226
2770.68	4182
2771.55	4264
2772.42	4152
2773.29	4254
2774.16	4222
2775.02	4162
2775.89	4138
2776.76	4204
2777.63	4156
2778.5	4266
2779.37	4214
2780.24	4184
2781.11	4150
2781.98	4286
2782.84	4096
2783.71	4196
2784.58	4100
2785.45	4126
2786.32	4148
2787.18	4116
2788.05	4184
2788.92	4116
2789.79	4030
2790.65	4128
2791.52	4020
2792.39	4146
2793.25	4104
2794.12	4070
2794.99	4122
2795.85	3984
2796.72	4198
2797.59	4076
2798.45	4050
2799.32	4118
2800.18	4092
2801.05	4092
2801.92	4050
2802.78	4066
2803.65	4048
2804.51	4030
2805.38	4032
2806.24	4096
2807.11	4036
2807.97	4028
2808.84	4028
2809.7	4040
2810.57	3986
2811.43	3922
2812.29	4054
2813.16	4074
2814.02	3956
2814.88	3986
2815.75	3990
2816.61	3960
2817.47	3962
2818.34	3948
2819.2	3918
2820.06	3944
2820.93	3906
2821.79	3904
2822.65	3954
2823.51	3918
2824.38	3882
2825.24	3874
2826.1	3900
2826.96	3804
2827.82	3854
2828.69	3870
2829.55	3858
2830.41	3912
2831.27	3898
2832.13	3834
2832.99	3824
2833.85	3788
2834.71	3808
2835.57	3848
2836.44	3810
2837.3	3800
2838.16	3878
2839.02	3848
2839.88	3758
2840.74	3794
2841.6	3796
2842.46	3776
2843.32	3822
2844.18	3820
2845.03	3810
2845.89	3792
2846.75	3690
2847.61	3658
2848.47	3818
2849.33	3752
2850.19	3752
2851.05	3744
2851.9	3792
2852.76	3720
2853.62	3694
2854.48	3622
2855.34	3682
2856.19	3600
2857.05	3670
2857.91	3716
2858.77	3680
2859.62	3666
2860.48	3712
2861.34	3642
2862.19	3596
2863.05	3598
2863.91	3564
2864.76	3614
2865.62	3590
2866.48	3592
2867.33	3560
2868.19	3544
2869.04	3582
2869.9	3598
2870.76	3616
2871.61	3540
2872.47	3592
2873.32	3608
2874.18	3612
2875.03	3528
2875.89	3544
2876.74	3608
2877.6	3532
2878.45	3478
2879.31	3474
2880.16	3516
2881.01	3476
2881.87	3496
2882.72	3476
2883.58	3614
2884.43	3490
2885.28	3406
2886.14	3558
2886.99	3488
2887.84	3474
2888.7	3482
2889.55	3454
2890.4	3518
2891.25	3488
2892.11	3512
2892.96	3456
2893.81	3468
2894.66	3484
2895.52	3458
2896.37	3414
2897.22	3504
2898.07	3462
2898.92	3334
2899.77	3398
2900.62	3348
2901.48	3420
2902.33	3478
2903.18	3400
2904.03	3366
2904.88	3344
2905.73	3360
2906.58	3394
2907.43	3434
2908.28	3360
2909.13	3366
2909.98	3468
2910.83	3408
2911.68	3326
2912.53	3348
2913.38	3382
2914.23	3344
2915.08	3356
2915.93	3402
2916.78	3344
2917.63	3346
2918.47	3380
2919.32	3308
2920.17	3306
2921.02	3324
2921.87	3344
2922.72	3256
2923.56	3316
2924.41	3342
2925.26	3326
2926.11	3290
2926.95	3244
2927.8	3334
2928.65	3296
2929.5	3286
2930.34	3278
2931.19	3362
2932.04	3276
2932.88	3260
2933.73	3332
2934.58	3354
2935.42	3264
2936.27	3262
2937.11	3264
2937.96	3270
2938.81	3238
2939.65	3284
2940.5	3212
2941.34	3344
2942.19	3260
2943.03	3244
2943.88	3246
2944.72	3194
2945.57	3252
2946.41	3260
2947.26	3268
2948.1	3184
2948.95	3266
2949.79	3188
2950.64	3182
2951.48	3246
2952.32	3252
2953.17	3172
2954.01	3230
2954.85	3228
2955.7	3192
2956.54	3136
2957.38	3212
2958.23	3088
2959.07	3148
2959.91	3190
2960.75	3148
2961.6	3114
2962.44	3158
2963.28	3142
2964.12	3078
2964.97	3130
2965.81	3078
2966.65	3118
2967.49	3098
2968.33	3082
2969.17	3150
2970.02	3094
2970.86	3044
2971.7	3136
2972.54	3094
2973.38	3072
2974.22	3080
2975.06	3122
2975.9	3032
2976.74	3104
2977.58	3136
2978.42	3050
2979.26	3058
2980.1	3074
2980.94	3022
2981.78	3064
2982.62	3056
2983.46	3014
2984.3	3084
2985.14	3000
2985.98	3048
2986.82	3058
2987.66	3006
2988.49	2946
2989.33	3016
2990.17	3002
2991.01	3030
2991.85	2964
2992.69	2978
2993.52	2940
2994.36	3018
2995.2	3020
2996.04	2996
2996.87	2934
2997.71	2974
2998.55	2954
2999.39	2924
