#Acq. time (s)=	10
#Accumulations=	1
#Range (cm-¹)=	100...3000
#Windows=	3
#Autofocus=	Off
#AutoExposure=	Off
#Spike filter=	Off
#Delay time (s)=	0
#Binning=	1
#Readout mode=	Signal
#DeNoise=	Off
#ICS correction=	Off
#Dark correction=	Off
#Inst. Process=	Off
#Instrument=	LabRAM HR Evol
#Detector=	Syncerity OE
#Objective=	x100_VIS
#Grating=	600 (500nm)
#ND Filter=	3.2%
#Laser=	633nm_Edge
#Hole=	100.021
#Range=	Visible
#Project=	Omar
#Sample=	26-06-23
#Site=	2
#Title=	Organic
#Remark=	
#Date=	26.06.2023 16:29
#Acquired=	26.06.2023 16:29:40
101.018	3686
102.302	3658
103.586	3646
104.869	3640
106.152	3730
107.435	3760
108.717	3694
109.999	3694
111.281	3776
112.563	3680
113.845	3740
115.126	3754
116.407	3796
117.688	3690
118.969	3812
120.249	3792
121.53	3770
122.81	3738
124.09	3722
125.369	3786
126.649	3742
127.928	3804
129.207	3764
130.486	3730
131.765	3776
133.043	3846
134.321	3798
135.599	3828
136.877	3794
138.155	3876
139.432	3906
140.708	3826
141.985	3882
143.261	3876
144.538	3844
145.814	3826
147.09	3888
148.366	3802
149.641	3894
150.916	3844
152.191	3858
153.466	3872
154.741	3880
156.016	3952
157.289	3932
158.563	3960
159.837	3942
161.111	3982
162.385	3974
163.657	3908
164.93	3994
166.203	3976
167.476	3938
168.747	4012
170.019	3938
171.291	4020
172.562	3972
173.834	4022
175.105	4006
176.377	3980
177.646	3990
178.917	4050
180.188	3994
181.457	4092
182.727	4082
183.996	3996
185.266	3980
186.536	3970
187.804	4018
189.073	4070
190.342	4110
191.609	4104
192.878	4060
194.145	4094
195.413	4082
196.681	4130
197.948	4108
199.215	4150
200.481	4074
201.749	4106
203.014	4170
204.281	4234
205.546	4220
206.813	4204
208.077	4182
209.343	4204
210.608	4242
211.873	4258
213.137	4240
214.402	4240
215.666	4242
216.93	4234
218.194	4254
219.458	4266
220.721	4296
221.983	4204
223.247	4298
224.509	4218
225.772	4282
227.034	4304
228.295	4284
229.558	4340
230.819	4356
232.081	4374
233.342	4402
234.602	4374
235.864	4384
237.124	4348
238.384	4430
239.645	4466
240.904	4420
242.164	4472
243.423	4468
244.683	4336
245.941	4438
247.2	4472
248.46	4478
249.717	4538
250.975	4470
252.233	4586
253.492	4492
254.749	4580
256.006	4540
257.263	4536
258.519	4404
259.777	4492
261.033	4572
262.289	4444
263.545	4510
264.8	4528
266.057	4488
267.312	4470
268.567	4508
269.822	4604
271.076	4488
272.331	4448
273.585	4528
274.839	4552
276.094	4566
277.347	4582
278.601	4598
279.854	4522
281.107	4584
282.359	4576
283.612	4468
284.864	4570
286.116	4508
287.368	4646
288.62	4628
289.871	4522
291.123	4600
292.374	4662
293.625	4672
294.875	4632
296.126	4766
297.376	4754
298.626	4752
299.876	4800
301.126	4794
302.375	4650
303.625	4732
304.874	4770
306.122	4792
307.371	4790
308.62	4858
309.866	4834
311.114	4878
312.362	4810
313.61	4888
314.857	4854
316.105	4832
317.352	4860
318.599	4918
319.844	4812
321.09	4876
322.337	4898
323.583	4896
324.828	4870
326.073	4842
327.318	4812
328.563	4870
329.808	4914
331.053	4846
332.296	4832
333.541	4932
334.785	4844
336.029	4990
337.272	4990
338.515	4902
339.759	4954
341.001	4972
342.244	4918
343.486	4890
344.728	4978
345.97	4950
347.212	4970
348.453	5010
349.695	5092
350.936	5016
352.176	5060
353.418	5070
354.659	5058
355.898	5120
357.139	5098
358.378	5050
359.618	5132
360.858	5152
362.097	5110
363.336	5092
364.574	5076
365.813	5164
367.051	5120
368.29	5152
369.527	5136
370.766	5182
372.002	5104
373.241	5224
374.477	5146
375.715	5182
376.951	5030
378.188	5104
379.424	5178
380.66	5072
381.896	5190
383.132	5182
384.367	5136
385.603	5178
386.838	5184
388.072	5182
389.307	5222
390.541	5204
391.776	5238
393.01	5118
394.243	5170
395.477	5260
396.71	5272
397.943	5296
399.177	5260
400.409	5322
401.641	5300
402.875	5336
404.106	5268
405.338	5398
406.57	5368
407.802	5326
409.032	5298
410.263	5322
411.495	5372
412.725	5520
413.955	5402
415.185	5474
416.417	5442
417.646	5470
418.875	5516
420.104	5518
421.335	5482
422.564	5544
423.792	5554
425.02	5566
426.249	5634
427.477	5640
428.706	5676
429.933	5612
431.161	5606
432.388	5600
433.615	5766
434.841	5682
436.068	5658
437.294	5700
438.522	5682
439.748	5692
440.974	5672
442.199	5696
443.425	5558
444.65	5638
445.875	5742
447.1	5642
448.324	5818
449.549	5740
450.773	5718
451.997	5658
453.221	5720
454.445	5778
455.668	5746
456.891	5706
458.114	5744
459.337	5720
460.56	5706
461.782	5768
463.005	5732
464.227	5836
465.447	5758
466.669	5808
467.89	5726
469.112	5892
470.333	5820
471.554	5872
472.774	5714
473.995	5912
475.214	5836
476.434	5838
477.654	5954
478.874	5904
480.093	5914
481.312	5994
482.53	5878
483.749	5858
484.968	5910
486.186	5886
487.405	5958
488.622	5980
489.84	6002
491.057	6102
492.275	6004
493.491	6060
494.708	6130
495.925	6034
497.141	5944
498.357	6046
499.574	6122
500.789	6084
502.005	6170
503.221	6058
504.435	6176
505.65	6132
506.866	6150
508.079	6096
509.294	6010
510.509	6124
511.722	6126
512.936	6062
514.149	6188
515.363	6216
516.577	6252
517.789	6128
519.002	6118
520.214	6202
521.427	6166
522.638	6182
523.851	6190
525.062	6190
526.274	6192
527.485	6274
528.697	6246
529.907	6254
531.118	6276
532.328	6350
533.539	6292
534.748	6198
535.959	6230
537.168	6238
538.379	6268
539.587	6300
540.796	6270
542.005	6392
543.214	6390
544.423	6260
545.631	6284
546.838	6280
548.047	6354
549.254	6186
550.461	6318
551.669	6288
552.876	6352
554.082	6380
555.29	6418
556.496	6274
557.701	6370
558.909	6394
560.114	6302
561.319	6516
562.524	6364
563.731	6318
564.935	6300
566.14	6356
567.344	6448
568.549	6444
569.753	6408
570.957	6548
572.161	6554
573.364	6458
574.568	6616
575.771	6502
576.974	6574
578.177	6616
579.379	6558
580.581	6608
581.785	6572
582.987	6650
584.188	6596
585.39	6624
586.591	6732
587.792	6686
588.993	6740
590.193	6680
591.394	6692
592.594	6710
593.796	6674
594.996	6692
596.195	6660
597.395	6744
598.594	6790
599.793	6820
600.992	6810
602.191	6790
603.39	6838
604.588	6870
605.786	6862
606.984	6970
608.181	6912
609.378	7004
610.576	6992
611.773	6892
612.97	6922
614.167	7042
615.364	6982
616.56	6986
617.757	6948
618.953	6980
620.149	7122
621.343	7166
622.539	7100
623.734	7164
624.929	7210
626.124	7266
627.319	7232
628.512	7214
629.707	7214
630.901	7318
632.095	7298
633.289	7398
634.481	7328
635.675	7484
636.868	7344
638.061	7420
639.253	7488
640.446	7466
641.638	7432
642.831	7496
644.021	7424
645.213	7508
646.405	7446
647.595	7478
648.787	7438
649.978	7598
651.168	7702
652.359	7454
653.549	7562
654.738	7726
655.929	7600
657.117	7492
658.307	7604
659.497	7656
660.685	7726
661.875	7716
663.063	7756
664.252	7826
665.439	7798
666.628	7694
667.816	7866
669.003	7778
670.191	7822
671.378	7814
672.565	7832
673.751	7852
674.939	7836
676.124	7800
677.311	7944
678.497	7914
679.682	7842
680.868	7860
682.053	8010
683.239	7812
684.424	8100
685.609	7966
686.793	8104
687.977	7998
689.162	8060
690.346	7938
691.529	8108
692.714	8094
693.897	8124
695.081	8076
696.264	8066
697.446	8212
698.63	8176
699.812	8152
700.993	8172
702.175	8262
703.358	8310
704.539	8392
705.72	8308
706.901	8338
708.083	8334
709.264	8318
710.444	8320
711.625	8440
712.806	8368
713.986	8446
715.165	8512
716.345	8478
717.524	8406
718.705	8570
719.884	8442
721.062	8602
722.241	8642
723.419	8648
724.597	8764
725.775	8668
726.954	8768
728.132	8630
729.31	8764
730.487	8756
731.664	8732
732.841	8692
734.017	8748
735.194	8720
736.37	8822
737.546	8864
738.722	8848
739.898	8946
741.074	8948
742.249	9014
743.424	8984
744.599	8922
745.774	9016
746.949	8992
748.123	9036
749.298	9074
750.472	9106
751.646	9072
752.819	9182
753.993	9194
755.166	9224
756.34	9200
757.511	9214
758.684	9264
759.857	9206
761.029	9230
762.202	9350
763.374	9224
764.546	9282
765.716	9264
766.888	9386
768.059	9380
769.23	9406
770.401	9546
771.571	9416
772.741	9468
773.912	9464
775.082	9424
776.251	9510
777.421	9448
778.59	9500
779.76	9698
780.928	9600
782.097	9618
783.266	9808
784.434	9638
785.602	9622
786.771	9718
787.938	9804
789.106	9786
790.274	9870
791.44	9944
792.608	9912
793.775	9926
794.941	10050
796.108	10036
797.273	9910
798.44	10054
799.606	10034
800.771	9948
801.937	10114
803.102	10154
804.268	10238
805.432	10196
806.597	10236
807.761	10338
808.926	10330
810.09	10314
811.254	10226
812.417	10506
813.582	10450
814.744	10536
815.908	10512
817.071	10576
818.234	10640
819.396	10574
820.558	10480
821.721	10678
822.883	10794
824.045	10728
825.206	10868
826.367	10782
827.529	10926
828.69	10932
829.85	10910
831.012	10884
832.172	11054
833.332	11054
834.493	10890
835.653	11080
836.812	11172
837.972	11232
839.131	11238
840.29	11190
841.449	11330
842.609	11288
843.767	11400
844.925	11486
846.083	11392
847.242	11456
848.399	11448
849.557	11496
850.714	11540
851.871	11526
853.029	11546
854.186	11726
855.342	11628
856.498	11770
857.654	11822
858.81	11798
859.966	11762
861.122	11748
862.278	11782
863.434	11918
864.589	11928
865.744	11916
866.898	12072
868.053	11964
869.207	11932
870.361	12084
871.515	12076
872.669	12110
873.822	11956
874.976	12204
876.129	12162
877.282	12238
878.435	12154
879.588	12382
880.74	12300
881.893	12404
883.045	12312
884.197	12306
885.349	12306
886.5	12504
887.652	12496
888.802	12478
889.953	12500
891.104	12408
892.254	12514
893.405	12482
894.555	12696
895.706	12508
896.854	12500
898.004	12696
899.154	12754
900.303	12756
901.453	12772
902.6	12748
903.749	12806
904.898	12942
906.047	12834
907.194	12878
908.342	12726
909.49	12838
910.638	12924
911.785	13042
912.932	13114
914.08	12962
915.225	13066
916.372	13120
917.519	13200
918.666	13204
919.811	13314
920.957	13236
922.102	13330
923.248	13436
924.394	13366
925.538	13444
926.684	13426
927.828	13580
928.973	13548
930.118	13540
931.261	13580
932.406	13648
933.549	13686
934.693	13812
935.836	13764
936.979	13862
938.122	13720
939.265	13842
940.407	13838
941.55	13712
942.692	13908
943.835	14006
944.976	13950
946.118	14094
947.259	14130
948.401	14196
949.542	14096
950.682	14416
951.824	14344
952.964	14388
954.105	14320
955.245	14344
956.385	14612
957.525	14584
958.664	14576
959.803	14602
960.944	14610
962.082	14614
963.221	14624
964.36	14858
965.498	14926
966.636	14892
967.774	14650
968.913	14948
970.051	14970
971.188	14991
972.325	15012
973.463	14836
974.6	15070
975.736	15092
976.873	15064
978.009	15202
979.146	15140
980.282	15250
981.418	15224
982.554	15252
983.689	15294
984.824	15248
985.959	15286
987.095	15326
988.23	15358
989.364	15340
990.499	15430
991.633	15484
992.767	15380
993.9	15550
995.034	15442
996.167	15554
997.301	15722
998.434	15760
999.567	15744
1000.7	15726
1001.83	15888
1002.96	15590
1004.1	15842
1005.23	15826
1006.36	15942
1007.49	15900
1008.62	16040
1009.76	16002
1010.89	16022
1012.02	16072
1013.15	16244
1014.28	16118
1015.41	16396
1016.54	16152
1017.67	16200
1018.8	16268
1019.93	16200
1021.06	16188
1022.19	16372
1023.32	16346
1024.44	16380
1025.57	16598
1026.7	16640
1027.83	16498
1028.96	16522
1030.09	16600
1031.21	16764
1032.34	16902
1033.47	16664
1034.6	16844
1035.72	17024
1036.85	16748
1037.98	16902
1039.1	17172
1040.23	16972
1041.35	17050
1042.48	17118
1043.61	17350
1044.73	17232
1045.86	17282
1046.98	17218
1048.11	17232
1049.23	17278
1050.36	17408
1051.48	17448
1052.61	17406
1053.73	17382
1054.85	17492
1055.98	17590
1057.1	17498
1058.22	17514
1059.35	17702
1060.47	17662
1061.59	17622
1062.72	17676
1063.84	17704
1064.96	17804
1066.08	17850
1067.2	17866
1068.33	18008
1069.45	17818
1070.57	17950
1071.69	17868
1072.81	17950
1073.93	17882
1075.05	17958
1076.17	17994
1077.29	17968
1078.41	17836
1079.53	18008
1080.65	18040
1081.77	18066
1082.89	17948
1084.01	17930
1085.13	18188
1086.25	18134
1087.37	17900
1088.48	18056
1089.6	17954
1090.72	18008
1091.84	17984
1092.96	18104
1094.07	17926
1095.19	18038
1096.31	18082
1097.43	18056
1098.54	17948
1099.66	18012
1100.78	18098
1101.89	17994
1103.01	18190
1104.12	17958
1105.24	18050
1106.35	18112
1107.47	18114
1108.59	18124
1109.7	18194
1110.81	18134
1111.93	18130
1113.04	18154
1114.16	18114
1115.27	18188
1116.39	18210
1117.5	18192
1118.61	18206
1119.73	18204
1120.84	18402
1121.95	18176
1123.06	18300
1124.18	18152
1125.29	18176
1126.4	18382
1127.51	18322
1128.63	18304
1129.74	18166
1130.85	18134
1131.96	18388
1133.07	18234
1134.18	18510
1135.29	18276
1136.4	18344
1137.51	18516
1138.62	18502
1139.73	18480
1140.84	18498
1141.95	18472
1143.06	18504
1144.17	18460
1145.28	18484
1146.39	18514
1147.5	18466
1148.61	18682
1149.72	18496
1150.82	18582
1151.93	18496
1153.04	18528
1154.15	18678
1155.26	18684
1156.36	18696
1157.47	18550
1158.58	18490
1159.68	18714
1160.79	18416
1161.9	18458
1163	18676
1164.11	18600
1165.22	18792
1166.32	18658
1167.43	18606
1168.53	18666
1169.64	18586
1170.74	18532
1171.85	18598
1172.95	18436
1174.06	18412
1175.16	18622
1176.26	18402
1177.37	18444
1178.47	18430
1179.58	18692
1180.68	18474
1181.78	18394
1182.88	18468
1183.99	18260
1185.09	18242
1186.19	18316
1187.3	18342
1188.4	18270
1189.5	18318
1190.6	17992
1191.7	18026
1192.8	18104
1193.9	17996
1195.01	18044
1196.11	17993.8
1197.21	17915.9
1198.31	17924.3
1199.41	17832.3
1200.51	17826.6
1201.61	17903.6
1202.71	17840.4
1203.81	17921.3
1204.91	17864.4
1206.01	17814.4
1207.11	17878.6
1208.2	17745
1209.3	17580.1
1210.4	17583.4
1211.5	17644.7
1212.6	17582.5
1213.7	17601.7
1214.8	17458
1215.89	17515.5
1216.99	17653.2
1218.09	17499.6
1219.18	17421.5
1220.28	17322.6
1221.38	17343.9
1222.48	17324
1223.57	17369.4
1224.67	17331
1225.76	17192
1226.86	17309.4
1227.96	17175.3
1229.05	17141.4
1230.15	17088.1
1231.24	17148.7
1232.34	17095.2
1233.43	17103
1234.53	17104.7
1235.62	17029.1
1236.71	16980.2
1237.81	16990.5
1238.9	16965.1
1240	16925.5
1241.09	16931.7
1242.18	16954.2
1243.28	16886.7
1244.37	16758
1245.46	16767.4
1246.56	16738.1
1247.65	16697.4
1248.74	16826.1
1249.83	16737.7
1250.93	16754.7
1252.02	16684.4
1253.11	16718.6
1254.2	16709.1
1255.29	16605
1256.38	16546.9
1257.47	16649.8
1258.56	16596.7
1259.65	16547.4
1260.74	16493.1
1261.84	16455.3
1262.92	16448.8
1264.01	16459.8
1265.1	16399.6
1266.19	16427.5
1267.28	16381
1268.37	16343.1
1269.46	16367.6
1270.55	16361
1271.64	16371.2
1272.73	16265.6
1273.82	16231.6
1274.9	16303.5
1275.99	16201.4
1277.08	16174.2
1278.17	16113.1
1279.26	16208.8
1280.34	16180.7
1281.43	16144.3
1282.52	16065.8
1283.6	16016.7
1284.69	15996.7
1285.78	16010.5
1286.86	16016.5
1287.95	15964.4
1289.03	15850.6
1290.12	15817.9
1291.21	15932
1292.29	15745.1
1293.38	15734.5
1294.46	15716.4
1295.55	15766.3
1296.63	15660.6
1297.71	15652.6
1298.8	15665.6
1299.88	15529.8
1300.97	15614.8
1302.05	15452.5
1303.13	15530.2
1304.22	15573.9
1305.3	15494.8
1306.38	15473
1307.34	15418
1308.43	15270
1309.52	15260
1310.61	15318
1311.7	15308
1312.78	15278
1313.87	15030
1314.96	15080
1316.05	14952
1317.13	14904
1318.22	15044
1319.3	14984
1320.39	14958
1321.48	14756
1322.56	14882
1323.65	14778
1324.73	14672
1325.82	14744
1326.9	14650
1327.99	14576
1329.07	14646
1330.16	14522
1331.24	14488
1332.33	14562
1333.41	14470
1334.5	14430
1335.58	14186
1336.66	14322
1337.75	14334
1338.83	14242
1339.91	14212
1341	14248
1342.08	14132
1343.16	14128
1344.25	14186
1345.33	14104
1346.41	14042
1347.49	14072
1348.57	13916
1349.65	13904
1350.74	13818
1351.82	13860
1352.9	13692
1353.98	13768
1355.06	13720
1356.14	13466
1357.22	13574
1358.3	13630
1359.38	13624
1360.46	13566
1361.54	13498
1362.62	13504
1363.7	13548
1364.78	13424
1365.86	13348
1366.94	13384
1368.02	13354
1369.09	13406
1370.17	13352
1371.25	13320
1372.33	13190
1373.41	13084
1374.48	13310
1375.56	13142
1376.64	13052
1377.72	13172
1378.79	13064
1379.87	13124
1380.95	13022
1382.02	13030
1383.1	12924
1384.17	12934
1385.25	12888
1386.33	12852
1387.4	12742
1388.48	12766
1389.55	12818
1390.63	12886
1391.7	12850
1392.78	12568
1393.85	12758
1394.93	12708
1396	12642
1397.07	12680
1398.15	12754
1399.22	12698
1400.3	12564
1401.37	12400
1402.44	12564
1403.52	12464
1404.59	12396
1405.66	12410
1406.73	12400
1407.81	12430
1408.88	12362
1409.95	12316
1411.02	12266
1412.09	12252
1413.17	12284
1414.24	12164
1415.31	12246
1416.38	12208
1417.45	12250
1418.52	12238
1419.59	12008
1420.66	12168
1421.73	12096
1422.8	12010
1423.87	12080
1424.94	12096
1426.01	11930
1427.08	12038
1428.15	11866
1429.22	11864
1430.29	12022
1431.35	12040
1432.42	11906
1433.49	11890
1434.56	11896
1435.63	11678
1436.7	11808
1437.76	11718
1438.83	11812
1439.9	11790
1440.96	11868
1442.03	11650
1443.1	11568
1444.17	11694
1445.23	11684
1446.3	11802
1447.36	11614
1448.43	11552
1449.49	11666
1450.56	11606
1451.63	11594
1452.69	11516
1453.76	11614
1454.82	11544
1455.89	11382
1456.95	11538
1458.01	11578
1459.08	11366
1460.14	11356
1461.21	11408
1462.27	11376
1463.34	11268
1464.4	11186
1465.46	11256
1466.52	11322
1467.59	11396
1468.65	11316
1469.71	11268
1470.77	11266
1471.84	11184
1472.9	11292
1473.96	11334
1475.02	11172
1476.08	11164
1477.15	11236
1478.21	11298
1479.27	11216
1480.33	11098
1481.39	11206
1482.45	11062
1483.51	11044
1484.57	11206
1485.63	11028
1486.69	11100
1487.75	11082
1488.81	11072
1489.87	11102
1490.93	11040
1491.99	10920
1493.05	10910
1494.1	11020
1495.16	11000
1496.22	10964
1497.28	10958
1498.34	10898
1499.4	10942
1500.45	10820
1501.51	10860
1502.57	10804
1503.63	10870
1504.68	10962
1505.74	10828
1506.8	10838
1507.85	10602
1508.91	10592
1509.97	10700
1511.02	10670
1512.08	10648
1513.13	10652
1514.19	10644
1515.24	10652
1516.3	10602
1517.35	10594
1518.41	10490
1519.46	10438
1520.52	10514
1521.57	10476
1522.63	10608
1523.68	10394
1524.73	10322
1525.79	10518
1526.84	10512
1527.9	10336
1528.95	10336
1530	10270
1531.06	10284
1532.11	10580
1533.16	10370
1534.21	10320
1535.26	10396
1536.32	10296
1537.37	10246
1538.42	10320
1539.47	10176
1540.52	10080
1541.57	10280
1542.63	10158
1543.68	10136
1544.73	10232
1545.78	10190
1546.83	10130
1547.88	10132
1548.93	9984
1549.98	10038
1551.03	10108
1552.08	10036
1553.13	9988
1554.18	9984
1555.23	10026
1556.27	9986
1557.32	10062
1558.37	9890
1559.42	9860
1560.47	9910
1561.52	9960
1562.56	9932
1563.61	9928
1564.66	9862
1565.71	9860
1566.75	9974
1567.8	9926
1568.85	9922
1569.9	9794
1570.94	9700
1571.99	9874
1573.03	9698
1574.08	9808
1575.13	9926
1576.17	9786
1577.22	9760
1578.26	9788
1579.31	9630
1580.35	9760
1581.4	9888
1582.44	9690
1583.49	9766
1584.53	9578
1585.58	9734
1586.62	9630
1587.66	9710
1588.71	9616
1589.75	9720
1590.8	9582
1591.84	9530
1592.88	9784
1593.93	9598
1594.97	9656
1596.01	9616
1597.05	9618
1598.1	9694
1599.14	9594
1600.18	9632
1601.22	9514
1602.26	9772
1603.31	9556
1604.35	9680
1605.39	9642
1606.43	9596
1607.47	9556
1608.51	9550
1609.55	9644
1610.59	9506
1611.63	9544
1612.67	9526
1613.71	9594
1614.75	9672
1615.79	9518
1616.83	9500
1617.87	9530
1618.91	9554
1619.95	9424
1620.99	9468
1622.02	9588
1623.06	9520
1624.1	9462
1625.14	9564
1626.18	9438
1627.21	9420
1628.25	9392
1629.29	9458
1630.33	9484
1631.36	9410
1632.4	9434
1633.44	9320
1634.48	9394
1635.51	9408
1636.55	9408
1637.58	9392
1638.62	9356
1639.66	9276
1640.69	9336
1641.73	9386
1642.76	9380
1643.8	9294
1644.83	9320
1645.87	9306
1646.9	9294
1647.94	9248
1648.97	9290
1650	9252
1651.04	9278
1652.07	9204
1653.11	9278
1654.14	9204
1655.17	9254
1656.21	9148
1657.24	9098
1658.27	9170
1659.31	9120
1660.34	9152
1661.37	9122
1662.4	9070
1663.43	9106
1664.47	9230
1665.5	9058
1666.53	8952
1667.56	9030
1668.59	9054
1669.62	8990
1670.66	9078
1671.69	8930
1672.72	8976
1673.75	8906
1674.78	9010
1675.81	8922
1676.84	9042
1677.87	8980
1678.9	8882
1679.93	8990
1680.96	8924
1681.98	8970
1683.01	8926
1684.04	8816
1685.07	8878
1686.1	8766
1687.13	8702
1688.16	9000
1689.19	8762
1690.21	8876
1691.24	8808
1692.27	8820
1693.3	8780
1694.32	8766
1695.35	8840
1696.38	8756
1697.4	8782
1698.43	8748
1699.46	8738
1700.48	8704
1701.51	8776
1702.54	8776
1703.56	8550
1704.59	8590
1705.61	8686
1706.64	8660
1707.66	8634
1708.69	8604
1709.71	8628
1710.74	8542
1711.76	8616
1712.79	8646
1713.81	8456
1714.83	8700
1715.86	8558
1716.88	8558
1717.91	8666
1718.93	8540
1719.95	8498
1720.98	8498
1722	8522
1723.02	8546
1724.04	8424
1725.07	8596
1726.09	8360
1727.11	8500
1728.13	8472
1729.15	8438
1730.18	8374
1731.2	8500
1732.22	8442
1733.24	8422
1734.26	8460
1735.28	8346
1736.3	8310
1737.32	8406
1738.34	8330
1739.36	8344
1740.38	8466
1741.4	8450
1742.42	8346
1743.44	8416
1744.46	8380
1745.48	8384
1746.5	8390
1747.52	8408
1748.54	8458
1749.56	8478
1750.58	8342
1751.6	8366
1752.61	8398
1753.63	8274
1754.65	8354
1755.67	8370
1756.68	8380
1757.7	8382
1758.72	8352
1759.74	8380
1760.75	8302
1761.77	8254
1762.79	8226
1763.8	8358
1764.82	8226
1765.84	8390
1766.85	8330
1767.87	8280
1768.88	8234
1769.9	8166
1770.91	8284
1771.93	8252
1772.94	8288
1773.96	8266
1774.97	8224
1775.99	8294
1777	8254
1778.02	8130
1779.03	8354
1780.04	8216
1781.06	8236
1782.07	8198
1783.09	8208
1784.1	8056
1785.11	8244
1786.13	8214
1787.14	8228
1788.15	8268
1789.16	8266
1790.18	8314
1791.19	8174
1792.2	8152
1793.21	8086
1794.22	8178
1795.23	8132
1796.25	8134
1797.26	8118
1798.27	8160
1799.28	8040
1800.29	8102
1801.3	8088
1802.31	8188
1803.32	8098
1804.33	8160
1805.34	8006
1806.35	8082
1807.36	8152
1808.37	8118
1809.38	8046
1810.39	7998
1811.4	7986
1812.41	8006
1813.42	7964
1814.43	8090
1815.43	8078
1816.44	8054
1817.45	8086
1818.46	7984
1819.47	7996
1820.47	8122
1821.48	7998
1822.49	7856
1823.49	7952
1824.5	7964
1825.51	7894
1826.52	7914
1827.52	7940
1828.53	7912
1829.54	7990
1830.54	7908
1831.55	7976
1832.55	7882
1833.56	7834
1834.56	7792
1835.57	7866
1836.57	7960
1837.58	7888
1838.58	7798
1839.59	7888
1840.59	7870
1841.6	7828
1842.6	7788
1843.61	7862
1844.61	7714
1845.61	7732
1846.62	7720
1847.62	7642
1848.62	7764
1849.63	7792
1850.63	7854
1851.63	7712
1852.64	7700
1853.64	7734
1854.64	7702
1855.64	7780
1856.64	7688
1857.65	7724
1858.65	7664
1859.65	7698
1860.65	7690
1861.65	7692
1862.65	7676
1863.65	7756
1864.66	7616
1865.66	7760
1866.66	7582
1867.66	7568
1868.66	7628
1869.66	7592
1870.66	7608
1871.66	7534
1872.66	7584
1873.66	7606
1874.66	7646
1875.65	7506
1876.65	7658
1877.65	7608
1878.65	7404
1879.65	7532
1880.65	7568
1881.65	7582
1882.64	7482
1883.64	7538
1884.64	7476
1885.64	7626
1886.63	7524
1887.63	7578
1888.63	7496
1889.63	7634
1890.62	7600
1891.62	7510
1892.62	7490
1893.61	7448
1894.61	7552
1895.6	7466
1896.6	7486
1897.6	7458
1898.59	7322
1899.59	7442
1900.58	7524
1901.58	7486
1902.57	7500
1903.57	7538
1904.56	7494
1905.56	7560
1906.55	7450
1907.54	7504
1908.54	7504
1909.53	7388
1910.53	7382
1911.52	7618
1912.51	7462
1913.51	7590
1914.5	7398
1915.49	7560
1916.49	7484
1917.48	7470
1918.47	7416
1919.46	7410
1920.46	7422
1921.45	7380
1922.44	7430
1923.43	7436
1924.42	7538
1925.41	7380
1926.41	7476
1927.4	7428
1928.39	7390
1929.38	7314
1930.37	7462
1931.36	7390
1932.35	7444
1933.34	7332
1934.33	7382
1935.32	7438
1936.31	7434
1937.3	7362
1938.29	7296
1939.28	7422
1940.27	7400
1941.26	7264
1942.24	7302
1943.23	7388
1944.22	7382
1945.21	7302
1946.2	7222
1947.19	7336
1948.17	7334
1949.16	7438
1950.15	7323
1951.14	7208
1952.13	7182
1953.11	7222
1954.1	7306
1955.09	7346
1956.07	7192
1957.06	7294
1958.05	7304
1959.03	7156
1960.02	7200
1961	7248
1961.99	7242
1962.98	7224
1963.96	7248
1964.95	7188
1965.93	7268
1966.92	7216
1967.9	7104
1968.89	7216
1969.87	7214
1970.85	7168
1971.84	7180
1972.82	7268
1973.81	7178
1974.79	7246
1975.78	7112
1976.76	7080
1977.74	7078
1978.73	7120
1979.71	7146
1980.69	7054
1981.67	7156
1982.66	7132
1983.64	7112
1984.62	7200
1985.6	7092
1986.59	7166
1987.57	7080
1988.55	7154
1989.53	7080
1990.51	7098
1991.49	7088
1992.47	7120
1993.45	7054
1994.44	6984
1995.42	7060
1996.4	6996
1997.38	6958
1998.36	7060
1999.34	7044
2000.32	7058
2001.3	7098
2002.28	6936
2003.26	6962
2004.24	7084
2005.22	7024
2006.19	6994
2007.17	7158
2008.15	7004
2009.13	6926
2010.11	7004
2011.09	6960
2012.06	7034
2013.04	7002
2014.02	6950
2015	6976
2015.98	7048
2016.95	6932
2017.93	6876
2018.91	6868
2019.88	6894
2020.86	6984
2021.84	6976
2022.81	6998
2023.79	6932
2024.77	6980
2025.74	6928
2026.72	6862
2027.69	7098
2028.67	6934
2029.65	7002
2030.62	6904
2031.6	6912
2032.57	6888
2033.55	6896
2034.52	6926
2035.5	6814
2036.47	6830
2037.44	6798
2038.42	6938
2039.39	6848
2040.36	6940
2041.34	6872
2042.31	6880
2043.29	7028
2044.26	6884
2045.23	6872
2046.2	6878
2047.18	6904
2048.15	6788
2049.12	6910
2050.09	6832
2051.07	6816
2052.04	6736
2053.01	6762
2053.98	6814
2054.95	6796
2055.93	6686
2056.9	6770
2057.87	6760
2058.84	6752
2059.81	6852
2060.78	6772
2061.75	6802
2062.72	6826
2063.69	6798
2064.66	6832
2065.63	6720
2066.6	6760
2067.57	6786
2068.54	6818
2069.51	6810
2070.48	6604
2071.45	6624
2072.42	6672
2073.38	6774
2074.35	6712
2075.32	6716
2076.29	6666
2077.26	6686
2078.23	6694
2079.19	6626
2080.16	6658
2081.13	6642
2082.1	6676
2083.06	6572
2084.03	6702
2085	6636
2085.96	6674
2086.93	6634
2087.9	6670
2088.86	6636
2089.83	6554
2090.8	6730
2091.76	6586
2092.73	6748
2093.69	6740
2094.66	6514
2095.62	6640
2096.59	6608
2097.55	6618
2098.52	6472
2099.48	6568
2100.45	6642
2101.41	6642
2102.38	6518
2103.34	6636
2104.31	6604
2105.27	6558
2106.23	6542
2107.2	6522
2108.16	6548
2109.12	6518
2110.09	6520
2111.05	6594
2112.01	6544
2112.98	6528
2113.94	6596
2114.9	6510
2115.86	6482
2116.82	6556
2117.79	6470
2118.75	6542
2119.71	6548
2120.67	6502
2121.63	6534
2122.59	6534
2123.55	6498
2124.52	6630
2125.48	6498
2126.44	6522
2127.4	6520
2128.36	6460
2129.32	6460
2130.28	6520
2131.24	6434
2132.2	6338
2133.16	6502
2134.12	6510
2135.08	6438
2136.04	6466
2136.99	6340
2137.95	6490
2138.91	6474
2139.87	6430
2140.83	6390
2141.79	6490
2142.75	6480
2143.7	6450
2144.66	6400
2145.62	6424.02
2146.58	6325.71
2147.53	6403.47
2148.49	6381.65
2149.45	6325.65
2150.41	6382.8
2151.36	6268.63
2152.32	6413.42
2153.28	6359.88
2154.23	6320.13
2155.19	6299.35
2156.14	6299.44
2157.1	6290.01
2158.06	6239.43
2159.01	6361.59
2159.97	6297.64
2160.92	6277.29
2161.88	6322.39
2162.83	6266.75
2163.79	6264.29
2164.74	6319.48
2165.7	6253.58
2166.65	6274.68
2167.61	6208.32
2168.56	6210.09
2169.51	6202.98
2170.47	6241.24
2171.42	6204.26
2172.38	6229.06
2173.33	6208
2174.28	6195.07
2175.24	6202.64
2176.19	6205.37
2177.14	6141.34
2178.09	6146.3
2179.05	6161.85
2180	6156.81
2180.95	6201.35
2181.9	6160.35
2182.86	6081.77
2183.81	6165.94
2184.76	6183.62
2185.71	6120.9
2186.66	6109.85
2187.61	6145.68
2188.57	6127.97
2189.52	6108.81
2190.47	6117.58
2191.42	6083.5
2192.37	6058.62
2193.32	6050.89
2194.27	6070.11
2195.22	6114.89
2196.17	6124.95
2197.12	6075.34
2198.07	6130.38
2199.02	6048.23
2199.97	6067.77
2200.92	6132.02
2201.87	6110.61
2202.82	6082.39
2203.76	6053.68
2204.71	6068.94
2205.66	6072.23
2206.61	6120.81
2207.56	6099.28
2208.51	6097.34
2209.45	6056.14
2210.4	6069.66
2211.35	6073.23
2212.3	6086.06
2213.25	6057.71
2214.19	5994.34
2215.14	6027.58
2216.09	6049.9
2217.03	5999.3
2217.98	6028.67
2218.93	6038.69
2219.87	6010.11
2220.82	5974.12
2221.77	6041.37
2222.71	6051.57
2223.66	6025.9
2224.6	6011.68
2225.55	6014.73
2226.49	6029.19
2227.44	6067.32
2228.38	6031.92
2229.33	6023.38
2230.27	6056.45
2231.22	6049.03
2232.16	6050.3
2233.11	6074.18
2234.05	6040.56
2235	6050.27
2235.94	6024.4
2236.88	6025.51
2237.83	6072.62
2238.77	6058.55
2239.72	6053.32
2240.66	6055.07
2241.6	6073.08
2242.07	6112
2243.02	6072
2243.97	6052
2244.92	6100
2245.87	5990
2246.81	5976
2247.76	5964
2248.71	5980
2249.65	6018
2250.6	6024
2251.55	5982
2252.49	5972
2253.44	6058
2254.39	5978
2255.33	6048
2256.28	6000
2257.22	6044
2258.17	5932
2259.12	5952
2260.06	5964
2261.01	5950
2261.95	6042
2262.9	6016
2263.84	5996
2264.78	5982
2265.73	6044
2266.67	5892
2267.62	6048
2268.56	5984
2269.51	5958
2270.45	5906
2271.39	5938
2272.34	5962
2273.28	6004
2274.22	5986
2275.17	5876
2276.11	5928
2277.05	5966
2277.99	5988
2278.94	5986
2279.88	5950
2280.82	5928
2281.76	6036
2282.71	5834
2283.65	5894
2284.59	5922
2285.53	5856
2286.47	5918
2287.41	5936
2288.35	5928
2289.3	5904
2290.24	5848
2291.18	5908
2292.12	5872
2293.06	5858
2294	5838
2294.94	5820
2295.88	5812
2296.82	5986
2297.76	5926
2298.7	5812
2299.64	5810
2300.58	5902
2301.52	5858
2302.46	5814
2303.39	5738
2304.33	5764
2305.27	5822
2306.21	5788
2307.15	5742
2308.09	5836
2309.02	5846
2309.96	5760
2310.9	5802
2311.84	5812
2312.77	5816
2313.71	5816
2314.65	5862
2315.59	5758
2316.52	5794
2317.46	5802
2318.4	5816
2319.33	5842
2320.27	5698
2321.21	5714
2322.14	5718
2323.08	5756
2324.01	5694
2324.95	5744
2325.89	5784
2326.82	5810
2327.76	5680
2328.69	5782
2329.63	5760
2330.56	5670
2331.5	5730
2332.43	5720
2333.36	5700
2334.3	5734
2335.23	5738
2336.17	5744
2337.1	5608
2338.03	5710
2338.97	5668
2339.9	5706
2340.83	5718
2341.77	5790
2342.7	5662
2343.63	5678
2344.57	5730
2345.5	5620
2346.43	5646
2347.36	5680
2348.3	5544
2349.23	5594
2350.16	5608
2351.09	5636
2352.02	5608
2352.95	5574
2353.89	5600
2354.82	5668
2355.75	5558
2356.68	5612
2357.61	5578
2358.54	5638
2359.47	5574
2360.4	5652
2361.33	5556
2362.26	5582
2363.19	5532
2364.12	5724
2365.05	5602
2365.98	5626
2366.91	5646
2367.84	5574
2368.77	5460
2369.7	5560
2370.63	5602
2371.56	5532
2372.48	5524
2373.41	5588
2374.34	5592
2375.27	5552
2376.2	5524
2377.12	5532
2378.05	5570
2378.98	5498
2379.91	5544
2380.84	5528
2381.76	5514
2382.69	5548
2383.62	5500
2384.54	5538
2385.47	5524
2386.4	5444
2387.32	5506
2388.25	5404
2389.18	5528
2390.1	5458
2391.03	5506
2391.95	5454
2392.88	5470
2393.8	5434
2394.73	5464
2395.65	5358
2396.58	5426
2397.5	5462
2398.43	5354
2399.35	5396
2400.28	5424
2401.2	5400
2402.13	5450
2403.05	5384
2403.97	5508
2404.9	5464
2405.82	5448
2406.75	5436
2407.67	5398
2408.59	5466
2409.51	5320
2410.44	5430
2411.36	5394
2412.28	5464
2413.21	5390
2414.13	5406
2415.05	5434
2415.97	5384
2416.9	5376
2417.82	5258
2418.74	5286
2419.66	5314
2420.58	5328
2421.5	5402
2422.42	5422
2423.35	5378
2424.27	5380
2425.19	5290
2426.11	5298
2427.03	5260
2427.95	5328
2428.87	5330
2429.79	5258
2430.71	5258
2431.63	5290
2432.55	5252
2433.47	5244
2434.39	5408
2435.31	5258
2436.23	5222
2437.14	5154
2438.06	5194
2438.98	5168
2439.9	5330
2440.82	5198
2441.74	5252
2442.66	5170
2443.57	5112
2444.49	5196
2445.41	5228
2446.33	5306
2447.24	5268
2448.16	5234
2449.08	5176
2450	5234
2450.91	5190
2451.83	5186
2452.75	5232
2453.66	5178
2454.58	5178
2455.5	5152
2456.41	5198
2457.33	5176
2458.24	5144
2459.16	5208
2460.08	5162
2460.99	5154
2461.91	5178
2462.82	5192
2463.74	5142
2464.65	5136
2465.57	5144
2466.48	5120
2467.4	5106
2468.31	5126
2469.22	5050
2470.14	5072
2471.05	5178
2471.97	5108
2472.88	5058
2473.79	5112
2474.71	5082
2475.62	5114
2476.53	5206
2477.45	5158
2478.36	5098
2479.27	5098
2480.19	5076
2481.1	5060
2482.01	5084
2482.92	5040
2483.83	5056
2484.75	4988
2485.66	5074
2486.57	5042
2487.48	5078
2488.39	5040
2489.3	4996
2490.22	4988
2491.13	5006
2492.04	4942
2492.95	5038
2493.86	4942
2494.77	4964
2495.68	5044
2496.59	4992
2497.5	4944
2498.41	4940
2499.32	4976
2500.23	4994
2501.14	4960
2502.05	4956
2502.96	4964
2503.87	4838
2504.78	4934
2505.68	5014
2506.59	4900
2507.5	4852
2508.41	4900
2509.32	4884
2510.23	4814
2511.14	4904
2512.04	4912
2512.95	4836
2513.86	4894
2514.77	4860
2515.67	4918
2516.58	4826
2517.49	4836
2518.39	4850
2519.3	4954
2520.21	4818
2521.11	4900
2522.02	4822
2522.93	4870
2523.83	4782
2524.74	4830
2525.65	4878
2526.55	4810
2527.46	4802
2528.36	4888
2529.27	4742
2530.17	4806
2531.08	4816
2531.98	4742
2532.89	4806
2533.79	4836
2534.7	4766
2535.6	4718
2536.51	4766
2537.41	4656
2538.32	4694
2539.22	4722
2540.12	4744
2541.03	4680
2541.93	4728
2542.83	4676
2543.74	4700
2544.64	4674
2545.54	4804
2546.45	4632
2547.35	4620
2548.25	4560
2549.15	4658
2550.06	4682
2550.96	4654
2551.86	4678
2552.76	4694
2553.66	4578
2554.56	4566
2555.47	4510
2556.37	4642
2557.27	4602
2558.17	4622
2559.07	4606
2559.97	4600
2560.87	4610
2561.77	4620
2562.67	4624
2563.58	4672
2564.47	4542
2565.38	4544
2566.27	4572
2567.18	4554
2568.07	4576
2568.97	4540
2569.87	4636
2570.77	4536
2571.67	4512
2572.57	4564
2573.47	4532
2574.37	4528
2575.27	4562
2576.17	4594
2577.06	4574
2577.96	4428
2578.86	4550
2579.76	4528
2580.66	4532
2581.55	4500
2582.45	4428
2583.35	4508
2584.25	4520
2585.14	4388
2586.04	4470
2586.94	4432
2587.83	4508
2588.73	4454
2589.63	4396
2590.52	4414
2591.42	4532
2592.32	4448
2593.21	4416
2594.11	4348
2595	4462
2595.9	4404
2596.8	4412
2597.69	4312
2598.59	4392
2599.48	4404
2600.38	4308
2601.27	4450
2602.17	4332
2603.06	4416
2603.95	4236
2604.85	4334
2605.74	4364
2606.64	4360
2607.53	4388
2608.42	4364
2609.32	4308
2610.21	4320
2611.1	4254
2612	4374
2612.89	4342
2613.78	4256
2614.68	4348
2615.57	4328
2616.46	4326
2617.36	4248
2618.25	4286
2619.14	4326
2620.03	4208
2620.92	4190
2621.82	4312
2622.71	4230
2623.6	4210
2624.49	4186
2625.38	4228
2626.27	4212
2627.16	4268
2628.05	4216
2628.95	4210
2629.84	4260
2630.73	4190
2631.62	4242
2632.51	4140
2633.4	4132
2634.29	4140
2635.18	4170
2636.07	4126
2636.96	4162
2637.85	4148
2638.74	4156
2639.62	4076
2640.51	4158
2641.4	4102
2642.29	4130
2643.18	4152
2644.07	4096
2644.96	4126
2645.85	4110
2646.73	4082
2647.62	4074
2648.51	4104
2649.4	4064
2650.28	3988
2651.17	4098
2652.06	4118
2652.95	4086
2653.83	4036
2654.72	4082
2655.61	4094
2656.5	3992
2657.38	4096
2658.27	3998
2659.15	4028
2660.04	4044
2660.93	4014
2661.81	4012
2662.7	3994
2663.58	4054
2664.47	3974
2665.35	4036
2666.24	3894
2667.13	3986
2668.01	4016
2668.9	4036
2669.78	4050
2670.66	4016
2671.55	3906
2672.43	4020
2673.32	4050
2674.2	3938
2675.09	3898
2675.97	3956
2676.85	3968
2677.74	3916
2678.62	3950
2679.5	3926
2680.39	3908
2681.27	4038
2682.15	3974
2683.04	3962
2683.92	3968
2684.8	3890
2685.68	3956
2686.57	3962
2687.45	3902
2688.33	3908
2689.21	3910
2690.09	3848
2690.98	3900
2691.86	3844
2692.74	3858
2693.62	3786
2694.5	3878
2695.38	3854
2696.26	3780
2697.15	3828
2698.03	3898
2698.91	3768
2699.79	3772
2700.67	3910
2701.55	3896
2702.43	3914
2703.31	3806
2704.19	3754
2705.07	3782
2705.95	3782
2706.83	3822
2707.7	3740
2708.58	3820
2709.46	3766
2710.34	3750
2711.22	3790
2712.1	3724
2712.98	3808
2713.86	3666
2714.73	3722
2715.61	3734
2716.49	3724
2717.37	3736
2718.25	3754
2719.12	3674
2720	3666
2720.88	3724
2721.76	3748
2722.63	3708
2723.51	3658
2724.39	3652
2725.26	3776
2726.14	3722
2727.02	3580
2727.89	3680
2728.77	3642
2729.64	3670
2730.52	3710
2731.4	3636
2732.27	3646
2733.15	3662
2734.02	3584
2734.9	3638
2735.77	3640
2736.65	3626
2737.52	3688
2738.4	3646
2739.27	3552
2740.15	3520
2741.02	3576
2741.9	3496
2742.77	3596
2743.64	3660
2744.52	3518
2745.39	3600
2746.27	3596
2747.14	3488
2748.01	3524
2748.89	3538
2749.76	3552
2750.63	3544
2751.51	3456
2752.38	3516
2753.25	3454
2754.12	3510
2755	3494
2755.87	3480
2756.74	3528
2757.61	3492
2758.48	3520
2759.35	3524
2760.23	3472
2761.1	3454
2761.97	3450
2762.84	3472
2763.71	3476
2764.58	3490
2765.45	3422
2766.32	3434
2767.19	3426
2768.07	3436
2768.94	3438
2769.81	3354
2770.68	3400
2771.55	3400
2772.42	3430
2773.29	3402
2774.16	3466
2775.02	3288
2775.89	3402
2776.76	3424
2777.63	3392
2778.5	3400
2779.37	3420
2780.24	3398
2781.11	3370
2781.98	3368
2782.84	3422
2783.71	3304
2784.58	3388
2785.45	3360
2786.32	3356
2787.18	3362
2788.05	3294
2788.92	3330
2789.79	3398
2790.65	3296
2791.52	3326
2792.39	3298
2793.25	3322
2794.12	3314
2794.99	3310
2795.85	3270
2796.72	3288
2797.59	3364
2798.45	3240
2799.32	3240
2800.18	3266
2801.05	3326
2801.92	3264
2802.78	3248
2803.65	3243
2804.51	3238
2805.38	3204
2806.24	3298
2807.11	3276
2807.97	3266
2808.84	3170
2809.7	3232
2810.57	3242
2811.43	3260
2812.29	3242
2813.16	3180
2814.02	3214
2814.88	3194
2815.75	3238
2816.61	3172
2817.47	3084
2818.34	3176
2819.2	3200
2820.06	3144
2820.93	3108
2821.79	3188
2822.65	3146
2823.51	3094
2824.38	3204
2825.24	3236
2826.1	3140
2826.96	3110
2827.82	3144
2828.69	3174
2829.55	3172
2830.41	3130
2831.27	3102
2832.13	3164
2832.99	3066
2833.85	3072
2834.71	3096
2835.57	3152
2836.44	3080
2837.3	3042
2838.16	3072
2839.02	3058
2839.88	3142
2840.74	3046
2841.6	3056
2842.46	3118
2843.32	2992
2844.18	3008
2845.03	3058
2845.89	3018
2846.75	3040
2847.61	3026
2848.47	3032
2849.33	3016
2850.19	2970
2851.05	2992
2851.9	3068
2852.76	2972
2853.62	3000
2854.48	3060
2855.34	2940
2856.19	2944
2857.05	2962
2857.91	3052
2858.77	2958
2859.62	2980
2860.48	2934
2861.34	2934
2862.19	2944
2863.05	2984
2863.91	2962
2864.76	2858
2865.62	2860
2866.48	2982
2867.33	2878
2868.19	2914
2869.04	2914
2869.9	2882
2870.76	2898
2871.61	2872
2872.47	2906
2873.32	2926
2874.18	2940
2875.03	2916
2875.89	2918
2876.74	2892
2877.6	2858
2878.45	2850
2879.31	2852
2880.16	2810
2881.01	2874
2881.87	2824
2882.72	2828
2883.58	2858
2884.43	2850
2885.28	2810
2886.14	2850
2886.99	2910
2887.84	2816
2888.7	2762
2889.55	2808
2890.4	2856
2891.25	2810
2892.11	2766
2892.96	2780
2893.81	2792
2894.66	2704
2895.52	2770
2896.37	2800
2897.22	2752
2898.07	2766
2898.92	2764
2899.77	2770
2900.62	2800
2901.48	2796
2902.33	2770
2903.18	2832
2904.03	2758
2904.88	2734
2905.73	2752
2906.58	2784
2907.43	2776
2908.28	2770
2909.13	2798
2909.98	2718
2910.83	2708
2911.68	2738
2912.53	2750
2913.38	2698
2914.23	2720
2915.08	2712
2915.93	2742
2916.78	2728
2917.63	2732
2918.47	2724
2919.32	2682
2920.17	2706
2921.02	2692
2921.87	2684
2922.72	2672
2923.56	2694
2924.41	2698
2925.26	2724
2926.11	2658
2926.95	2684
2927.8	2678
2928.65	2652
2929.5	2688
2930.34	2662
2931.19	2664
2932.04	2666
2932.88	2672
2933.73	2688
2934.58	2658
2935.42	2642
2936.27	2658
2937.11	2608
2937.96	2678
2938.81	2682
2939.65	2586
2940.5	2676
2941.34	2616
2942.19	2694
2943.03	2664
2943.88	2648
2944.72	2584
2945.57	2576
2946.41	2620
2947.26	2652
2948.1	2596
2948.95	2602
2949.79	2652
2950.64	2570
2951.48	2586
2952.32	2594
2953.17	2566
2954.01	2570
2954.85	2580
2955.7	2598
2956.54	2568
2957.38	2590
2958.23	2574
2959.07	2590
2959.91	2574
2960.75	2570
2961.6	2556
2962.44	2516
2963.28	2562
2964.12	2504
2964.97	2534
2965.81	2520
2966.65	2470
2967.49	2500
2968.33	2496
2969.17	2502
2970.02	2484
2970.86	2516
2971.7	2576
2972.54	2464
2973.38	2494
2974.22	2468
2975.06	2462
2975.9	2480
2976.74	2478
2977.58	2474
2978.42	2442
2979.26	2456
2980.1	2408
2980.94	2468
2981.78	2492
2982.62	2432
2983.46	2458
2984.3	2416
2985.14	2470
2985.98	2410
2986.82	2362
2987.66	2440
2988.49	2460
2989.33	2424
2990.17	2412
2991.01	2346
2991.85	2368
2992.69	2416
2993.52	2442
2994.36	2372
2995.2	2428
2996.04	2424
2996.87	2424
2997.71	2452
2998.55	2418
2999.39	2404
