#Acq. time (s)=	10
#Accumulations=	1
#Range (cm-¹)=	100...3000
#Windows=	3
#Autofocus=	Off
#AutoExposure=	Off
#Spike filter=	Off
#Delay time (s)=	0
#Binning=	1
#Readout mode=	Signal
#DeNoise=	Off
#ICS correction=	Off
#Dark correction=	Off
#Inst. Process=	Off
#Instrument=	LabRAM HR Evol
#Detector=	Syncerity OE
#Objective=	x100_VIS
#Grating=	600 (500nm)
#ND Filter=	3.2%
#Laser=	633nm_Edge
#Hole=	100.021
#Range=	Visible
#Project=	Omar
#Sample=	26-06-23
#Site=	2
#Title=	Organic
#Remark=	
#Date=	26.06.2023 16:23
#Acquired=	26.06.2023 16:23:43
101.018	3968
102.302	3880
103.586	3938
104.869	3888
106.152	3922
107.435	3922
108.717	3978
109.999	3970
111.281	3980
112.563	3904
113.845	3956
115.126	3978
116.407	3978
117.688	4008
118.969	4036
120.249	4056
121.53	4046
122.81	3944
124.09	3994
125.369	3968
126.649	4004
127.928	4016
129.207	3970
130.486	4040
131.765	4118
133.043	4002
134.321	4074
135.599	4074
136.877	4178
138.155	4102
139.432	4122
140.708	4112
141.985	4162
143.261	4116
144.538	4106
145.814	4092
147.09	4154
148.366	4060
149.641	4180
150.916	4164
152.191	4158
153.466	4260
154.741	4188
156.016	4170
157.289	4182
158.563	4172
159.837	4136
161.111	4206
162.385	4202
163.657	4150
164.93	4208
166.203	4232
167.476	4234
168.747	4244
170.019	4166
171.291	4238
172.562	4240
173.834	4258
175.105	4250
176.377	4188
177.646	4236
178.917	4284
180.188	4380
181.457	4192
182.727	4258
183.996	4228
185.266	4326
186.536	4340
187.804	4288
189.073	4382
190.342	4304
191.609	4332
192.878	4318
194.145	4370
195.413	4416
196.681	4324
197.948	4372
199.215	4408
200.481	4414
201.749	4472
203.014	4526
204.281	4486
205.546	4464
206.813	4478
208.077	4502
209.343	4460
210.608	4472
211.873	4488
213.137	4504
214.402	4532
215.666	4502
216.93	4474
218.194	4574
219.458	4548
220.721	4568
221.983	4558
223.247	4624
224.509	4580
225.772	4588
227.034	4600
228.295	4598
229.558	4586
230.819	4674
232.081	4678
233.342	4660
234.602	4674
235.864	4628
237.124	4790
238.384	4602
239.645	4742
240.904	4772
242.164	4674
243.423	4786
244.683	4826
245.941	4804
247.2	4692
248.46	4802
249.717	4768
250.975	4826
252.233	4726
253.492	4778
254.749	4840
256.006	4736
257.263	4790
258.519	4830
259.777	4848
261.033	4778
262.289	4840
263.545	4818
264.8	4786
266.057	4846
267.312	4780
268.567	4758
269.822	4780
271.076	4858
272.331	4848
273.585	4868
274.839	4902
276.094	4772
277.347	4856
278.601	4914
279.854	4892
281.107	4896
282.359	4910
283.612	4906
284.864	4902
286.116	4810
287.368	4902
288.62	4960
289.871	4958
291.123	4964
292.374	5068
293.625	5040
294.875	4930
296.126	4998
297.376	5048
298.626	5070
299.876	5010
301.126	5044
302.375	5102
303.625	5066
304.874	5166
306.122	5170
307.371	5126
308.62	5126
309.866	5124
311.114	5206
312.362	5202
313.61	5086
314.857	5232
316.105	5118
317.352	5190
318.599	5218
319.844	5208
321.09	5262
322.337	5236
323.583	5296
324.828	5186
326.073	5120
327.318	5280
328.563	5248
329.808	5248
331.053	5360
332.296	5280
333.541	5234
334.785	5246
336.029	5346
337.272	5296
338.515	5336
339.759	5332
341.001	5294
342.244	5262
343.486	5386
344.728	5372
345.97	5380
347.212	5342
348.453	5414
349.695	5430
350.936	5380
352.176	5512
353.418	5398
354.659	5486
355.898	5438
357.139	5434
358.378	5534
359.618	5462
360.858	5454
362.097	5486
363.336	5546
364.574	5478
365.813	5526
367.051	5504
368.29	5504
369.527	5498
370.766	5570
372.002	5496
373.241	5494
374.477	5406
375.715	5624
376.951	5442
378.188	5502
379.424	5534
380.66	5562
381.896	5618
383.132	5558
384.367	5574
385.603	5602
386.838	5712
388.072	5602
389.307	5572
390.541	5508
391.776	5666
393.01	5654
394.243	5518
395.477	5576
396.71	5658
397.943	5688
399.177	5688
400.409	5798
401.641	5744
402.875	5652
404.106	5758
405.338	5706
406.57	5800
407.802	5792
409.032	5804
410.263	5734
411.495	5840
412.725	5814
413.955	5848
415.185	5856
416.417	5890
417.646	5816
418.875	5900
420.104	5884
421.335	5894
422.564	6030
423.792	6006
425.02	5922
426.249	5982
427.477	6052
428.706	6112
429.933	6108
431.161	6010
432.388	6070
433.615	6084
434.841	6228
436.068	6076
437.294	6106
438.522	6228
439.748	6186
440.974	6110
442.199	6108
443.425	6078
444.65	6186
445.875	6098
447.1	6202
448.324	6168
449.549	6136
450.773	6132
451.997	6194
453.221	6192
454.445	6124
455.668	6138
456.891	6228
458.114	6184
459.337	6244
460.56	6210
461.782	6254
463.005	6170
464.227	6170
465.447	6212
466.669	6238
467.89	6332
469.112	6266
470.333	6274
471.554	6374
472.774	6356
473.995	6382
475.214	6372
476.434	6370
477.654	6358
478.874	6392
480.093	6390
481.312	6316
482.53	6368
483.749	6406
484.968	6394
486.186	6432
487.405	6346
488.622	6392
489.84	6572
491.057	6494
492.275	6478
493.491	6478
494.708	6590
495.925	6512
497.141	6488
498.357	6692
499.574	6530
500.789	6624
502.005	6588
503.221	6718
504.435	6524
505.65	6628
506.866	6632
508.079	6706
509.294	6610
510.509	6618
511.722	6734
512.936	6708
514.149	6634
515.363	6676
516.577	6640
517.789	6756
519.002	6704
520.214	6758
521.427	6710
522.638	6794
523.851	6814
525.062	6776
526.274	6784
527.485	6734
528.697	6652
529.907	6778
531.118	6820
532.328	6724
533.539	6736
534.748	6786
535.959	6852
537.168	6862
538.379	6890
539.587	6780
540.796	6852
542.005	6776
543.214	6806
544.423	6878
545.631	6772
546.838	6816
548.047	6888
549.254	6882
550.461	6904
551.669	6888
552.876	6864
554.082	6852
555.29	6972
556.496	7016
557.701	6930
558.909	6908
560.114	6960
561.319	7002
562.524	7068
563.731	7008
564.935	7064
566.14	6946
567.344	7034
568.549	7112
569.753	7110
570.957	7040
572.161	7138
573.364	7188
574.568	7142
575.771	7112
576.974	7210
578.177	7290
579.379	7326
580.581	7206
581.785	7248
582.987	7276
584.188	7274
585.39	7348
586.591	7268
587.792	7226
588.993	7368
590.193	7338
591.394	7432
592.594	7316
593.796	7362
594.996	7338
596.195	7490
597.395	7520
598.594	7502
599.793	7414
600.992	7474
602.191	7564
603.39	7598
604.588	7532
605.786	7424
606.984	7556
608.181	7488
609.378	7598
610.576	7644
611.773	7616
612.97	7600
614.167	7706
615.364	7694
616.56	7708
617.757	7762
618.953	7814
620.149	7848
621.343	7736
622.539	7752
623.734	7876
624.929	7890
626.124	7868
627.319	7972
628.512	8018
629.707	7992
630.901	8062
632.095	7938
633.289	7998
634.481	8110
635.675	8064
636.868	8146
638.061	8022
639.253	8090
640.446	8124
641.638	8206
642.831	8272
644.021	8242
645.213	8250
646.405	8274
647.595	8290
648.787	8212
649.978	8392
651.168	8430
652.359	8322
653.549	8414
654.738	8344
655.929	8386
657.117	8342
658.307	8460
659.497	8430
660.685	8470
661.875	8532
663.063	8506
664.252	8464
665.439	8506
666.628	8524
667.816	8650
669.003	8662
670.191	8686
671.378	8614
672.565	8622
673.751	8606
674.939	8702
676.124	8658
677.311	8638
678.497	8800
679.682	8716
680.868	8838
682.053	8754
683.239	8744
684.424	8756
685.609	8820
686.793	9000
687.977	8950
689.162	8872
690.346	8860
691.529	8858
692.714	9042
693.897	9002
695.081	8994
696.264	8980
697.446	9090
698.63	9060
699.812	8974
700.993	9040
702.175	9138
703.358	9078
704.539	9182
705.72	9146
706.901	9246
708.083	9206
709.264	9424
710.444	9294
711.625	9306
712.806	9480
713.986	9382
715.165	9466
716.345	9438
717.524	9528
718.705	9448
719.884	9500
721.062	9492
722.241	9554
723.419	9544
724.597	9632
725.775	9756
726.954	9706
728.132	9674
729.31	9644
730.487	9746
731.664	9816
732.841	9828
734.017	9740
735.194	9774
736.37	9842
737.546	10002
738.722	9920
739.898	10010
741.074	9932
742.249	10074
743.424	10034
744.599	10134
745.774	9976
746.949	9956
748.123	10152
749.298	10060
750.472	10180
751.646	10104
752.819	10302
753.993	10260
755.166	10274
756.34	10348
757.511	10372
758.684	10340
759.857	10364
761.029	10302
762.202	10536
763.374	10488
764.546	10446
765.716	10558
766.888	10382
768.059	10496
769.23	10600
770.401	10732
771.571	10662
772.741	10718
773.912	10660
775.082	10676
776.251	10810
777.421	10636
778.59	10756
779.76	10824
780.928	10764
782.097	10880
783.266	10974
784.434	10910
785.602	10840
786.771	10956
787.938	11040
789.106	11012
790.274	11076
791.44	11118
792.608	11128
793.775	11086
794.941	11144
796.108	11188
797.273	11182
798.44	11360
799.606	11310
800.771	11246
801.937	11426
803.102	11372
804.268	11526
805.432	11448
806.597	11480
807.761	11606
808.926	11550
810.09	11600
811.254	11692
812.417	11824
813.582	11778
814.744	11826
815.908	11856
817.071	11858
818.234	11942
819.396	12012
820.558	11942
821.721	11940
822.883	12098
824.045	12106
825.206	11930
826.367	12176
827.529	12088
828.69	12320
829.85	12362
831.012	12478
832.172	12438
833.332	12562
834.493	12552
835.653	12498
836.812	12706
837.972	12606
839.131	12604
840.29	12678
841.449	12676
842.609	12800
843.767	12844
844.925	12748
846.083	12756
847.242	12920
848.399	12876
849.557	12788
850.714	13062
851.871	13052
853.029	13200
854.186	13146
855.342	13224
856.498	13300
857.654	13250
858.81	13396
859.966	13222
861.122	13416
862.278	13422
863.434	13484
864.589	13574
865.744	13532
866.898	13646
868.053	13758
869.207	13768
870.361	13650
871.515	13748
872.669	13574
873.822	13796
874.976	13846
876.129	13892
877.282	13906
878.435	13772
879.588	13956
880.74	14032
881.893	13942
883.045	13930
884.197	14252
885.349	14200
886.5	14104
887.652	14236
888.802	14206
889.953	14284
891.104	14398
892.254	14270
893.405	14220
894.555	14170
895.706	14416
896.854	14438
898.004	14442
899.154	14388
900.303	14554
901.453	14518
902.6	14652
903.749	14596
904.898	14704
906.047	14608
907.194	14546
908.342	14860
909.49	14676
910.638	14832
911.785	14812
912.932	15026
914.08	14906
915.225	14976
916.372	14908
917.519	15056
918.666	14864
919.811	14998
920.957	15014
922.102	15154
923.248	15240
924.394	15320
925.538	15392
926.684	15334
927.828	15312
928.973	15356
930.118	15600
931.261	15526
932.406	15494
933.549	15618
934.693	15718
935.836	15728
936.979	15790
938.122	15820
939.265	15960
940.407	15794
941.55	15952
942.692	16066
943.835	16078
944.976	16142
946.118	16132
947.259	16210
948.401	16246
949.542	16446
950.682	16268
951.824	16320
952.964	16398
954.105	16706
955.245	16752
956.385	16580
957.525	16684
958.664	16764
959.803	16742
960.944	16790
962.082	16854
963.221	16788
964.36	16978
965.498	17106
966.636	17014
967.774	17094
968.913	17030
970.051	17176
971.188	17230
972.325	17284
973.463	17454
974.6	17302
975.736	17380
976.873	17356
978.009	17370
979.146	17392
980.282	17560
981.418	17540
982.554	17560
983.689	17648
984.824	17514
985.959	17566
987.095	17672
988.23	17750
989.364	17700
990.499	17750
991.633	17830
992.767	17794
993.9	17944
995.034	17734
996.167	17992
997.301	17944
998.434	18100
999.567	18094
1000.7	18094
1001.83	18250
1002.96	18210
1004.1	18212
1005.23	18218
1006.36	18310
1007.49	18330
1008.62	18210
1009.76	18416
1010.89	18442
1012.02	18478
1013.15	18496
1014.28	18680
1015.41	18680
1016.54	18728
1017.67	18720
1018.8	18696
1019.93	18720
1021.06	18880
1022.19	18876
1023.32	19104
1024.44	18872
1025.57	19140
1026.7	18968
1027.83	19074
1028.96	19150
1030.09	19136
1031.21	19292
1032.34	19204
1033.47	19388
1034.6	19218
1035.72	19506
1036.85	19626
1037.98	19702
1039.1	19626
1040.23	19696
1041.35	19668
1042.48	19734
1043.61	19888
1044.73	19802
1045.86	19834
1046.98	20006
1048.11	20302
1049.23	20114
1050.36	20082
1051.48	20134
1052.61	20092
1053.73	20222
1054.85	20256
1055.98	20258
1057.1	20382
1058.22	20272
1059.35	20496
1060.47	20418
1061.59	20562
1062.72	20494
1063.84	20426
1064.96	20494
1066.08	20542
1067.2	20496
1068.33	20750
1069.45	20632
1070.57	20606
1071.69	20714
1072.81	20938
1073.93	20684
1075.05	20884
1076.17	20836
1077.29	20650
1078.41	20660
1079.53	20814
1080.65	20626
1081.77	20734
1082.89	20646
1084.01	20954
1085.13	20834
1086.25	20912
1087.37	20866
1088.48	20846
1089.6	20940
1090.72	20742
1091.84	20868
1092.96	20786
1094.07	20898
1095.19	20770
1096.31	20844
1097.43	20782
1098.54	20916
1099.66	20678
1100.78	21092
1101.89	20734
1103.01	21090
1104.12	21002
1105.24	20904
1106.35	20968
1107.47	20842
1108.59	20918
1109.7	20880
1110.81	21086
1111.93	20942
1113.04	21024
1114.16	20910
1115.27	21184
1116.39	20918
1117.5	20958
1118.61	20950
1119.73	21140
1120.84	21068
1121.95	21034
1123.06	20968
1124.18	21006
1125.29	20958
1126.4	21072
1127.51	21220
1128.63	20938
1129.74	21170
1130.85	21162
1131.96	21052
1133.07	21138
1134.18	21182
1135.29	21278
1136.4	21332
1137.51	21358
1138.62	21266
1139.73	21230
1140.84	21382
1141.95	21352
1143.06	21434
1144.17	21344
1145.28	21470
1146.39	21484
1147.5	21312
1148.61	21302
1149.72	21560
1150.82	21554
1151.93	21520
1153.04	21342
1154.15	21358
1155.26	21458
1156.36	21518
1157.47	21544
1158.58	21436
1159.68	21356
1160.79	21576
1161.9	21474
1163	21466
1164.11	21424
1165.22	21524
1166.32	21526
1167.43	21566
1168.53	21594
1169.64	21332
1170.74	21498
1171.85	21292
1172.95	21474
1174.06	21408
1175.16	21462
1176.26	21434
1177.37	21422
1178.47	21336
1179.58	21354
1180.68	21520
1181.78	21346
1182.88	21344
1183.99	21332
1185.09	21180
1186.19	21072
1187.3	21382
1188.4	21128
1189.5	21136
1190.6	20840
1191.7	21148
1192.8	20862
1193.9	20960
1195.01	20934
1196.11	20918.2
1197.21	20617.2
1198.31	20766.5
1199.41	20839
1200.51	20795.5
1201.61	20669.6
1202.71	20764
1203.81	20633
1204.91	20562.9
1206.01	20448.2
1207.11	20458.1
1208.2	20538.2
1209.3	20501
1210.4	20199.8
1211.5	20345.4
1212.6	20308.2
1213.7	20379.7
1214.8	20369.6
1215.89	20167.2
1216.99	20240.5
1218.09	20070.5
1219.18	20168.7
1220.28	20072.9
1221.38	19948.1
1222.48	20088.4
1223.57	20065.8
1224.67	19856.6
1225.76	19887.5
1226.86	19895.8
1227.96	19813.7
1229.05	19804.1
1230.15	19747.2
1231.24	19701.3
1232.34	19792.2
1233.43	19729.7
1234.53	19576.6
1235.62	19537.6
1236.71	19684.6
1237.81	19527.2
1238.9	19483.7
1240	19560.9
1241.09	19543.1
1242.18	19480
1243.28	19438.3
1244.37	19324.4
1245.46	19318.8
1246.56	19373.1
1247.65	19354
1248.74	19334.6
1249.83	19388
1250.93	19195.6
1252.02	19200.5
1253.11	19303.7
1254.2	19278.2
1255.29	19179
1256.38	19090.1
1257.47	19056.3
1258.56	18937.6
1259.65	18939.8
1260.74	19094.8
1261.84	18934.3
1262.92	18889
1264.01	18940.6
1265.1	18846.3
1266.19	18906.5
1267.28	18846.3
1268.37	18790.5
1269.46	18847.9
1270.55	18774.9
1271.64	18688.1
1272.73	18705.7
1273.82	18701.3
1274.9	18613.6
1275.99	18561.7
1277.08	18529.4
1278.17	18439.8
1279.26	18611.2
1280.34	18425.5
1281.43	18405.8
1282.52	18429.6
1283.6	18315.6
1284.69	18234
1285.78	18284.4
1286.86	18268.9
1287.95	18280.1
1289.03	18193.4
1290.12	17962.4
1291.21	17993.3
1292.29	18016
1293.38	18006.8
1294.46	18052.8
1295.55	17988.4
1296.63	17866.9
1297.71	17836.4
1298.8	17799.7
1299.88	17716.5
1300.97	17815
1302.05	17828.3
1303.13	17677.9
1304.22	17693.4
1305.3	17561.9
1306.38	17666.1
1307.34	17626
1308.43	17536
1309.52	17580
1310.61	17372
1311.7	17272
1312.78	17446
1313.87	17408
1314.96	17318
1316.05	17316
1317.13	17090
1318.22	17036
1319.3	17076
1320.39	16884
1321.48	17012
1322.56	16848
1323.65	16976
1324.73	16838
1325.82	16732
1326.9	16670
1327.99	16684
1329.07	16690
1330.16	16612
1331.24	16656
1332.33	16518
1333.41	16514
1334.5	16348
1335.58	16422
1336.66	16264
1337.75	16224
1338.83	16372
1339.91	16314
1341	16190
1342.08	16038
1343.16	16078
1344.25	15924
1345.33	15892
1346.41	15892
1347.49	15842
1348.57	15880
1349.65	15888
1350.74	15612
1351.82	15640
1352.9	15766
1353.98	15678
1355.06	15636
1356.14	15578
1357.22	15452
1358.3	15444
1359.38	15520
1360.46	15288
1361.54	15356
1362.62	15364
1363.7	15302
1364.78	15160
1365.86	15288
1366.94	15100
1368.02	14916
1369.09	15020
1370.17	15124
1371.25	15006
1372.33	15046
1373.41	15006
1374.48	14822
1375.56	14898
1376.64	14892
1377.72	14882
1378.79	14830
1379.87	14790
1380.95	14856
1382.02	14754
1383.1	14696
1384.17	14724
1385.25	14672
1386.33	14590
1387.4	14566
1388.48	14566
1389.55	14516
1390.63	14366
1391.7	14356
1392.78	14422
1393.85	14342
1394.93	14190
1396	14312
1397.07	14376
1398.15	14294
1399.22	14138
1400.3	14164
1401.37	14208
1402.44	14064
1403.52	14204
1404.59	14092
1405.66	13996
1406.73	14140
1407.81	14034
1408.88	13886
1409.95	13814
1411.02	13950
1412.09	13946
1413.17	13830
1414.24	13888
1415.31	13806
1416.38	13664
1417.45	13770
1418.52	13676
1419.59	13644
1420.66	13744
1421.73	13646
1422.8	13706
1423.87	13450
1424.94	13436
1426.01	13388
1427.08	13442
1428.15	13348
1429.22	13438
1430.29	13398
1431.35	13346
1432.42	13436
1433.49	13460
1434.56	13336
1435.63	13432
1436.7	13230
1437.76	13172
1438.83	13188
1439.9	13228
1440.96	13242
1442.03	13164
1443.1	12986
1444.17	13138
1445.23	13180
1446.3	13088
1447.36	13126
1448.43	12956
1449.49	13106
1450.56	12930
1451.63	13054
1452.69	12986
1453.76	13038
1454.82	12880
1455.89	12878
1456.95	12856
1458.01	12856
1459.08	12834
1460.14	12776
1461.21	12756
1462.27	12754
1463.34	12810
1464.4	12878
1465.46	12482
1466.52	12728
1467.59	12638
1468.65	12754
1469.71	12642
1470.77	12516
1471.84	12584
1472.9	12572
1473.96	12522
1475.02	12516
1476.08	12486
1477.15	12502
1478.21	12506
1479.27	12466
1480.33	12456
1481.39	12512
1482.45	12398
1483.51	12434
1484.57	12416
1485.63	12338
1486.69	12338
1487.75	12302
1488.81	12276
1489.87	12226
1490.93	12292
1491.99	12204
1493.05	12292
1494.1	12184
1495.16	12144
1496.22	12260
1497.28	12248
1498.34	12218
1499.4	12128
1500.45	12148
1501.51	12078
1502.57	12000
1503.63	12088
1504.68	12076
1505.74	12096
1506.8	11992
1507.85	12002
1508.91	12054
1509.97	11986
1511.02	11920
1512.08	11786
1513.13	11996
1514.19	11846
1515.24	12080
1516.3	11892
1517.35	11674
1518.41	11882
1519.46	11798
1520.52	11750
1521.57	11634
1522.63	11754
1523.68	11768
1524.73	11594
1525.79	11542
1526.84	11654
1527.9	11488
1528.95	11604
1530	11590
1531.06	11526
1532.11	11498
1533.16	11526
1534.21	11324
1535.26	11456
1536.32	11358
1537.37	11378
1538.42	11344
1539.47	11406
1540.52	11382
1541.57	11314
1542.63	11312
1543.68	11246
1544.73	11222
1545.78	11278
1546.83	11294
1547.88	11238
1548.93	11178
1549.98	11260
1551.03	11144
1552.08	11082
1553.13	11154
1554.18	11008
1555.23	11026
1556.27	11140
1557.32	10928
1558.37	11022
1559.42	11004
1560.47	10994
1561.52	10942
1562.56	11034
1563.61	11114
1564.66	11076
1565.71	10998
1566.75	10946
1567.8	10892
1568.85	10852
1569.9	10818
1570.94	10898
1571.99	10780
1573.03	10854
1574.08	10982
1575.13	10856
1576.17	10900
1577.22	10760
1578.26	10872
1579.31	10788
1580.35	10854
1581.4	10786
1582.44	10844
1583.49	10854
1584.53	10782
1585.58	10682
1586.62	10896
1587.66	10478
1588.71	10836
1589.75	10808
1590.8	10568
1591.84	10650
1592.88	10760
1593.93	10738
1594.97	10628
1596.01	10656
1597.05	10688
1598.1	10682
1599.14	10648
1600.18	10712
1601.22	10614
1602.26	10640
1603.31	10714
1604.35	10666
1605.39	10592
1606.43	10604
1607.47	10520
1608.51	10634
1609.55	10506
1610.59	10528
1611.63	10592
1612.67	10454
1613.71	10596
1614.75	10542
1615.79	10420
1616.83	10526
1617.87	10562
1618.91	10538
1619.95	10502
1620.99	10472
1622.02	10576
1623.06	10608
1624.1	10476
1625.14	10498
1626.18	10512
1627.21	10546
1628.25	10548
1629.29	10562
1630.33	10324
1631.36	10420
1632.4	10446
1633.44	10458
1634.48	10316
1635.51	10366
1636.55	10394
1637.58	10196
1638.62	10270
1639.66	10304
1640.69	10232
1641.73	10466
1642.76	10266
1643.8	10224
1644.83	10142
1645.87	10212
1646.9	10174
1647.94	10230
1648.97	10178
1650	10252
1651.04	10310
1652.07	10164
1653.11	10156
1654.14	10192
1655.17	10114
1656.21	10108
1657.24	10058
1658.27	10042
1659.31	10128
1660.34	10014
1661.37	10028
1662.4	10012
1663.43	10052
1664.47	10038
1665.5	9990
1666.53	9896
1667.56	10134
1668.59	9954
1669.62	10016
1670.66	9938
1671.69	9918
1672.72	10012
1673.75	9872
1674.78	9960
1675.81	9896
1676.84	9836
1677.87	9978
1678.9	9846
1679.93	9806
1680.96	9820
1681.98	9928
1683.01	9778
1684.04	9704
1685.07	9658
1686.1	9676
1687.13	9746
1688.16	9816
1689.19	9752
1690.21	9766
1691.24	9764
1692.27	9648
1693.3	9648
1694.32	9616
1695.35	9636
1696.38	9590
1697.4	9654
1698.43	9602
1699.46	9506
1700.48	9574
1701.51	9708
1702.54	9438
1703.56	9534
1704.59	9628
1705.61	9590
1706.64	9490
1707.66	9588
1708.69	9422
1709.71	9448
1710.74	9560
1711.76	9510
1712.79	9414
1713.81	9406
1714.83	9422
1715.86	9474
1716.88	9374
1717.91	9512
1718.93	9488
1719.95	9416
1720.98	9408
1722	9476
1723.02	9462
1724.04	9296
1725.07	9344
1726.09	9404
1727.11	9282
1728.13	9254
1729.15	9374
1730.18	9330
1731.2	9316
1732.22	9220
1733.24	9314
1734.26	9288
1735.28	9158
1736.3	9174
1737.32	9346
1738.34	9280
1739.36	9172
1740.38	9216
1741.4	9210
1742.42	9250
1743.44	9226
1744.46	9226
1745.48	9240
1746.5	9294
1747.52	9120
1748.54	9282
1749.56	9206
1750.58	9200
1751.6	9198
1752.61	9332
1753.63	9252
1754.65	9152
1755.67	9068
1756.68	9078
1757.7	9204
1758.72	9160
1759.74	9208
1760.75	9114
1761.77	9102
1762.79	9154
1763.8	9054
1764.82	9126
1765.84	9128
1766.85	9134
1767.87	9226
1768.88	9190
1769.9	9158
1770.91	9078
1771.93	9028
1772.94	9086
1773.96	9116
1774.97	9214
1775.99	9104
1777	9122
1778.02	9038
1779.03	9094
1780.04	9072
1781.06	9014
1782.07	9130
1783.09	9054
1784.1	9148
1785.11	9000
1786.13	9156
1787.14	8914
1788.15	9096
1789.16	8960
1790.18	9104
1791.19	8864
1792.2	8990
1793.21	9002
1794.22	8916
1795.23	8946
1796.25	8974
1797.26	9080
1798.27	8900
1799.28	8848
1800.29	8860
1801.3	8790
1802.31	8920
1803.32	8904
1804.33	8960
1805.34	8786
1806.35	8856
1807.36	8954
1808.37	8986
1809.38	8902
1810.39	8772
1811.4	8770
1812.41	8754
1813.42	8888
1814.43	8840
1815.43	8794
1816.44	8868
1817.45	8758
1818.46	8702
1819.47	8794
1820.47	8872
1821.48	8816
1822.49	8684
1823.49	8782
1824.5	8746
1825.51	8738
1826.52	8748
1827.52	8754
1828.53	8654
1829.54	8674
1830.54	8708
1831.55	8592
1832.55	8776
1833.56	8676
1834.56	8754
1835.57	8650
1836.57	8636
1837.58	8578
1838.58	8554
1839.59	8590
1840.59	8596
1841.6	8586
1842.6	8612
1843.61	8516
1844.61	8622
1845.61	8554
1846.62	8618
1847.62	8594
1848.62	8544
1849.63	8512
1850.63	8544
1851.63	8480
1852.64	8508
1853.64	8414
1854.64	8514
1855.64	8492
1856.64	8526
1857.65	8556
1858.65	8534
1859.65	8270
1860.65	8520
1861.65	8520
1862.65	8500
1863.65	8348
1864.66	8382
1865.66	8436
1866.66	8396
1867.66	8396
1868.66	8402
1869.66	8446
1870.66	8422
1871.66	8514
1872.66	8380
1873.66	8344
1874.66	8374
1875.65	8324
1876.65	8348
1877.65	8328
1878.65	8290
1879.65	8246
1880.65	8240
1881.65	8444
1882.64	8426
1883.64	8340
1884.64	8296
1885.64	8370
1886.63	8418
1887.63	8290
1888.63	8304
1889.63	8272
1890.62	8324
1891.62	8366
1892.62	8280
1893.61	8168
1894.61	8260
1895.6	8378
1896.6	8198
1897.6	8172
1898.59	8348
1899.59	8214
1900.58	8190
1901.58	8144
1902.57	8250
1903.57	8202
1904.56	8246
1905.56	8376
1906.55	8192
1907.54	8160
1908.54	8110
1909.53	8182
1910.53	8246
1911.52	8258
1912.51	8284
1913.51	8266
1914.5	8232
1915.49	8172
1916.49	8092
1917.48	8150
1918.47	8304
1919.46	8248
1920.46	8220
1921.45	8104
1922.44	8226
1923.43	8076
1924.42	8108
1925.41	8214
1926.41	8178
1927.4	8100
1928.39	8174
1929.38	8016
1930.37	8034
1931.36	8230
1932.35	8054
1933.34	8160
1934.33	8150
1935.32	8112
1936.31	7994
1937.3	8104
1938.29	8148
1939.28	8058
1940.27	8050
1941.26	8072
1942.24	8118
1943.23	7994
1944.22	8042
1945.21	8092
1946.2	8038
1947.19	7976
1948.17	8116
1949.16	8118
1950.15	8118
1951.14	8118
1952.13	8012
1953.11	7988
1954.1	7956
1955.09	7906
1956.07	8006
1957.06	7958
1958.05	8012
1959.03	8050
1960.02	7914
1961	7952
1961.99	8000
1962.98	7914
1963.96	7820
1964.95	7970
1965.93	7964
1966.92	7928
1967.9	7932
1968.89	7944
1969.87	8036
1970.85	8082
1971.84	7982
1972.82	7966
1973.81	7810
1974.79	7940
1975.78	7932
1976.76	7936
1977.74	7882
1978.73	7874
1979.71	7832
1980.69	7816
1981.67	7790
1982.66	7858
1983.64	7750
1984.62	7912
1985.6	7904
1986.59	7786
1987.57	7890
1988.55	7996
1989.53	7772
1990.51	7896
1991.49	7822
1992.47	7790
1993.45	7760
1994.44	7744
1995.42	7774
1996.4	7782
1997.38	7788
1998.36	7772
1999.34	7694
2000.32	7764
2001.3	7718
2002.28	7680
2003.26	7770
2004.24	7752
2005.22	7658
2006.19	7614
2007.17	7664
2008.15	7750
2009.13	7730
2010.11	7600
2011.09	7672
2012.06	7654
2013.04	7656
2014.02	7834
2015	7850
2015.98	7764
2016.95	7572
2017.93	7662
2018.91	7600
2019.88	7702
2020.86	7738
2021.84	7640
2022.81	7622
2023.79	7662
2024.77	7664
2025.74	7532
2026.72	7670
2027.69	7598
2028.67	7684
2029.65	7648
2030.62	7618
2031.6	7532
2032.57	7502
2033.55	7538
2034.52	7594
2035.5	7562
2036.47	7574
2037.44	7590
2038.42	7548
2039.39	7560
2040.36	7528
2041.34	7580
2042.31	7542
2043.29	7644
2044.26	7654
2045.23	7480
2046.2	7610
2047.18	7542
2048.15	7560
2049.12	7460
2050.09	7540
2051.07	7378
2052.04	7540
2053.01	7510
2053.98	7478
2054.95	7580
2055.93	7570
2056.9	7468
2057.87	7554
2058.84	7534
2059.81	7582
2060.78	7364
2061.75	7372
2062.72	7442
2063.69	7592
2064.66	7474
2065.63	7540
2066.6	7430
2067.57	7426
2068.54	7504
2069.51	7364
2070.48	7538
2071.45	7400
2072.42	7318
2073.38	7268
2074.35	7400
2075.32	7432
2076.29	7328
2077.26	7418
2078.23	7274
2079.19	7450
2080.16	7396
2081.13	7448
2082.1	7442
2083.06	7320
2084.03	7358
2085	7306
2085.96	7366
2086.93	7318
2087.9	7418
2088.86	7272
2089.83	7332
2090.8	7274
2091.76	7364
2092.73	7266
2093.69	7408
2094.66	7248
2095.62	7242
2096.59	7294
2097.55	7252
2098.52	7376
2099.48	7370
2100.45	7302
2101.41	7294
2102.38	7310
2103.34	7232
2104.31	7328
2105.27	7266
2106.23	7198
2107.2	7112
2108.16	7268
2109.12	7240
2110.09	7162
2111.05	7218
2112.01	7146
2112.98	7216
2113.94	7188
2114.9	7248
2115.86	7290
2116.82	7154
2117.79	7240
2118.75	7198
2119.71	7248
2120.67	7104
2121.63	7164
2122.59	7030
2123.55	7180
2124.52	7156
2125.48	7158
2126.44	7142
2127.4	7158
2128.36	7202
2129.32	7102
2130.28	7236
2131.24	7090
2132.2	7090
2133.16	7126
2134.12	7108
2135.08	7168
2136.04	7084
2136.99	7170
2137.95	7142
2138.91	7108
2139.87	7042
2140.83	7136
2141.79	7118
2142.75	7092
2143.7	7038
2144.66	6956
2145.62	7079.52
2146.58	6997.24
2147.53	6990.87
2148.49	6990.49
2149.45	7044.56
2150.41	7070.04
2151.36	7079.92
2152.32	7013.92
2153.28	6993.16
2154.23	6926.58
2155.19	6993.86
2156.14	6908.83
2157.1	6958.71
2158.06	6970.38
2159.01	6945.62
2159.97	6919.64
2160.92	6915.61
2161.88	6860.6
2162.83	6905.7
2163.79	6899.15
2164.74	6944.38
2165.7	6906.16
2166.65	6905.38
2167.61	6892.03
2168.56	6946.91
2169.51	6869.88
2170.47	6901.54
2171.42	6901.62
2172.38	6911.87
2173.33	6850.21
2174.28	6829.06
2175.24	6825.2
2176.19	6840.09
2177.14	6848.07
2178.09	6817.15
2179.05	6793.83
2180	6787.12
2180.95	6791.09
2181.9	6835.61
2182.86	6858.94
2183.81	6827.57
2184.76	6762.33
2185.71	6715.08
2186.66	6734.78
2187.61	6723.14
2188.57	6833.02
2189.52	6790.75
2190.47	6825.8
2191.42	6741.31
2192.37	6719.55
2193.32	6762.93
2194.27	6740.26
2195.22	6751.28
2196.17	6721.44
2197.12	6771.2
2198.07	6777.5
2199.02	6679.28
2199.97	6706.42
2200.92	6668.39
2201.87	6731.43
2202.82	6744.62
2203.76	6751.85
2204.71	6738.74
2205.66	6638.35
2206.61	6729.37
2207.56	6705.41
2208.51	6709.23
2209.45	6675.56
2210.4	6694.66
2211.35	6740.24
2212.3	6647.35
2213.25	6732.25
2214.19	6707.92
2215.14	6713.2
2216.09	6715.31
2217.03	6698.56
2217.98	6705.14
2218.93	6689.72
2219.87	6677.14
2220.82	6664.22
2221.77	6696.76
2222.71	6731.09
2223.66	6697.06
2224.6	6659.02
2225.55	6755.76
2226.49	6736.83
2227.44	6662.66
2228.38	6652.73
2229.33	6636.28
2230.27	6643.25
2231.22	6657.96
2232.16	6690.25
2233.11	6674.52
2234.05	6636.35
2235	6624.4
2235.94	6650.94
2236.88	6682.3
2237.83	6660.18
2238.77	6665.84
2239.72	6678.86
2240.66	6628.33
2241.6	6615.37
2242.07	6652
2243.02	6760
2243.97	6678
2244.92	6668
2245.87	6584
2246.81	6666
2247.76	6714
2248.71	6642
2249.65	6724
2250.6	6648
2251.55	6586
2252.49	6570
2253.44	6634
2254.39	6608
2255.33	6652
2256.28	6698
2257.22	6590
2258.17	6570
2259.12	6604
2260.06	6528
2261.01	6720
2261.95	6486
2262.9	6654
2263.84	6552
2264.78	6560
2265.73	6622
2266.67	6624
2267.62	6670
2268.56	6710
2269.51	6590
2270.45	6578
2271.39	6530
2272.34	6606
2273.28	6590
2274.22	6604
2275.17	6684
2276.11	6606
2277.05	6578
2277.99	6614
2278.94	6510
2279.88	6486
2280.82	6494
2281.76	6574
2282.71	6498
2283.65	6596
2284.59	6558
2285.53	6592
2286.47	6596
2287.41	6508
2288.35	6522
2289.3	6468
2290.24	6458
2291.18	6500
2292.12	6496
2293.06	6526
2294	6566
2294.94	6522
2295.88	6458
2296.82	6444
2297.76	6466
2298.7	6440
2299.64	6444
2300.58	6476
2301.52	6394
2302.46	6500
2303.39	6422
2304.33	6440
2305.27	6378
2306.21	6364
2307.15	6342
2308.09	6400
2309.02	6326
2309.96	6464
2310.9	6352
2311.84	6366
2312.77	6354
2313.71	6406
2314.65	6474
2315.59	6342
2316.52	6398
2317.46	6408
2318.4	6322
2319.33	6394
2320.27	6360
2321.21	6380
2322.14	6264
2323.08	6384
2324.01	6388
2324.95	6322
2325.89	6296
2326.82	6370
2327.76	6360
2328.69	6300
2329.63	6352
2330.56	6376
2331.5	6318
2332.43	6344
2333.36	6344
2334.3	6262
2335.23	6266
2336.17	6264
2337.1	6306
2338.03	6294
2338.97	6348
2339.9	6382
2340.83	6222
2341.77	6316
2342.7	6306
2343.63	6312
2344.57	6272
2345.5	6410
2346.43	6270
2347.36	6294
2348.3	6326
2349.23	6204
2350.16	6202
2351.09	6270
2352.02	6304
2352.95	6254
2353.89	6224
2354.82	6236
2355.75	6154
2356.68	6206
2357.61	6280
2358.54	6256
2359.47	6194
2360.4	6108
2361.33	6218
2362.26	6250
2363.19	6212
2364.12	6160
2365.05	6250
2365.98	6212
2366.91	6184
2367.84	6218
2368.77	6168
2369.7	6164
2370.63	6144
2371.56	6146
2372.48	6124
2373.41	6156
2374.34	6040
2375.27	6186
2376.2	6160
2377.12	6124
2378.05	6156
2378.98	6186
2379.91	6110
2380.84	6102
2381.76	6162
2382.69	6058
2383.62	6066
2384.54	6054
2385.47	6050
2386.4	6030
2387.32	6094
2388.25	6024
2389.18	6018
2390.1	6058
2391.03	5992
2391.95	6046
2392.88	6008
2393.8	5974
2394.73	6018
2395.65	6142
2396.58	6066
2397.5	6106
2398.43	6014
2399.35	5878
2400.28	6014
2401.2	5986
2402.13	6058
2403.05	5982
2403.97	6010
2404.9	6036
2405.82	5956
2406.75	5922
2407.67	5890
2408.59	5950
2409.51	5984
2410.44	5934
2411.36	6056
2412.28	5926
2413.21	5998
2414.13	5892
2415.05	5982
2415.97	5916
2416.9	5942
2417.82	6012
2418.74	5954
2419.66	5866
2420.58	5894
2421.5	5868
2422.42	5942
2423.35	5806
2424.27	5828
2425.19	5922
2426.11	5946
2427.03	5882
2427.95	5794
2428.87	5902
2429.79	5888
2430.71	5898
2431.63	5888
2432.55	5904
2433.47	5926
2434.39	5878
2435.31	5826
2436.23	5756
2437.14	5880
2438.06	5926
2438.98	5772
2439.9	5834
2440.82	5700
2441.74	5804
2442.66	5892
2443.57	5766
2444.49	5776
2445.41	5736
2446.33	5822
2447.24	5814
2448.16	5808
2449.08	5648
2450	5812
2450.91	5756
2451.83	5694
2452.75	5774
2453.66	5720
2454.58	5758
2455.5	5738
2456.41	5664
2457.33	5750
2458.24	5676
2459.16	5706
2460.08	5838
2460.99	5658
2461.91	5666
2462.82	5754
2463.74	5720
2464.65	5680
2465.57	5720
2466.48	5730
2467.4	5674
2468.31	5740
2469.22	5794
2470.14	5704
2471.05	5818
2471.97	5644
2472.88	5674
2473.79	5580
2474.71	5556
2475.62	5650
2476.53	5584
2477.45	5602
2478.36	5618
2479.27	5652
2480.19	5604
2481.1	5612
2482.01	5584
2482.92	5580
2483.83	5548
2484.75	5542
2485.66	5640
2486.57	5554
2487.48	5546
2488.39	5638
2489.3	5590
2490.22	5584
2491.13	5548
2492.04	5496
2492.95	5410
2493.86	5538
2494.77	5474
2495.68	5546
2496.59	5490
2497.5	5468
2498.41	5538
2499.32	5500
2500.23	5500
2501.14	5432
2502.05	5554
2502.96	5428
2503.87	5420
2504.78	5458
2505.68	5484
2506.59	5480
2507.5	5442
2508.41	5372
2509.32	5366
2510.23	5472
2511.14	5338
2512.04	5412
2512.95	5532
2513.86	5366
2514.77	5350
2515.67	5272
2516.58	5398
2517.49	5296
2518.39	5336
2519.3	5342
2520.21	5340
2521.11	5330
2522.02	5360
2522.93	5370
2523.83	5324
2524.74	5346
2525.65	5358
2526.55	5298
2527.46	5318
2528.36	5296
2529.27	5304
2530.17	5236
2531.08	5262
2531.98	5318
2532.89	5330
2533.79	5264
2534.7	5284
2535.6	5196
2536.51	5198
2537.41	5124
2538.32	5316
2539.22	5260
2540.12	5206
2541.03	5202
2541.93	5198
2542.83	5140
2543.74	5254
2544.64	5154
2545.54	5256
2546.45	5118
2547.35	5230
2548.25	5146
2549.15	5122
2550.06	5164
2550.96	5110
2551.86	5116
2552.76	5032
2553.66	5068
2554.56	5080
2555.47	5192
2556.37	5136
2557.27	5128
2558.17	5088
2559.07	5084
2559.97	5112
2560.87	5104
2561.77	5082
2562.67	5074
2563.58	5106
2564.47	5144
2565.38	5058
2566.27	5052
2567.18	5124
2568.07	5022
2568.97	5060
2569.87	5068
2570.77	5096
2571.67	5068
2572.57	4978
2573.47	5078
2574.37	5068
2575.27	4974
2576.17	4970
2577.06	5000
2577.96	5002
2578.86	4960
2579.76	5000
2580.66	4968
2581.55	5004
2582.45	4906
2583.35	4986
2584.25	4992
2585.14	4906
2586.04	4936
2586.94	4922
2587.83	4972
2588.73	4972
2589.63	4914
2590.52	4896
2591.42	4894
2592.32	4936
2593.21	4866
2594.11	4974
2595	4814
2595.9	4906
2596.8	4964
2597.69	4932
2598.59	4824
2599.48	4904
2600.38	4820
2601.27	4864
2602.17	4802
2603.06	4768
2603.95	4834
2604.85	4848
2605.74	4820
2606.64	4764
2607.53	4906
2608.42	4820
2609.32	4762
2610.21	4732
2611.1	4770
2612	4760
2612.89	4790
2613.78	4746
2614.68	4716
2615.57	4704
2616.46	4722
2617.36	4738
2618.25	4714
2619.14	4736
2620.03	4738
2620.92	4668
2621.82	4776
2622.71	4696
2623.6	4668
2624.49	4670
2625.38	4624
2626.27	4716
2627.16	4672
2628.05	4684
2628.95	4652
2629.84	4692
2630.73	4672
2631.62	4712
2632.51	4598
2633.4	4670
2634.29	4678
2635.18	4562
2636.07	4662
2636.96	4576
2637.85	4612
2638.74	4648
2639.62	4538
2640.51	4654
2641.4	4510
2642.29	4494
2643.18	4478
2644.07	4608
2644.96	4642
2645.85	4486
2646.73	4652
2647.62	4478
2648.51	4468
2649.4	4484
2650.28	4454
2651.17	4476
2652.06	4468
2652.95	4508
2653.83	4532
2654.72	4518
2655.61	4518
2656.5	4418
2657.38	4482
2658.27	4486
2659.15	4476
2660.04	4454
2660.93	4408
2661.81	4440
2662.7	4428
2663.58	4424
2664.47	4590
2665.35	4428
2666.24	4378
2667.13	4480
2668.01	4472
2668.9	4394
2669.78	4392
2670.66	4394
2671.55	4392
2672.43	4410
2673.32	4364
2674.2	4386
2675.09	4322
2675.97	4380
2676.85	4382
2677.74	4444
2678.62	4318
2679.5	4404
2680.39	4328
2681.27	4380
2682.15	4304
2683.04	4380
2683.92	4312
2684.8	4268
2685.68	4372
2686.57	4272
2687.45	4292
2688.33	4296
2689.21	4300
2690.09	4292
2690.98	4236
2691.86	4326
2692.74	4212
2693.62	4226
2694.5	4330
2695.38	4188
2696.26	4228
2697.15	4208
2698.03	4300
2698.91	4264
2699.79	4138
2700.67	4230
2701.55	4248
2702.43	4220
2703.31	4274
2704.19	4144
2705.07	4144
2705.95	4144
2706.83	4108
2707.7	4136
2708.58	4166
2709.46	4180
2710.34	4118
2711.22	4188
2712.1	4130
2712.98	4144
2713.86	4148
2714.73	4126
2715.61	4146
2716.49	4108
2717.37	4126
2718.25	4082
2719.12	4118
2720	4028
2720.88	4024
2721.76	4086
2722.63	4106
2723.51	4010
2724.39	4104
2725.26	4086
2726.14	4036
2727.02	4078
2727.89	4042
2728.77	3990
2729.64	4112
2730.52	4068
2731.4	4032
2732.27	4032
2733.15	3946
2734.02	4006
2734.9	3970
2735.77	4054
2736.65	4006
2737.52	3974
2738.4	3990
2739.27	3946
2740.15	4010
2741.02	3930
2741.9	3976
2742.77	3978
2743.64	3876
2744.52	3954
2745.39	3984
2746.27	3930
2747.14	3942
2748.01	3958
2748.89	3976
2749.76	3872
2750.63	3958
2751.51	3890
2752.38	3956
2753.25	3948
2754.12	3806
2755	3864
2755.87	3836
2756.74	3886
2757.61	3884
2758.48	3806
2759.35	3734
2760.23	3918
2761.1	3870
2761.97	3828
2762.84	3808
2763.71	3798
2764.58	3788
2765.45	3828
2766.32	3756
2767.19	3844
2768.07	3804
2768.94	3828
2769.81	3756
2770.68	3772
2771.55	3776
2772.42	3774
2773.29	3802
2774.16	3760
2775.02	3778
2775.89	3742
2776.76	3686
2777.63	3686
2778.5	3762
2779.37	3662
2780.24	3778
2781.11	3700
2781.98	3746
2782.84	3742
2783.71	3774
2784.58	3766
2785.45	3714
2786.32	3770
2787.18	3720
2788.05	3676
2788.92	3624
2789.79	3678
2790.65	3680
2791.52	3732
2792.39	3672
2793.25	3726
2794.12	3696
2794.99	3636
2795.85	3620
2796.72	3612
2797.59	3600
2798.45	3658
2799.32	3628
2800.18	3618
2801.05	3642
2801.92	3646
2802.78	3604
2803.65	3590
2804.51	3576
2805.38	3590
2806.24	3556
2807.11	3546
2807.97	3600
2808.84	3512
2809.7	3614
2810.57	3580
2811.43	3542
2812.29	3534
2813.16	3578
2814.02	3582
2814.88	3594
2815.75	3520
2816.61	3550
2817.47	3500
2818.34	3504
2819.2	3450
2820.06	3504
2820.93	3514
2821.79	3556
2822.65	3530
2823.51	3528
2824.38	3464
2825.24	3520
2826.1	3464
2826.96	3478
2827.82	3456
2828.69	3462
2829.55	3410
2830.41	3494
2831.27	3406
2832.13	3438
2832.99	3454
2833.85	3378
2834.71	3382
2835.57	3422
2836.44	3406
2837.3	3384
2838.16	3452
2839.02	3440
2839.88	3396
2840.74	3370
2841.6	3406
2842.46	3336
2843.32	3276
2844.18	3384
2845.03	3328
2845.89	3348
2846.75	3310
2847.61	3304
2848.47	3288
2849.33	3360
2850.19	3348
2851.05	3250
2851.9	3288
2852.76	3292
2853.62	3376
2854.48	3250
2855.34	3306
2856.19	3292
2857.05	3244
2857.91	3340
2858.77	3338
2859.62	3274
2860.48	3254
2861.34	3246
2862.19	3184
2863.05	3248
2863.91	3200
2864.76	3202
2865.62	3198
2866.48	3236
2867.33	3236
2868.19	3220
2869.04	3176
2869.9	3184
2870.76	3276
2871.61	3188
2872.47	3248
2873.32	3136
2874.18	3194
2875.03	3162
2875.89	3148
2876.74	3212
2877.6	3192
2878.45	3162
2879.31	3162
2880.16	3170
2881.01	3146
2881.87	3162
2882.72	3132
2883.58	3166
2884.43	3122
2885.28	3076
2886.14	3112
2886.99	3130
2887.84	3126
2888.7	3120
2889.55	3142
2890.4	3102
2891.25	3124
2892.11	3116
2892.96	3156
2893.81	3054
2894.66	3108
2895.52	3106
2896.37	3038
2897.22	3072
2898.07	3098
2898.92	3088
2899.77	3066
2900.62	3074
2901.48	3088
2902.33	3040
2903.18	3016
2904.03	3018
2904.88	3016
2905.73	3046
2906.58	3034
2907.43	3024
2908.28	3016
2909.13	3074
2909.98	3058
2910.83	3016
2911.68	2996
2912.53	2990
2913.38	3046
2914.23	3036
2915.08	3072
2915.93	2996
2916.78	3002
2917.63	3040
2918.47	3030
2919.32	3018
2920.17	3054
2921.02	2972
2921.87	3042
2922.72	2902
2923.56	2966
2924.41	2984
2925.26	2904
2926.11	2910
2926.95	3010
2927.8	2992
2928.65	2910
2929.5	2888
2930.34	2984
2931.19	2928
2932.04	2870
2932.88	2958
2933.73	2942
2934.58	2926
2935.42	2936
2936.27	2870
2937.11	2868
2937.96	2914
2938.81	2956
2939.65	2912
2940.5	2944
2941.34	2898
2942.19	2866
2943.03	2942
2943.88	2868
2944.72	2868
2945.57	2856
2946.41	2830
2947.26	2852
2948.1	2820
2948.95	2842
2949.79	2850
2950.64	2904
2951.48	2874
2952.32	2854
2953.17	2854
2954.01	2822
2954.85	2780
2955.7	2852
2956.54	2816
2957.38	2832
2958.23	2862
2959.07	2864
2959.91	2740
2960.75	2784
2961.6	2766
2962.44	2874
2963.28	2784
2964.12	2798
2964.97	2804
2965.81	2776
2966.65	2774
2967.49	2778
2968.33	2840
2969.17	2746
2970.02	2780
2970.86	2774
2971.7	2818
2972.54	2784
2973.38	2762
2974.22	2766
2975.06	2758
2975.9	2754
2976.74	2736
2977.58	2716
2978.42	2776
2979.26	2714
2980.1	2732
2980.94	2718
2981.78	2730
2982.62	2758
2983.46	2692
2984.3	2804
2985.14	2710
2985.98	2706
2986.82	2712
2987.66	2716
2988.49	2714
2989.33	2650
2990.17	2698
2991.01	2702
2991.85	2632
2992.69	2632
2993.52	2682
2994.36	2658
2995.2	2674
2996.04	2646
2996.87	2680
2997.71	2580
2998.55	2580
2999.39	2618
