#Acq. time (s)=	10
#Accumulations=	1
#Range (cm-¹)=	100...3000
#Windows=	3
#Autofocus=	Off
#AutoExposure=	Off
#Spike filter=	Off
#Delay time (s)=	0
#Binning=	1
#Readout mode=	Signal
#DeNoise=	Off
#ICS correction=	Off
#Dark correction=	Off
#Inst. Process=	Off
#Instrument=	LabRAM HR Evol
#Detector=	Syncerity OE
#Objective=	x100_VIS
#Grating=	600 (500nm)
#ND Filter=	3.2%
#Laser=	633nm_Edge
#Hole=	100.021
#Range=	Visible
#Project=	Omar
#Sample=	26-06-23
#Site=	2
#Title=	Organic
#Remark=	
#Date=	26.06.2023 16:26
#Acquired=	26.06.2023 16:26:54
101.018	3746
102.302	3762
103.586	3768
104.869	3804
106.152	3806
107.435	3812
108.717	3826
109.999	3800
111.281	3818
112.563	3822
113.845	3746
115.126	3948
116.407	3832
117.688	3920
118.969	3846
120.249	3782
121.53	3844
122.81	3860
124.09	3904
125.369	3872
126.649	3882
127.928	3910
129.207	3926
130.486	3892
131.765	3928
133.043	3986
134.321	3934
135.599	4002
136.877	3914
138.155	3886
139.432	3996
140.708	4028
141.985	3906
143.261	4022
144.538	3972
145.814	4006
147.09	3994
148.366	3994
149.641	4008
150.916	3974
152.191	4048
153.466	4086
154.741	4028
156.016	4044
157.289	4094
158.563	4090
159.837	4012
161.111	4014
162.385	4032
163.657	4052
164.93	4060
166.203	4098
167.476	4050
168.747	4054
170.019	4054
171.291	4042
172.562	4140
173.834	4084
175.105	4056
176.377	4090
177.646	4138
178.917	4184
180.188	4068
181.457	4060
182.727	4126
183.996	4230
185.266	4162
186.536	4144
187.804	4050
189.073	4198
190.342	4106
191.609	4258
192.878	4184
194.145	4198
195.413	4222
196.681	4278
197.948	4372
199.215	4210
200.481	4288
201.749	4252
203.014	4282
204.281	4298
205.546	4366
206.813	4336
208.077	4356
209.343	4324
210.608	4348
211.873	4392
213.137	4384
214.402	4330
215.666	4428
216.93	4394
218.194	4438
219.458	4376
220.721	4370
221.983	4386
223.247	4394
224.509	4450
225.772	4484
227.034	4480
228.295	4530
229.558	4578
230.819	4562
232.081	4508
233.342	4622
234.602	4466
235.864	4468
237.124	4450
238.384	4518
239.645	4628
240.904	4624
242.164	4590
243.423	4620
244.683	4518
245.941	4508
247.2	4570
248.46	4594
249.717	4646
250.975	4638
252.233	4630
253.492	4644
254.749	4628
256.006	4648
257.263	4660
258.519	4724
259.777	4642
261.033	4654
262.289	4626
263.545	4684
264.8	4668
266.057	4602
267.312	4650
268.567	4688
269.822	4720
271.076	4632
272.331	4730
273.585	4650
274.839	4636
276.094	4750
277.347	4646
278.601	4632
279.854	4716
281.107	4788
282.359	4722
283.612	4732
284.864	4714
286.116	4706
287.368	4762
288.62	4858
289.871	4826
291.123	4810
292.374	4816
293.625	4872
294.875	4798
296.126	4912
297.376	4864
298.626	4890
299.876	4956
301.126	4946
302.375	4894
303.625	4952
304.874	4990
306.122	4988
307.371	4906
308.62	5014
309.866	4976
311.114	5006
312.362	4994
313.61	5068
314.857	5012
316.105	4986
317.352	5060
318.599	5116
319.844	5026
321.09	4982
322.337	5128
323.583	5120
324.828	5064
326.073	5022
327.318	5010
328.563	5020
329.808	5070
331.053	5106
332.296	4966
333.541	5050
334.785	5140
336.029	5074
337.272	5092
338.515	5128
339.759	5158
341.001	5114
342.244	5116
343.486	5152
344.728	5122
345.97	5130
347.212	5172
348.453	5212
349.695	5268
350.936	5206
352.176	5186
353.418	5244
354.659	5242
355.898	5232
357.139	5272
358.378	5254
359.618	5292
360.858	5350
362.097	5216
363.336	5320
364.574	5270
365.813	5288
367.051	5220
368.29	5258
369.527	5250
370.766	5352
372.002	5266
373.241	5462
374.477	5312
375.715	5222
376.951	5350
378.188	5268
379.424	5382
380.66	5396
381.896	5330
383.132	5394
384.367	5316
385.603	5262
386.838	5416
388.072	5398
389.307	5376
390.541	5428
391.776	5364
393.01	5344
394.243	5368
395.477	5404
396.71	5478
397.943	5418
399.177	5432
400.409	5362
401.641	5428
402.875	5486
404.106	5450
405.338	5472
406.57	5540
407.802	5546
409.032	5592
410.263	5544
411.495	5620
412.725	5614
413.955	5650
415.185	5716
416.417	5708
417.646	5762
418.875	5694
420.104	5754
421.335	5776
422.564	5806
423.792	5798
425.02	5754
426.249	5790
427.477	5746
428.706	5884
429.933	5860
431.161	5908
432.388	5884
433.615	5896
434.841	5906
436.068	5922
437.294	5846
438.522	5896
439.748	5920
440.974	5870
442.199	5964
443.425	5962
444.65	5984
445.875	5962
447.1	5956
448.324	5886
449.549	5974
450.773	6034
451.997	5964
453.221	5926
454.445	6020
455.668	5930
456.891	5998
458.114	5900
459.337	5994
460.56	6046
461.782	6012
463.005	6146
464.227	6008
465.447	6030
466.669	6012
467.89	6078
469.112	6156
470.333	6080
471.554	6034
472.774	6072
473.995	6072
475.214	6118
476.434	6120
477.654	6104
478.874	6152
480.093	6160
481.312	6094
482.53	6152
483.749	6162
484.968	6224
486.186	6158
487.405	6202
488.622	6142
489.84	6236
491.057	6324
492.275	6234
493.491	6248
494.708	6282
495.925	6370
497.141	6364
498.357	6366
499.574	6288
500.789	6402
502.005	6352
503.221	6280
504.435	6510
505.65	6376
506.866	6390
508.079	6364
509.294	6408
510.509	6372
511.722	6402
512.936	6440
514.149	6330
515.363	6418
516.577	6430
517.789	6386
519.002	6472
520.214	6530
521.427	6378
522.638	6482
523.851	6442
525.062	6446
526.274	6428
527.485	6476
528.697	6462
529.907	6540
531.118	6448
532.328	6364
533.539	6520
534.748	6516
535.959	6496
537.168	6456
538.379	6566
539.587	6540
540.796	6572
542.005	6476
543.214	6542
544.423	6426
545.631	6512
546.838	6606
548.047	6538
549.254	6532
550.461	6566
551.669	6644
552.876	6612
554.082	6710
555.29	6666
556.496	6706
557.701	6592
558.909	6588
560.114	6664
561.319	6730
562.524	6736
563.731	6748
564.935	6652
566.14	6760
567.344	6706
568.549	6842
569.753	6784
570.957	6768
572.161	6842
573.364	6884
574.568	6836
575.771	6848
576.974	6862
578.177	6908
579.379	6900
580.581	6870
581.785	6916
582.987	6984
584.188	6962
585.39	6996
586.591	6948
587.792	7048
588.993	6952
590.193	6986
591.394	7078
592.594	7106
593.796	6988
594.996	7064
596.195	7016
597.395	7068
598.594	7146
599.793	7116
600.992	7030
602.191	7054
603.39	7042
604.588	7220
605.786	7278
606.984	7222
608.181	7154
609.378	7306
610.576	7282
611.773	7382
612.97	7250
614.167	7330
615.364	7340
616.56	7422
617.757	7278
618.953	7402
620.149	7460
621.343	7400
622.539	7556
623.734	7432
624.929	7560
626.124	7538
627.319	7576
628.512	7584
629.707	7572
630.901	7620
632.095	7686
633.289	7732
634.481	7614
635.675	7610
636.868	7836
638.061	7822
639.253	7746
640.446	7682
641.638	7838
642.831	7832
644.021	7958
645.213	7926
646.405	8030
647.595	7858
648.787	7892
649.978	8016
651.168	7998
652.359	7966
653.549	7916
654.738	8002
655.929	7996
657.117	8056
658.307	8016
659.497	8176
660.685	8020
661.875	8112
663.063	8198
664.252	8190
665.439	8176
666.628	8292
667.816	8242
669.003	8174
670.191	8130
671.378	8244
672.565	8194
673.751	8322
674.939	8160
676.124	8246
677.311	8270
678.497	8280
679.682	8338
680.868	8352
682.053	8408
683.239	8250
684.424	8446
685.609	8414
686.793	8452
687.977	8400
689.162	8488
690.346	8496
691.529	8410
692.714	8488
693.897	8504
695.081	8566
696.264	8656
697.446	8580
698.63	8568
699.812	8598
700.993	8638
702.175	8680
703.358	8682
704.539	8776
705.72	8804
706.901	8676
708.083	8786
709.264	8860
710.444	8874
711.625	8836
712.806	8850
713.986	8858
715.165	8844
716.345	8934
717.524	9130
718.705	9106
719.884	9036
721.062	9108
722.241	9134
723.419	9158
724.597	9052
725.775	9160
726.954	9212
728.132	9112
729.31	9240
730.487	9242
731.664	9374
732.841	9286
734.017	9326
735.194	9336
736.37	9244
737.546	9382
738.722	9334
739.898	9460
741.074	9406
742.249	9450
743.424	9502
744.599	9494
745.774	9478
746.949	9484
748.123	9530
749.298	9668
750.472	9712
751.646	9560
752.819	9636
753.993	9742
755.166	9644
756.34	9664
757.511	9760
758.684	9816
759.857	9744
761.029	9890
762.202	9876
763.374	9856
764.546	9870
765.716	9948
766.888	9908
768.059	9940
769.23	9948
770.401	10072
771.571	9946
772.741	10046
773.912	10074
775.082	10050
776.251	10104
777.421	10180
778.59	10244
779.76	10318
780.928	10174
782.097	10276
783.266	10344
784.434	10184
785.602	10152
786.771	10314
787.938	10234
789.106	10450
790.274	10326
791.44	10434
792.608	10448
793.775	10534
794.941	10502
796.108	10640
797.273	10696
798.44	10732
799.606	10692
800.771	10600
801.937	10588
803.102	10664
804.268	10850
805.432	10776
806.597	10896
807.761	10960
808.926	10932
810.09	10982
811.254	10890
812.417	11088
813.582	11134
814.744	11194
815.908	11114
817.071	11028
818.234	11236
819.396	11228
820.558	11396
821.721	11270
822.883	11268
824.045	11428
825.206	11340
826.367	11498
827.529	11392
828.69	11580
829.85	11614
831.012	11676
832.172	11692
833.332	11720
834.493	11786
835.653	11668
836.812	11834
837.972	11860
839.131	11938
840.29	12016
841.449	11980
842.609	12086
843.767	12076
844.925	12118
846.083	12124
847.242	12098
848.399	12276
849.557	12194
850.714	12214
851.871	12424
853.029	12370
854.186	12380
855.342	12448
856.498	12426
857.654	12402
858.81	12590
859.966	12500
861.122	12616
862.278	12674
863.434	12530
864.589	12650
865.744	12714
866.898	12642
868.053	12804
869.207	12842
870.361	12828
871.515	12998
872.669	12974
873.822	13014
874.976	13012
876.129	13042
877.282	13186
878.435	13144
879.588	13038
880.74	13010
881.893	13074
883.045	13138
884.197	13128
885.349	13388
886.5	13256
887.652	13194
888.802	13208
889.953	13470
891.104	13352
892.254	13512
893.405	13486
894.555	13426
895.706	13490
896.854	13356
898.004	13582
899.154	13548
900.303	13524
901.453	13724
902.6	13510
903.749	13676
904.898	13744
906.047	13790
907.194	13852
908.342	13732
909.49	13788
910.638	13898
911.785	13858
912.932	13950
914.08	13730
915.225	14004
916.372	14228
917.519	14098
918.666	14082
919.811	14216
920.957	14212
922.102	14150
923.248	14348
924.394	14342
925.538	14244
926.684	14328
927.828	14498
928.973	14434
930.118	14486
931.261	14514
932.406	14640
933.549	14704
934.693	14762
935.836	14818
936.979	14780
938.122	14802
939.265	14902
940.407	14742
941.55	14910
942.692	15116
943.835	15032
944.976	15118
946.118	15154
947.259	15170
948.401	15156
949.542	15164
950.682	15420
951.824	15240
952.964	15352
954.105	15398
955.245	15466
956.385	15438
957.525	15626
958.664	15502
959.803	15450
960.944	15748
962.082	15810
963.221	15778
964.36	15742
965.498	15856
966.636	15820
967.774	15810
968.913	16104
970.051	15960
971.188	16006
972.325	16052
973.463	16098
974.6	16080
975.736	16174
976.873	16130
978.009	16282
979.146	16360
980.282	16214
981.418	16366
982.554	16368
983.689	16364
984.824	16510
985.959	16510
987.095	16474
988.23	16488
989.364	16496
990.499	16762
991.633	16696
992.767	16642
993.9	16852
995.034	16632
996.167	16744
997.301	16782
998.434	16856
999.567	16976
1000.7	16908
1001.83	16984
1002.96	17040
1004.1	17016
1005.23	17018
1006.36	16962
1007.49	17138
1008.62	17130
1009.76	17272
1010.89	17330
1012.02	17184
1013.15	17368
1014.28	17378
1015.41	17154
1016.54	17434
1017.67	17412
1018.8	17576
1019.93	17506
1021.06	17388
1022.19	17690
1023.32	17648
1024.44	17792
1025.57	17674
1026.7	17674
1027.83	17660
1028.96	17822
1030.09	17922
1031.21	17944
1032.34	18026
1033.47	18094
1034.6	18000
1035.72	18134
1036.85	18382
1037.98	18338
1039.1	18378
1040.23	18284
1041.35	18328
1042.48	18338
1043.61	18586
1044.73	18528
1045.86	18458
1046.98	18494
1048.11	18680
1049.23	18766
1050.36	18534
1051.48	18672
1052.61	18730
1053.73	18866
1054.85	18840
1055.98	18790
1057.1	18958
1058.22	18998
1059.35	18816
1060.47	18954
1061.59	19044
1062.72	19136
1063.84	18992
1064.96	19060
1066.08	19046
1067.2	19116
1068.33	19240
1069.45	19174
1070.57	19114
1071.69	19302
1072.81	19332
1073.93	19362
1075.05	19440
1076.17	19270
1077.29	19288
1078.41	19408
1079.53	19166
1080.65	19330
1081.77	19610
1082.89	19500
1084.01	19420
1085.13	19502
1086.25	19070
1087.37	19400
1088.48	19394
1089.6	19286
1090.72	19418
1091.84	19218
1092.96	19400
1094.07	19300
1095.19	19384
1096.31	19360
1097.43	19424
1098.54	19454
1099.66	19400
1100.78	19474
1101.89	19486
1103.01	19516
1104.12	19464
1105.24	19482
1106.35	19492
1107.47	19508
1108.59	19522
1109.7	19304
1110.81	19600
1111.93	19654
1113.04	19440
1114.16	19352
1115.27	19468
1116.39	19596
1117.5	19594
1118.61	19546
1119.73	19304
1120.84	19720
1121.95	19720
1123.06	19700
1124.18	19788
1125.29	19692
1126.4	19874
1127.51	19690
1128.63	19812
1129.74	19774
1130.85	19840
1131.96	19678
1133.07	19654
1134.18	19842
1135.29	19610
1136.4	19858
1137.51	19844
1138.62	19584
1139.73	19726
1140.84	19826
1141.95	19878
1143.06	19908
1144.17	19778
1145.28	19834
1146.39	19868
1147.5	20068
1148.61	20074
1149.72	20126
1150.82	20168
1151.93	20056
1153.04	20190
1154.15	20064
1155.26	20056
1156.36	20084
1157.47	19890
1158.58	20052
1159.68	19944
1160.79	20034
1161.9	19916
1163	20046
1164.11	19874
1165.22	19978
1166.32	19978
1167.43	20200
1168.53	19848
1169.64	20068
1170.74	19902
1171.85	20028
1172.95	19844
1174.06	19912
1175.16	20038
1176.26	19720
1177.37	19988
1178.47	19940
1179.58	19764
1180.68	19760
1181.78	19764
1182.88	19730
1183.99	19896
1185.09	19830
1186.19	19620
1187.3	19740
1188.4	19674
1189.5	19752
1190.6	19480
1191.7	19474
1192.8	19484
1193.9	19414
1195.01	19260
1196.11	19363.7
1197.21	19511.3
1198.31	19439.1
1199.41	19329.4
1200.51	19291.4
1201.61	19252.7
1202.71	19302.9
1203.81	19212.1
1204.91	19132.2
1206.01	19161.8
1207.11	19097.3
1208.2	19093.4
1209.3	19092
1210.4	18979.8
1211.5	19082.5
1212.6	18926.2
1213.7	18726.8
1214.8	18844.9
1215.89	18865.6
1216.99	18709.1
1218.09	18830.2
1219.18	18646.3
1220.28	18638.6
1221.38	18821.1
1222.48	18718.3
1223.57	18563.5
1224.67	18605.1
1225.76	18570.6
1226.86	18442.1
1227.96	18517.4
1229.05	18525.4
1230.15	18375.6
1231.24	18378.7
1232.34	18302.1
1233.43	18371.3
1234.53	18378.6
1235.62	18285.9
1236.71	18300.9
1237.81	18289.9
1238.9	18271.5
1240	18163.5
1241.09	18216.1
1242.18	18258.2
1243.28	18128.9
1244.37	18074.8
1245.46	18080.1
1246.56	18147.1
1247.65	18149.3
1248.74	18089.2
1249.83	17952.4
1250.93	17984.3
1252.02	17962.6
1253.11	17856.2
1254.2	17928.3
1255.29	17842.9
1256.38	17883.2
1257.47	17754.6
1258.56	17705.7
1259.65	17821.7
1260.74	17660.5
1261.84	17619.6
1262.92	17654
1264.01	17751.5
1265.1	17561.6
1266.19	17526.1
1267.28	17520
1268.37	17556.2
1269.46	17540.2
1270.55	17557.1
1271.64	17603.5
1272.73	17505.1
1273.82	17383.8
1274.9	17351.7
1275.99	17321.2
1277.08	17347.5
1278.17	17331.8
1279.26	17323.9
1280.34	17164
1281.43	17193.4
1282.52	17255.5
1283.6	17130.1
1284.69	17114.1
1285.78	17105.2
1286.86	17110.2
1287.95	17037.4
1289.03	17033.6
1290.12	17103.4
1291.21	17017.5
1292.29	17026.9
1293.38	16921.2
1294.46	16850.8
1295.55	16847.2
1296.63	16704.2
1297.71	16794.4
1298.8	16802.7
1299.88	16713.5
1300.97	16782.2
1302.05	16717.9
1303.13	16482.5
1304.22	16550.5
1305.3	16528.9
1306.38	16350.4
1307.34	16404
1308.43	16460
1309.52	16332
1310.61	16342
1311.7	16446
1312.78	16412
1313.87	16244
1314.96	16108
1316.05	16196
1317.13	16056
1318.22	16156
1319.3	15884
1320.39	15974
1321.48	15890
1322.56	15836
1323.65	15694
1324.73	15864
1325.82	15716
1326.9	15596
1327.99	15646
1329.07	15704
1330.16	15644
1331.24	15530
1332.33	15530
1333.41	15414
1334.5	15472
1335.58	15346
1336.66	15228
1337.75	15184
1338.83	15324
1339.91	15092
1341	15174
1342.08	15098
1343.16	15194
1344.25	14926
1345.33	14932
1346.41	14968
1347.49	14972
1348.57	14914
1349.65	14936
1350.74	14654
1351.82	14858
1352.9	14802
1353.98	14706
1355.06	14704
1356.14	14696
1357.22	14590
1358.3	14568
1359.38	14348
1360.46	14470
1361.54	14384
1362.62	14364
1363.7	14448
1364.78	14276
1365.86	14440
1366.94	14386
1368.02	14354
1369.09	14218
1370.17	14082
1371.25	13932
1372.33	14214
1373.41	14076
1374.48	13946
1375.56	14024
1376.64	14096
1377.72	14048
1378.79	14070
1379.87	13988
1380.95	13844
1382.02	13714
1383.1	13748
1384.17	13820
1385.25	13810
1386.33	13786
1387.4	13750
1388.48	13716
1389.55	13672
1390.63	13624
1391.7	13558
1392.78	13496
1393.85	13524
1394.93	13520
1396	13336
1397.07	13584
1398.15	13424
1399.22	13416
1400.3	13422
1401.37	13340
1402.44	13414
1403.52	13336
1404.59	13228
1405.66	13232
1406.73	13286
1407.81	13268
1408.88	12968
1409.95	13162
1411.02	13218
1412.09	13088
1413.17	13086
1414.24	12910
1415.31	13084
1416.38	12986
1417.45	12972
1418.52	12894
1419.59	12926
1420.66	12874
1421.73	12826
1422.8	12930
1423.87	12712
1424.94	12850
1426.01	12866
1427.08	12670
1428.15	12706
1429.22	12632
1430.29	12592
1431.35	12654
1432.42	12530
1433.49	12462
1434.56	12552
1435.63	12538
1436.7	12486
1437.76	12562
1438.83	12450
1439.9	12500
1440.96	12498
1442.03	12402
1443.1	12460
1444.17	12394
1445.23	12330
1446.3	12374
1447.36	12384
1448.43	12290
1449.49	12296
1450.56	12416
1451.63	12232
1452.69	12240
1453.76	12286
1454.82	12166
1455.89	12172
1456.95	12100
1458.01	12204
1459.08	12208
1460.14	12102
1461.21	12106
1462.27	12260
1463.34	12062
1464.4	11968
1465.46	11992
1466.52	12052
1467.59	12078
1468.65	12032
1469.71	11974
1470.77	11902
1471.84	11908
1472.9	11904
1473.96	11976
1475.02	11900
1476.08	11830
1477.15	11772
1478.21	11890
1479.27	11762
1480.33	11846
1481.39	11814
1482.45	11794
1483.51	11804
1484.57	11648
1485.63	11696
1486.69	11628
1487.75	11608
1488.81	11638
1489.87	11784
1490.93	11742
1491.99	11522
1493.05	11680
1494.1	11556
1495.16	11496
1496.22	11492
1497.28	11518
1498.34	11620
1499.4	11644
1500.45	11504
1501.51	11304
1502.57	11624
1503.63	11402
1504.68	11364
1505.74	11400
1506.8	11590
1507.85	11454
1508.91	11438
1509.97	11214
1511.02	11276
1512.08	11224
1513.13	11172
1514.19	11166
1515.24	11276
1516.3	11162
1517.35	11130
1518.41	11174
1519.46	11172
1520.52	11114
1521.57	11214
1522.63	11118
1523.68	11128
1524.73	11020
1525.79	11070
1526.84	10910
1527.9	11096
1528.95	10852
1530	10932
1531.06	10928
1532.11	11014
1533.16	10954
1534.21	10762
1535.26	10872
1536.32	11014
1537.37	10962
1538.42	10644
1539.47	10742
1540.52	10788
1541.57	10720
1542.63	10618
1543.68	10714
1544.73	10704
1545.78	10650
1546.83	10594
1547.88	10650
1548.93	10638
1549.98	10600
1551.03	10602
1552.08	10534
1553.13	10536
1554.18	10600
1555.23	10516
1556.27	10628
1557.32	10448
1558.37	10508
1559.42	10370
1560.47	10452
1561.52	10410
1562.56	10410
1563.61	10390
1564.66	10552
1565.71	10438
1566.75	10428
1567.8	10492
1568.85	10316
1569.9	10504
1570.94	10404
1571.99	10342
1573.03	10360
1574.08	10376
1575.13	10216
1576.17	10286
1577.22	10256
1578.26	10212
1579.31	10280
1580.35	10212
1581.4	10264
1582.44	10222
1583.49	10226
1584.53	10168
1585.58	10286
1586.62	10248
1587.66	10222
1588.71	10248
1589.75	10326
1590.8	10270
1591.84	10264
1592.88	10246
1593.93	10148
1594.97	10300
1596.01	10174
1597.05	10232
1598.1	10068
1599.14	10168
1600.18	10086
1601.22	10136
1602.26	10014
1603.31	10174
1604.35	10084
1605.39	10114
1606.43	10098
1607.47	10160
1608.51	10050
1609.55	10072
1610.59	9998
1611.63	10066
1612.67	10068
1613.71	9914
1614.75	10162
1615.79	10160
1616.83	10076
1617.87	10000
1618.91	10052
1619.95	10036
1620.99	9938
1622.02	9982
1623.06	10046
1624.1	9966
1625.14	9966
1626.18	10106
1627.21	9900
1628.25	10082
1629.29	9904
1630.33	9896
1631.36	9908
1632.4	9876
1633.44	9856
1634.48	9950
1635.51	9968
1636.55	9890
1637.58	9860
1638.62	9876
1639.66	9908
1640.69	9890
1641.73	9786
1642.76	9862
1643.8	9858
1644.83	9868
1645.87	9812
1646.9	9850
1647.94	9630
1648.97	9768
1650	9764
1651.04	9698
1652.07	9774
1653.11	9726
1654.14	9660
1655.17	9746
1656.21	9638
1657.24	9652
1658.27	9692
1659.31	9668
1660.34	9576
1661.37	9678
1662.4	9596
1663.43	9650
1664.47	9586
1665.5	9514
1666.53	9564
1667.56	9586
1668.59	9580
1669.62	9506
1670.66	9464
1671.69	9408
1672.72	9510
1673.75	9374
1674.78	9486
1675.81	9258
1676.84	9440
1677.87	9472
1678.9	9404
1679.93	9458
1680.96	9322
1681.98	9466
1683.01	9368
1684.04	9294
1685.07	9240
1686.1	9362
1687.13	9212
1688.16	9342
1689.19	9272
1690.21	9296
1691.24	9322
1692.27	9280
1693.3	9310
1694.32	9212
1695.35	9164
1696.38	9192
1697.4	9198
1698.43	9066
1699.46	9170
1700.48	9168
1701.51	9152
1702.54	9252
1703.56	9090
1704.59	9090
1705.61	9124
1706.64	9042
1707.66	9026
1708.69	9016
1709.71	9106
1710.74	8926
1711.76	8844
1712.79	8984
1713.81	9048
1714.83	9056
1715.86	9002
1716.88	9080
1717.91	8992
1718.93	8976
1719.95	8928
1720.98	8856
1722	8940
1723.02	9086
1724.04	9046
1725.07	9028
1726.09	8964
1727.11	8846
1728.13	9034
1729.15	8936
1730.18	8938
1731.2	8918
1732.22	8808
1733.24	8762
1734.26	8902
1735.28	8882
1736.3	8864
1737.32	8774
1738.34	8862
1739.36	8788
1740.38	8876
1741.4	8904
1742.42	8696
1743.44	8768
1744.46	8828
1745.48	8826
1746.5	8836
1747.52	8804
1748.54	8740
1749.56	8730
1750.58	8714
1751.6	8664
1752.61	8850
1753.63	8720
1754.65	8822
1755.67	8674
1756.68	8760
1757.7	8630
1758.72	8798
1759.74	8710
1760.75	8702
1761.77	8682
1762.79	8636
1763.8	8652
1764.82	8728
1765.84	8750
1766.85	8656
1767.87	8682
1768.88	8768
1769.9	8708
1770.91	8650
1771.93	8700
1772.94	8776
1773.96	8698
1774.97	8658
1775.99	8726
1777	8664
1778.02	8662
1779.03	8648
1780.04	8672
1781.06	8650
1782.07	8624
1783.09	8690
1784.1	8596
1785.11	8596
1786.13	8540
1787.14	8694
1788.15	8604
1789.16	8728
1790.18	8648
1791.19	8716
1792.2	8558
1793.21	8650
1794.22	8558
1795.23	8660
1796.25	8652
1797.26	8532
1798.27	8522
1799.28	8500
1800.29	8582
1801.3	8486
1802.31	8606
1803.32	8564
1804.33	8474
1805.34	8518
1806.35	8434
1807.36	8460
1808.37	8476
1809.38	8432
1810.39	8440
1811.4	8402
1812.41	8462
1813.42	8410
1814.43	8422
1815.43	8518
1816.44	8424
1817.45	8426
1818.46	8344
1819.47	8398
1820.47	8360
1821.48	8364
1822.49	8346
1823.49	8322
1824.5	8454
1825.51	8416
1826.52	8302
1827.52	8270
1828.53	8298
1829.54	8266
1830.54	8228
1831.55	8238
1832.55	8248
1833.56	8304
1834.56	8332
1835.57	8248
1836.57	8256
1837.58	8256
1838.58	8276
1839.59	8222
1840.59	8352
1841.6	8164
1842.6	8252
1843.61	8216
1844.61	8110
1845.61	8176
1846.62	8152
1847.62	8174
1848.62	8256
1849.63	8152
1850.63	8126
1851.63	8098
1852.64	8222
1853.64	8068
1854.64	8238
1855.64	8128
1856.64	8226
1857.65	7974
1858.65	8126
1859.65	8126
1860.65	8078
1861.65	8038
1862.65	7954
1863.65	8058
1864.66	7984
1865.66	8126
1866.66	8096
1867.66	7994
1868.66	7998
1869.66	8038
1870.66	8030
1871.66	8016
1872.66	8092
1873.66	7986
1874.66	7946
1875.65	7996
1876.65	7994
1877.65	8020
1878.65	8006
1879.65	7980
1880.65	7956
1881.65	7902
1882.64	7974
1883.64	7936
1884.64	7988
1885.64	7908
1886.63	7994
1887.63	7880
1888.63	8026
1889.63	7838
1890.62	7924
1891.62	7826
1892.62	7830
1893.61	7888
1894.61	7908
1895.6	7952
1896.6	7852
1897.6	7932
1898.59	7868
1899.59	7840
1900.58	7898
1901.58	7790
1902.57	7886
1903.57	7892
1904.56	7852
1905.56	7820
1906.55	7830
1907.54	7788
1908.54	7864
1909.53	7698
1910.53	7918
1911.52	7910
1912.51	7852
1913.51	7922
1914.5	7716
1915.49	7864
1916.49	7794
1917.48	7756
1918.47	7768
1919.46	7756
1920.46	7754
1921.45	7796
1922.44	7784
1923.43	7772
1924.42	7844
1925.41	7792
1926.41	7778
1927.4	7888
1928.39	7804
1929.38	7724
1930.37	7822
1931.36	7782
1932.35	7742
1933.34	7912
1934.33	7648
1935.32	7802
1936.31	7802
1937.3	7826
1938.29	7670
1939.28	7666
1940.27	7688
1941.26	7726
1942.24	7808
1943.23	7684
1944.22	7764
1945.21	7704
1946.2	7680
1947.19	7718
1948.17	7624
1949.16	7684
1950.15	7632
1951.14	7580
1952.13	7692
1953.11	7616
1954.1	7628
1955.09	7644
1956.07	7702
1957.06	7600
1958.05	7764
1959.03	7576
1960.02	7548
1961	7660
1961.99	7484
1962.98	7696
1963.96	7588
1964.95	7498
1965.93	7570
1966.92	7670
1967.9	7504
1968.89	7574
1969.87	7430
1970.85	7474
1971.84	7572
1972.82	7526
1973.81	7538
1974.79	7494
1975.78	7556
1976.76	7466
1977.74	7526
1978.73	7426
1979.71	7548
1980.69	7514
1981.67	7404
1982.66	7500
1983.64	7570
1984.62	7476
1985.6	7404
1986.59	7402
1987.57	7470
1988.55	7428
1989.53	7422
1990.51	7482
1991.49	7414
1992.47	7386
1993.45	7472
1994.44	7420
1995.42	7368
1996.4	7450
1997.38	7394
1998.36	7382
1999.34	7434
2000.32	7270
2001.3	7368
2002.28	7392
2003.26	7402
2004.24	7424
2005.22	7360
2006.19	7370
2007.17	7344
2008.15	7326
2009.13	7392
2010.11	7458
2011.09	7394
2012.06	7306
2013.04	7350
2014.02	7408
2015	7322
2015.98	7366
2016.95	7330
2017.93	7348
2018.91	7298
2019.88	7266
2020.86	7258
2021.84	7262
2022.81	7314
2023.79	7366
2024.77	7288
2025.74	7306
2026.72	7286
2027.69	7298
2028.67	7406
2029.65	7272
2030.62	7128
2031.6	7222
2032.57	7290
2033.55	7220
2034.52	7274
2035.5	7274
2036.47	7188
2037.44	7324
2038.42	7244
2039.39	7256
2040.36	7210
2041.34	7168
2042.31	7266
2043.29	7206
2044.26	7288
2045.23	7202
2046.2	7154
2047.18	7096
2048.15	7332
2049.12	7162
2050.09	7134
2051.07	7210
2052.04	7248
2053.01	7210
2053.98	7184
2054.95	7148
2055.93	7108
2056.9	7232
2057.87	7108
2058.84	7082
2059.81	7012
2060.78	7084
2061.75	7220
2062.72	7124
2063.69	7230
2064.66	7202
2065.63	7126
2066.6	7104
2067.57	7060
2068.54	7106
2069.51	7106
2070.48	7030
2071.45	7148
2072.42	7156
2073.38	7054
2074.35	7056
2075.32	7106
2076.29	6960
2077.26	7010
2078.23	7006
2079.19	7028
2080.16	6984
2081.13	7178
2082.1	7084
2083.06	6924
2084.03	7070
2085	6968
2085.96	7070
2086.93	6990
2087.9	7018
2088.86	6960
2089.83	6950
2090.8	7028
2091.76	7050
2092.73	7056
2093.69	6922
2094.66	6996
2095.62	6948
2096.59	6842
2097.55	7020
2098.52	6906
2099.48	7048
2100.45	6982
2101.41	6950
2102.38	6934
2103.34	6958
2104.31	6962
2105.27	6848
2106.23	6894
2107.2	6986
2108.16	6962
2109.12	6892
2110.09	6888
2111.05	6888
2112.01	6838
2112.98	6944
2113.94	6882
2114.9	6922
2115.86	6926
2116.82	6894
2117.79	6748
2118.75	6872
2119.71	6854
2120.67	6738
2121.63	6800
2122.59	6884
2123.55	6868
2124.52	6804
2125.48	6742
2126.44	6836
2127.4	6900
2128.36	6792
2129.32	6746
2130.28	6794
2131.24	6864
2132.2	6728
2133.16	6842
2134.12	6778
2135.08	6752
2136.04	6732
2136.99	6788
2137.95	6810
2138.91	6824
2139.87	6558
2140.83	6814
2141.79	6768
2142.75	6616
2143.7	6786
2144.66	6636
2145.62	6712.23
2146.58	6774.6
2147.53	6792.48
2148.49	6652.35
2149.45	6631.17
2150.41	6734.45
2151.36	6711.92
2152.32	6657.56
2153.28	6707.72
2154.23	6640.9
2155.19	6726.35
2156.14	6671.83
2157.1	6615.46
2158.06	6664.08
2159.01	6637.09
2159.97	6510.97
2160.92	6590.8
2161.88	6517.28
2162.83	6593.5
2163.79	6683.18
2164.74	6657.9
2165.7	6609.75
2166.65	6626.62
2167.61	6514.11
2168.56	6589.41
2169.51	6610.26
2170.47	6468.33
2171.42	6504.77
2172.38	6549.76
2173.33	6538.98
2174.28	6551.03
2175.24	6510.56
2176.19	6517.2
2177.14	6459.72
2178.09	6502.85
2179.05	6488.97
2180	6428.72
2180.95	6434.33
2181.9	6425.78
2182.86	6481.84
2183.81	6468.43
2184.76	6415.64
2185.71	6422.89
2186.66	6396.04
2187.61	6400.32
2188.57	6460.38
2189.52	6510.68
2190.47	6427.85
2191.42	6392.46
2192.37	6401.4
2193.32	6408.47
2194.27	6398.92
2195.22	6416.33
2196.17	6383.29
2197.12	6447.25
2198.07	6434.19
2199.02	6445.91
2199.97	6432.83
2200.92	6338.59
2201.87	6459.61
2202.82	6399.56
2203.76	6356.41
2204.71	6436.24
2205.66	6367.7
2206.61	6397.84
2207.56	6398.64
2208.51	6297.27
2209.45	6335.84
2210.4	6374.49
2211.35	6323.64
2212.3	6340.2
2213.25	6353.69
2214.19	6398.75
2215.14	6407.42
2216.09	6336.37
2217.03	6358.03
2217.98	6313.24
2218.93	6322.98
2219.87	6324.74
2220.82	6356.61
2221.77	6397.72
2222.71	6377.87
2223.66	6344.35
2224.6	6365.88
2225.55	6363.15
2226.49	6299.12
2227.44	6344.37
2228.38	6365.42
2229.33	6373.01
2230.27	6358.19
2231.22	6316.85
2232.16	6303.89
2233.11	6308.56
2234.05	6330.69
2235	6394.56
2235.94	6405.14
2236.88	6374.91
2237.83	6307.33
2238.77	6303.16
2239.72	6358.46
2240.66	6336.85
2241.6	6324.2
2242.07	6358
2243.02	6420
2243.97	6364
2244.92	6480
2245.87	6236
2246.81	6314
2247.76	6360
2248.71	6268
2249.65	6356
2250.6	6340
2251.55	6304
2252.49	6332
2253.44	6354
2254.39	6312
2255.33	6326
2256.28	6290
2257.22	6392
2258.17	6296
2259.12	6310
2260.06	6394
2261.01	6298
2261.95	6370
2262.9	6392
2263.84	6328
2264.78	6254
2265.73	6348
2266.67	6326
2267.62	6278
2268.56	6334
2269.51	6306
2270.45	6326
2271.39	6288
2272.34	6230
2273.28	6178
2274.22	6292
2275.17	6242
2276.11	6198
2277.05	6318
2277.99	6286
2278.94	6278
2279.88	6292
2280.82	6198
2281.76	6204
2282.71	6262
2283.65	6258
2284.59	6220
2285.53	6280
2286.47	6204
2287.41	6190
2288.35	6318
2289.3	6162
2290.24	6200
2291.18	6212
2292.12	6206
2293.06	6128
2294	6154
2294.94	6088
2295.88	6212
2296.82	6126
2297.76	6202
2298.7	6190
2299.64	6122
2300.58	6226
2301.52	6164
2302.46	6158
2303.39	6084
2304.33	6224
2305.27	6148
2306.21	6180
2307.15	6152
2308.09	6174
2309.02	6166
2309.96	6088
2310.9	6100
2311.84	5986
2312.77	6106
2313.71	6154
2314.65	6048
2315.59	5962
2316.52	6020
2317.46	6132
2318.4	6062
2319.33	6082
2320.27	6026
2321.21	6112
2322.14	6100
2323.08	6052
2324.01	6048
2324.95	6048
2325.89	5974
2326.82	5922
2327.76	6122
2328.69	6000
2329.63	6024
2330.56	6094
2331.5	6028
2332.43	6054
2333.36	5990
2334.3	6050
2335.23	6044
2336.17	5970
2337.1	5922
2338.03	5982
2338.97	5934
2339.9	5976
2340.83	5970
2341.77	5974
2342.7	5982
2343.63	5974
2344.57	5970
2345.5	5908
2346.43	5930
2347.36	5986
2348.3	5950
2349.23	6004
2350.16	5922
2351.09	5920
2352.02	5864
2352.95	5844
2353.89	5848
2354.82	5952
2355.75	5932
2356.68	6020
2357.61	5862
2358.54	5916
2359.47	5884
2360.4	5866
2361.33	5892
2362.26	6032
2363.19	5910
2364.12	5872
2365.05	5876
2365.98	5900
2366.91	5874
2367.84	5920
2368.77	5900
2369.7	5932
2370.63	5812
2371.56	5856
2372.48	5896
2373.41	5868
2374.34	5852
2375.27	5840
2376.2	5786
2377.12	5846
2378.05	5930
2378.98	5840
2379.91	5806
2380.84	5960
2381.76	5740
2382.69	5850
2383.62	5768
2384.54	5726
2385.47	5832
2386.4	5790
2387.32	5816
2388.25	5866
2389.18	5810
2390.1	5786
2391.03	5828
2391.95	5796
2392.88	5752
2393.8	5744
2394.73	5774
2395.65	5690
2396.58	5652
2397.5	5842
2398.43	5730
2399.35	5664
2400.28	5730
2401.2	5632
2402.13	5768
2403.05	5796
2403.97	5694
2404.9	5688
2405.82	5608
2406.75	5728
2407.67	5700
2408.59	5728
2409.51	5734
2410.44	5698
2411.36	5712
2412.28	5682
2413.21	5718
2414.13	5654
2415.05	5600
2415.97	5688
2416.9	5596
2417.82	5694
2418.74	5760
2419.66	5658
2420.58	5650
2421.5	5686
2422.42	5588
2423.35	5616
2424.27	5562
2425.19	5592
2426.11	5644
2427.03	5664
2427.95	5652
2428.87	5498
2429.79	5592
2430.71	5550
2431.63	5558
2432.55	5660
2433.47	5630
2434.39	5534
2435.31	5490
2436.23	5472
2437.14	5618
2438.06	5562
2438.98	5506
2439.9	5424
2440.82	5474
2441.74	5514
2442.66	5506
2443.57	5426
2444.49	5594
2445.41	5494
2446.33	5476
2447.24	5522
2448.16	5486
2449.08	5438
2450	5512
2450.91	5504
2451.83	5504
2452.75	5490
2453.66	5450
2454.58	5442
2455.5	5430
2456.41	5462
2457.33	5402
2458.24	5490
2459.16	5380
2460.08	5340
2460.99	5458
2461.91	5418
2462.82	5470
2463.74	5408
2464.65	5510
2465.57	5434
2466.48	5346
2467.4	5336
2468.31	5338
2469.22	5320
2470.14	5502
2471.05	5456
2471.97	5368
2472.88	5434
2473.79	5378
2474.71	5352
2475.62	5330
2476.53	5446
2477.45	5326
2478.36	5342
2479.27	5366
2480.19	5362
2481.1	5372
2482.01	5376
2482.92	5340
2483.83	5364
2484.75	5362
2485.66	5334
2486.57	5364
2487.48	5280
2488.39	5266
2489.3	5278
2490.22	5302
2491.13	5268
2492.04	5300
2492.95	5248
2493.86	5152
2494.77	5200
2495.68	5220
2496.59	5246
2497.5	5268
2498.41	5088
2499.32	5294
2500.23	5208
2501.14	5208
2502.05	5182
2502.96	5088
2503.87	5176
2504.78	5236
2505.68	5194
2506.59	5158
2507.5	5182
2508.41	5102
2509.32	5194
2510.23	5196
2511.14	5158
2512.04	5098
2512.95	5176
2513.86	5176
2514.77	5182
2515.67	5092
2516.58	5088
2517.49	5056
2518.39	5136
2519.3	5062
2520.21	5078
2521.11	5126
2522.02	5038
2522.93	5084
2523.83	5014
2524.74	5004
2525.65	5088
2526.55	5086
2527.46	5098
2528.36	5092
2529.27	4972
2530.17	5086
2531.08	5072
2531.98	5094
2532.89	5076
2533.79	5036
2534.7	5066
2535.6	4940
2536.51	5034
2537.41	5040
2538.32	4974
2539.22	4916
2540.12	4922
2541.03	4976
2541.93	4948
2542.83	4912
2543.74	4924
2544.64	4870
2545.54	4860
2546.45	4938
2547.35	5002
2548.25	4898
2549.15	4900
2550.06	4900
2550.96	4922
2551.86	4940
2552.76	4796
2553.66	4872
2554.56	4838
2555.47	4914
2556.37	4880
2557.27	4904
2558.17	4912
2559.07	4882
2559.97	4786
2560.87	4800
2561.77	4860
2562.67	4818
2563.58	4822
2564.47	4840
2565.38	4870
2566.27	4836
2567.18	4716
2568.07	4868
2568.97	4796
2569.87	4718
2570.77	4770
2571.67	4794
2572.57	4774
2573.47	4814
2574.37	4788
2575.27	4776
2576.17	4816
2577.06	4814
2577.96	4678
2578.86	4738
2579.76	4790
2580.66	4730
2581.55	4746
2582.45	4774
2583.35	4728
2584.25	4688
2585.14	4774
2586.04	4684
2586.94	4636
2587.83	4776
2588.73	4588
2589.63	4662
2590.52	4730
2591.42	4656
2592.32	4606
2593.21	4648
2594.11	4646
2595	4620
2595.9	4630
2596.8	4640
2597.69	4546
2598.59	4616
2599.48	4578
2600.38	4568
2601.27	4646
2602.17	4592
2603.06	4476
2603.95	4578
2604.85	4576
2605.74	4536
2606.64	4572
2607.53	4644
2608.42	4614
2609.32	4530
2610.21	4518
2611.1	4512
2612	4564
2612.89	4580
2613.78	4530
2614.68	4460
2615.57	4494
2616.46	4480
2617.36	4472
2618.25	4528
2619.14	4562
2620.03	4534
2620.92	4454
2621.82	4420
2622.71	4514
2623.6	4538
2624.49	4410
2625.38	4436
2626.27	4410
2627.16	4406
2628.05	4422
2628.95	4488
2629.84	4414
2630.73	4474
2631.62	4398
2632.51	4374
2633.4	4440
2634.29	4340
2635.18	4400
2636.07	4416
2636.96	4388
2637.85	4454
2638.74	4382
2639.62	4346
2640.51	4268
2641.4	4288
2642.29	4310
2643.18	4238
2644.07	4360
2644.96	4242
2645.85	4324
2646.73	4224
2647.62	4304
2648.51	4340
2649.4	4328
2650.28	4304
2651.17	4238
2652.06	4296
2652.95	4310
2653.83	4246
2654.72	4256
2655.61	4274
2656.5	4280
2657.38	4180
2658.27	4318
2659.15	4202
2660.04	4228
2660.93	4274
2661.81	4208
2662.7	4218
2663.58	4242
2664.47	4212
2665.35	4222
2666.24	4186
2667.13	4280
2668.01	4236
2668.9	4298
2669.78	4236
2670.66	4142
2671.55	4220
2672.43	4224
2673.32	4178
2674.2	4198
2675.09	4114
2675.97	4184
2676.85	4144
2677.74	4082
2678.62	4100
2679.5	4214
2680.39	4120
2681.27	4124
2682.15	4162
2683.04	4122
2683.92	4122
2684.8	4150
2685.68	4096
2686.57	4186
2687.45	4074
2688.33	4068
2689.21	4052
2690.09	4108
2690.98	4062
2691.86	4030
2692.74	4002
2693.62	4012
2694.5	4060
2695.38	4102
2696.26	4132
2697.15	3980
2698.03	4064
2698.91	4022
2699.79	3938
2700.67	4030
2701.55	4004
2702.43	4018
2703.31	4068
2704.19	4014
2705.07	4018
2705.95	3998
2706.83	4046
2707.7	3912
2708.58	3924
2709.46	3938
2710.34	3966
2711.22	3942
2712.1	3956
2712.98	3896
2713.86	3976
2714.73	3944
2715.61	3930
2716.49	3998
2717.37	3874
2718.25	3904
2719.12	3934
2720	3896
2720.88	3938
2721.76	3858
2722.63	3854
2723.51	3842
2724.39	4006
2725.26	3894
2726.14	3888
2727.02	3920
2727.89	3890
2728.77	3846
2729.64	3872
2730.52	3874
2731.4	3802
2732.27	3900
2733.15	3862
2734.02	3872
2734.9	3930
2735.77	3824
2736.65	3838
2737.52	3752
2738.4	3806
2739.27	3744
2740.15	3776
2741.02	3786
2741.9	3698
2742.77	3736
2743.64	3718
2744.52	3704
2745.39	3700
2746.27	3714
2747.14	3662
2748.01	3678
2748.89	3702
2749.76	3740
2750.63	3752
2751.51	3670
2752.38	3716
2753.25	3732
2754.12	3654
2755	3648
2755.87	3640
2756.74	3656
2757.61	3676
2758.48	3732
2759.35	3696
2760.23	3648
2761.1	3698
2761.97	3672
2762.84	3654
2763.71	3704
2764.58	3646
2765.45	3586
2766.32	3628
2767.19	3604
2768.07	3604
2768.94	3664
2769.81	3626
2770.68	3638
2771.55	3528
2772.42	3628
2773.29	3658
2774.16	3642
2775.02	3688
2775.89	3528
2776.76	3582
2777.63	3604
2778.5	3534
2779.37	3548
2780.24	3568
2781.11	3592
2781.98	3568
2782.84	3482
2783.71	3510
2784.58	3574
2785.45	3558
2786.32	3532
2787.18	3514
2788.05	3510
2788.92	3512
2789.79	3458
2790.65	3514
2791.52	3542
2792.39	3552
2793.25	3490
2794.12	3432
2794.99	3422
2795.85	3434
2796.72	3464
2797.59	3474
2798.45	3462
2799.32	3474
2800.18	3360
2801.05	3540
2801.92	3474
2802.78	3434
2803.65	3377
2804.51	3320
2805.38	3474
2806.24	3456
2807.11	3386
2807.97	3446
2808.84	3402
2809.7	3418
2810.57	3296
2811.43	3312
2812.29	3426
2813.16	3358
2814.02	3400
2814.88	3368
2815.75	3376
2816.61	3416
2817.47	3346
2818.34	3338
2819.2	3364
2820.06	3362
2820.93	3250
2821.79	3458
2822.65	3262
2823.51	3302
2824.38	3322
2825.24	3358
2826.1	3306
2826.96	3280
2827.82	3328
2828.69	3288
2829.55	3298
2830.41	3332
2831.27	3250
2832.13	3336
2832.99	3220
2833.85	3270
2834.71	3294
2835.57	3290
2836.44	3266
2837.3	3230
2838.16	3276
2839.02	3174
2839.88	3240
2840.74	3210
2841.6	3188
2842.46	3266
2843.32	3286
2844.18	3226
2845.03	3148
2845.89	3218
2846.75	3152
2847.61	3166
2848.47	3126
2849.33	3222
2850.19	3164
2851.05	3146
2851.9	3156
2852.76	3182
2853.62	3128
2854.48	3188
2855.34	3110
2856.19	3116
2857.05	3112
2857.91	3144
2858.77	3060
2859.62	3092
2860.48	3148
2861.34	3066
2862.19	3066
2863.05	3088
2863.91	3110
2864.76	3090
2865.62	3006
2866.48	3068
2867.33	3122
2868.19	3088
2869.04	3022
2869.9	3064
2870.76	3036
2871.61	3076
2872.47	3066
2873.32	3056
2874.18	3048
2875.03	3112
2875.89	2992
2876.74	3014
2877.6	3062
2878.45	2976
2879.31	3036
2880.16	3048
2881.01	2986
2881.87	2988
2882.72	2952
2883.58	2952
2884.43	3004
2885.28	2946
2886.14	2992
2886.99	2972
2887.84	2934
2888.7	3002
2889.55	2920
2890.4	2990
2891.25	2944
2892.11	3008
2892.96	2942
2893.81	2990
2894.66	2962
2895.52	2918
2896.37	2974
2897.22	2888
2898.07	2868
2898.92	2888
2899.77	2940
2900.62	2882
2901.48	2820
2902.33	2902
2903.18	2934
2904.03	2900
2904.88	2864
2905.73	2906
2906.58	2874
2907.43	2942
2908.28	2884
2909.13	2916
2909.98	2858
2910.83	2854
2911.68	2880
2912.53	2894
2913.38	2848
2914.23	2946
2915.08	2854
2915.93	2812
2916.78	2894
2917.63	2832
2918.47	2862
2919.32	2896
2920.17	2822
2921.02	2846
2921.87	2770
2922.72	2814
2923.56	2770
2924.41	2854
2925.26	2846
2926.11	2846
2926.95	2748
2927.8	2850
2928.65	2800
2929.5	2822
2930.34	2872
2931.19	2794
2932.04	2788
2932.88	2790
2933.73	2780
2934.58	2778
2935.42	2746
2936.27	2728
2937.11	2728
2937.96	2726
2938.81	2790
2939.65	2768
2940.5	2812
2941.34	2818
2942.19	2764
2943.03	2752
2943.88	2754
2944.72	2738
2945.57	2694
2946.41	2722
2947.26	2746
2948.1	2710
2948.95	2718
2949.79	2804
2950.64	2722
2951.48	2706
2952.32	2686
2953.17	2742
2954.01	2724
2954.85	2670
2955.7	2736
2956.54	2670
2957.38	2740
2958.23	2664
2959.07	2690
2959.91	2650
2960.75	2648
2961.6	2634
2962.44	2596
2963.28	2674
2964.12	2686
2964.97	2646
2965.81	2624
2966.65	2602
2967.49	2562
2968.33	2650
2969.17	2616
2970.02	2602
2970.86	2662
2971.7	2666
2972.54	2696
2973.38	2656
2974.22	2594
2975.06	2602
2975.9	2592
2976.74	2598
2977.58	2594
2978.42	2648
2979.26	2642
2980.1	2556
2980.94	2610
2981.78	2512
2982.62	2606
2983.46	2648
2984.3	2598
2985.14	2612
2985.98	2570
2986.82	2592
2987.66	2572
2988.49	2494
2989.33	2548
2990.17	2518
2991.01	2576
2991.85	2558
2992.69	2522
2993.52	2534
2994.36	2566
2995.2	2528
2996.04	2550
2996.87	2484
2997.71	2548
2998.55	2472
2999.39	2520
