#Acq. time (s)=	10
#Accumulations=	1
#Range (cm-¹)=	100...3000
#Windows=	3
#Autofocus=	Off
#AutoExposure=	Off
#Spike filter=	Off
#Delay time (s)=	0
#Binning=	1
#Readout mode=	Signal
#DeNoise=	Off
#ICS correction=	Off
#Dark correction=	Off
#Inst. Process=	Off
#Instrument=	LabRAM HR Evol
#Detector=	Syncerity OE
#Objective=	x100_VIS
#Grating=	600 (500nm)
#ND Filter=	3.2%
#Laser=	633nm_Edge
#Hole=	100.021
#Range=	Visible
#Project=	Omar
#Sample=	26-06-23
#Site=	2
#Title=	Organic
#Remark=	
#Date=	26.06.2023 16:28
#Acquired=	26.06.2023 16:28:47
101.018	3728
102.302	3732
103.586	3692
104.869	3712
106.152	3686
107.435	3718
108.717	3644
109.999	3790
111.281	3746
112.563	3696
113.845	3730
115.126	3800
116.407	3736
117.688	3724
118.969	3810
120.249	3814
121.53	3766
122.81	3802
124.09	3830
125.369	3848
126.649	3776
127.928	3790
129.207	3888
130.486	3838
131.765	3836
133.043	3856
134.321	3838
135.599	3772
136.877	3882
138.155	3838
139.432	3960
140.708	3764
141.985	3876
143.261	3896
144.538	3928
145.814	3902
147.09	3886
148.366	3916
149.641	3930
150.916	3918
152.191	3926
153.466	3940
154.741	3950
156.016	4054
157.289	3890
158.563	3976
159.837	3908
161.111	3926
162.385	3934
163.657	3930
164.93	3976
166.203	3990
167.476	3918
168.747	3976
170.019	3964
171.291	3950
172.562	3982
173.834	4034
175.105	4050
176.377	4014
177.646	4104
178.917	4038
180.188	4016
181.457	3992
182.727	4004
183.996	4022
185.266	4066
186.536	4034
187.804	4036
189.073	4052
190.342	4172
191.609	4058
192.878	4068
194.145	4136
195.413	4150
196.681	4100
197.948	4144
199.215	4196
200.481	4192
201.749	4228
203.014	4164
204.281	4226
205.546	4258
206.813	4214
208.077	4246
209.343	4248
210.608	4200
211.873	4360
213.137	4204
214.402	4260
215.666	4270
216.93	4382
218.194	4294
219.458	4408
220.721	4352
221.983	4312
223.247	4364
224.509	4368
225.772	4250
227.034	4328
228.295	4378
229.558	4460
230.819	4382
232.081	4354
233.342	4430
234.602	4490
235.864	4424
237.124	4358
238.384	4434
239.645	4576
240.904	4498
242.164	4492
243.423	4458
244.683	4484
245.941	4518
247.2	4584
248.46	4588
249.717	4548
250.975	4446
252.233	4440
253.492	4616
254.749	4556
256.006	4538
257.263	4542
258.519	4560
259.777	4530
261.033	4630
262.289	4586
263.545	4620
264.8	4534
266.057	4568
267.312	4544
268.567	4480
269.822	4522
271.076	4564
272.331	4518
273.585	4548
274.839	4608
276.094	4612
277.347	4578
278.601	4594
279.854	4606
281.107	4638
282.359	4560
283.612	4602
284.864	4694
286.116	4568
287.368	4660
288.62	4682
289.871	4652
291.123	4722
292.374	4644
293.625	4718
294.875	4714
296.126	4748
297.376	4706
298.626	4830
299.876	4758
301.126	4798
302.375	4802
303.625	4866
304.874	4804
306.122	4708
307.371	4804
308.62	4892
309.866	4830
311.114	4824
312.362	4852
313.61	4856
314.857	4862
316.105	4826
317.352	4960
318.599	4952
319.844	4906
321.09	4930
322.337	4932
323.583	4974
324.828	4938
326.073	4986
327.318	4870
328.563	4934
329.808	4952
331.053	4988
332.296	4974
333.541	4966
334.785	4932
336.029	5050
337.272	4904
338.515	5066
339.759	5026
341.001	4944
342.244	5056
343.486	4948
344.728	4992
345.97	5082
347.212	5118
348.453	5086
349.695	4990
350.936	5056
352.176	5096
353.418	5120
354.659	5118
355.898	5194
357.139	5064
358.378	5076
359.618	5032
360.858	5124
362.097	5192
363.336	5114
364.574	5160
365.813	5046
367.051	5084
368.29	5092
369.527	5144
370.766	5170
372.002	5234
373.241	5158
374.477	5210
375.715	5202
376.951	5254
378.188	5136
379.424	5198
380.66	5154
381.896	5140
383.132	5138
384.367	5240
385.603	5184
386.838	5264
388.072	5218
389.307	5290
390.541	5322
391.776	5314
393.01	5334
394.243	5204
395.477	5276
396.71	5226
397.943	5318
399.177	5268
400.409	5324
401.641	5306
402.875	5392
404.106	5294
405.338	5428
406.57	5370
407.802	5402
409.032	5408
410.263	5422
411.495	5464
412.725	5426
413.955	5562
415.185	5522
416.417	5512
417.646	5570
418.875	5612
420.104	5492
421.335	5612
422.564	5660
423.792	5570
425.02	5652
426.249	5562
427.477	5720
428.706	5620
429.933	5736
431.161	5610
432.388	5704
433.615	5668
434.841	5682
436.068	5760
437.294	5778
438.522	5848
439.748	5776
440.974	5648
442.199	5804
443.425	5866
444.65	5734
445.875	5750
447.1	5810
448.324	5784
449.549	5762
450.773	5778
451.997	5726
453.221	5844
454.445	5844
455.668	5720
456.891	5832
458.114	5778
459.337	5732
460.56	5776
461.782	5776
463.005	5846
464.227	5878
465.447	5836
466.669	5904
467.89	5846
469.112	5838
470.333	5846
471.554	5818
472.774	6018
473.995	5928
475.214	5936
476.434	5908
477.654	5922
478.874	6000
480.093	5996
481.312	5914
482.53	6016
483.749	5924
484.968	6030
486.186	6090
487.405	6118
488.622	5996
489.84	6050
491.057	6032
492.275	6122
493.491	6130
494.708	6172
495.925	6082
497.141	6178
498.357	6096
499.574	6108
500.789	6136
502.005	6152
503.221	6142
504.435	6162
505.65	6302
506.866	6068
508.079	6216
509.294	6194
510.509	6240
511.722	6232
512.936	6122
514.149	6226
515.363	6270
516.577	6284
517.789	6180
519.002	6208
520.214	6278
521.427	6258
522.638	6288
523.851	6250
525.062	6284
526.274	6210
527.485	6296
528.697	6320
529.907	6214
531.118	6326
532.328	6336
533.539	6344
534.748	6240
535.959	6396
537.168	6312
538.379	6384
539.587	6418
540.796	6286
542.005	6284
543.214	6442
544.423	6404
545.631	6358
546.838	6318
548.047	6372
549.254	6332
550.461	6442
551.669	6440
552.876	6352
554.082	6524
555.29	6414
556.496	6418
557.701	6480
558.909	6410
560.114	6546
561.319	6468
562.524	6522
563.731	6436
564.935	6488
566.14	6502
567.344	6604
568.549	6560
569.753	6556
570.957	6630
572.161	6594
573.364	6568
574.568	6676
575.771	6622
576.974	6710
578.177	6718
579.379	6710
580.581	6682
581.785	6720
582.987	6650
584.188	6666
585.39	6676
586.591	6768
587.792	6744
588.993	6712
590.193	6802
591.394	6830
592.594	6774
593.796	6790
594.996	6896
596.195	6898
597.395	6918
598.594	6850
599.793	6872
600.992	6926
602.191	6918
603.39	6880
604.588	6984
605.786	6960
606.984	6980
608.181	7106
609.378	7054
610.576	6924
611.773	7172
612.97	7016
614.167	7094
615.364	7142
616.56	7132
617.757	7176
618.953	7134
620.149	7172
621.343	7186
622.539	7332
623.734	7254
624.929	7258
626.124	7330
627.319	7396
628.512	7292
629.707	7268
630.901	7370
632.095	7386
633.289	7476
634.481	7454
635.675	7586
636.868	7596
638.061	7544
639.253	7518
640.446	7560
641.638	7630
642.831	7568
644.021	7582
645.213	7674
646.405	7626
647.595	7734
648.787	7654
649.978	7642
651.168	7684
652.359	7796
653.549	7668
654.738	7728
655.929	7764
657.117	7688
658.307	7764
659.497	7860
660.685	7916
661.875	7762
663.063	7752
664.252	7860
665.439	7788
666.628	7878
667.816	7776
669.003	7954
670.191	7972
671.378	7994
672.565	7998
673.751	7856
674.939	7906
676.124	7962
677.311	7932
678.497	8052
679.682	8056
680.868	8076
682.053	8006
683.239	8078
684.424	8044
685.609	8108
686.793	8136
687.977	8300
689.162	8168
690.346	8152
691.529	8106
692.714	8186
693.897	8286
695.081	8158
696.264	8270
697.446	8242
698.63	8270
699.812	8272
700.993	8354
702.175	8322
703.358	8458
704.539	8344
705.72	8438
706.901	8528
708.083	8436
709.264	8470
710.444	8582
711.625	8484
712.806	8512
713.986	8500
715.165	8540
716.345	8610
717.524	8604
718.705	8786
719.884	8580
721.062	8638
722.241	8718
723.419	8762
724.597	8740
725.775	8690
726.954	8766
728.132	8844
729.31	8808
730.487	8952
731.664	8894
732.841	8880
734.017	8882
735.194	9066
736.37	9014
737.546	9172
738.722	9046
739.898	9026
741.074	8956
742.249	9180
743.424	9162
744.599	9180
745.774	9112
746.949	9156
748.123	9288
749.298	9272
750.472	9210
751.646	9180
752.819	9254
753.993	9358
755.166	9330
756.34	9378
757.511	9290
758.684	9406
759.857	9326
761.029	9394
762.202	9546
763.374	9342
764.546	9488
765.716	9588
766.888	9574
768.059	9570
769.23	9472
770.401	9654
771.571	9592
772.741	9650
773.912	9636
775.082	9596
776.251	9804
777.421	9764
778.59	9738
779.76	9752
780.928	9884
782.097	9824
783.266	9838
784.434	9814
785.602	9926
786.771	9894
787.938	9948
789.106	10022
790.274	9950
791.44	9940
792.608	10078
793.775	9958
794.941	10188
796.108	10148
797.273	10194
798.44	10220
799.606	10196
800.771	10158
801.937	10408
803.102	10120
804.268	10298
805.432	10374
806.597	10450
807.761	10328
808.926	10470
810.09	10438
811.254	10600
812.417	10482
813.582	10578
814.744	10756
815.908	10668
817.071	10818
818.234	10678
819.396	10680
820.558	10900
821.721	10798
822.883	10916
824.045	10814
825.206	11034
826.367	10916
827.529	11068
828.69	11144
829.85	11148
831.012	11088
832.172	11198
833.332	11162
834.493	11172
835.653	11262
836.812	11326
837.972	11416
839.131	11420
840.29	11482
841.449	11458
842.609	11406
843.767	11582
844.925	11618
846.083	11648
847.242	11756
848.399	11636
849.557	11682
850.714	11680
851.871	11732
853.029	11846
854.186	11848
855.342	11922
856.498	11834
857.654	12036
858.81	11920
859.966	12022
861.122	11970
862.278	12162
863.434	12062
864.589	12026
865.744	12228
866.898	12310
868.053	12328
869.207	12260
870.361	12270
871.515	12364
872.669	12432
873.822	12356
874.976	12396
876.129	12464
877.282	12528
878.435	12536
879.588	12508
880.74	12570
881.893	12616
883.045	12594
884.197	12626
885.349	12690
886.5	12814
887.652	12638
888.802	12708
889.953	12866
891.104	12832
892.254	12748
893.405	12792
894.555	12888
895.706	12782
896.854	12940
898.004	12898
899.154	13028
900.303	13034
901.453	13102
902.6	13008
903.749	13166
904.898	13234
906.047	13116
907.194	13094
908.342	13258
909.49	13176
910.638	13196
911.785	13176
912.932	13104
914.08	13286
915.225	13306
916.372	13420
917.519	13432
918.666	13522
919.811	13504
920.957	13548
922.102	13658
923.248	13584
924.394	13736
925.538	13616
926.684	13726
927.828	13848
928.973	13868
930.118	13636
931.261	13914
932.406	13912
933.549	13856
934.693	13912
935.836	14166
936.979	14052
938.122	14252
939.265	13998
940.407	14146
941.55	14158
942.692	14086
943.835	14372
944.976	14238
946.118	14412
947.259	14444
948.401	14498
949.542	14568
950.682	14470
951.824	14582
952.964	14754
954.105	14596
955.245	14726
956.385	14844
957.525	14808
958.664	14826
959.803	14784
960.944	15054
962.082	14856
963.221	15044
964.36	15048
965.498	15048
966.636	15202
967.774	15218
968.913	15146
970.051	15182
971.188	15231
972.325	15280
973.463	15352
974.6	15396
975.736	15358
976.873	15490
978.009	15264
979.146	15472
980.282	15518
981.418	15524
982.554	15618
983.689	15584
984.824	15528
985.959	15568
987.095	15776
988.23	15846
989.364	15860
990.499	15928
991.633	15780
992.767	15878
993.9	15780
995.034	15930
996.167	16090
997.301	15958
998.434	16150
999.567	16006
1000.7	15894
1001.83	16258
1002.96	16168
1004.1	16222
1005.23	16188
1006.36	16294
1007.49	16352
1008.62	16360
1009.76	16384
1010.89	16420
1012.02	16434
1013.15	16460
1014.28	16518
1015.41	16580
1016.54	16476
1017.67	16722
1018.8	16684
1019.93	16658
1021.06	16674
1022.19	16832
1023.32	16782
1024.44	16852
1025.57	16956
1026.7	16852
1027.83	16808
1028.96	17088
1030.09	17110
1031.21	17090
1032.34	17032
1033.47	16970
1034.6	17234
1035.72	17260
1036.85	17276
1037.98	17206
1039.1	17342
1040.23	17366
1041.35	17340
1042.48	17484
1043.61	17668
1044.73	17534
1045.86	17474
1046.98	17614
1048.11	17748
1049.23	17706
1050.36	17844
1051.48	17792
1052.61	17776
1053.73	18024
1054.85	17822
1055.98	18056
1057.1	17970
1058.22	17966
1059.35	17946
1060.47	18082
1061.59	18162
1062.72	18112
1063.84	18134
1064.96	18234
1066.08	18020
1067.2	18224
1068.33	18336
1069.45	18166
1070.57	18294
1071.69	18234
1072.81	18240
1073.93	18306
1075.05	18348
1076.17	18418
1077.29	18464
1078.41	18352
1079.53	18294
1080.65	18450
1081.77	18352
1082.89	18400
1084.01	18454
1085.13	18300
1086.25	18460
1087.37	18466
1088.48	18326
1089.6	18512
1090.72	18424
1091.84	18612
1092.96	18508
1094.07	18264
1095.19	18582
1096.31	18372
1097.43	18384
1098.54	18646
1099.66	18570
1100.78	18562
1101.89	18604
1103.01	18526
1104.12	18492
1105.24	18530
1106.35	18434
1107.47	18462
1108.59	18478
1109.7	18554
1110.81	18586
1111.93	18458
1113.04	18772
1114.16	18630
1115.27	18720
1116.39	18572
1117.5	18622
1118.61	18612
1119.73	18746
1120.84	18518
1121.95	18604
1123.06	18674
1124.18	18564
1125.29	18592
1126.4	18782
1127.51	18640
1128.63	18656
1129.74	18526
1130.85	18772
1131.96	18768
1133.07	18682
1134.18	18754
1135.29	18752
1136.4	18832
1137.51	18858
1138.62	18828
1139.73	18812
1140.84	18800
1141.95	18790
1143.06	18914
1144.17	18948
1145.28	18798
1146.39	18836
1147.5	18896
1148.61	18960
1149.72	18960
1150.82	19032
1151.93	19042
1153.04	18830
1154.15	19038
1155.26	19084
1156.36	18954
1157.47	18968
1158.58	19138
1159.68	18972
1160.79	18948
1161.9	19122
1163	18932
1164.11	18872
1165.22	18954
1166.32	18974
1167.43	18976
1168.53	19188
1169.64	18934
1170.74	18992
1171.85	18884
1172.95	18820
1174.06	19040
1175.16	18994
1176.26	18774
1177.37	18890
1178.47	18838
1179.58	18820
1180.68	18784
1181.78	18722
1182.88	18848
1183.99	18776
1185.09	18704
1186.19	18854
1187.3	18746
1188.4	18658
1189.5	18500
1190.6	18454
1191.7	18736
1192.8	18644
1193.9	18510
1195.01	18412
1196.11	18369.5
1197.21	18349.8
1198.31	18383.2
1199.41	18291.6
1200.51	18271.1
1201.61	18291.5
1202.71	18325.8
1203.81	18154.9
1204.91	18197.2
1206.01	18301.4
1207.11	18178.5
1208.2	18087.7
1209.3	18116.6
1210.4	18213.8
1211.5	18054.7
1212.6	18016.3
1213.7	18070.7
1214.8	17936.2
1215.89	17954.9
1216.99	17998.7
1218.09	17832
1219.18	17713.7
1220.28	17735.6
1221.38	17739.4
1222.48	17669.6
1223.57	17784.6
1224.67	17575.1
1225.76	17570.1
1226.86	17716.3
1227.96	17481.1
1229.05	17439.8
1230.15	17557.7
1231.24	17586.6
1232.34	17582.8
1233.43	17504.6
1234.53	17364.8
1235.62	17446.4
1236.71	17364.2
1237.81	17446.8
1238.9	17377.9
1240	17329.2
1241.09	17286.8
1242.18	17362.5
1243.28	17268.7
1244.37	17181.6
1245.46	17110.1
1246.56	17134.2
1247.65	17224.9
1248.74	17181.5
1249.83	17158.2
1250.93	17014.8
1252.02	17021.7
1253.11	16977.1
1254.2	17016.7
1255.29	17006.2
1256.38	17017.7
1257.47	16919.2
1258.56	16940.9
1259.65	16911.4
1260.74	16924
1261.84	16907.4
1262.92	16764.4
1264.01	16794.1
1265.1	16707.5
1266.19	16708.1
1267.28	16709.7
1268.37	16735.2
1269.46	16749.1
1270.55	16785.8
1271.64	16715.6
1272.73	16670.7
1273.82	16553
1274.9	16551.4
1275.99	16458.8
1277.08	16462.8
1278.17	16508.6
1279.26	16399.2
1280.34	16454.1
1281.43	16467.7
1282.52	16395.2
1283.6	16381.4
1284.69	16350.3
1285.78	16393
1286.86	16329.6
1287.95	16238
1289.03	16274.9
1290.12	16177.4
1291.21	16157.1
1292.29	16181.4
1293.38	16086.3
1294.46	15996.6
1295.55	15931.8
1296.63	15984.6
1297.71	15911.4
1298.8	15979.1
1299.88	15909.2
1300.97	15813
1302.05	15992.1
1303.13	15746.6
1304.22	15817.4
1305.3	15769.7
1306.38	15753.1
1307.34	15528
1308.43	15682
1309.52	15504
1310.61	15670
1311.7	15526
1312.78	15442
1313.87	15520
1314.96	15248
1316.05	15300
1317.13	15318
1318.22	15428
1319.3	15344
1320.39	15242
1321.48	15096
1322.56	15122
1323.65	14990
1324.73	14964
1325.82	15026
1326.9	15006
1327.99	14822
1329.07	14916
1330.16	14878
1331.24	14846
1332.33	14868
1333.41	14710
1334.5	14602
1335.58	14596
1336.66	14624
1337.75	14692
1338.83	14522
1339.91	14348
1341	14398
1342.08	14358
1343.16	14404
1344.25	14312
1345.33	14358
1346.41	14316
1347.49	14220
1348.57	14188
1349.65	14102
1350.74	13998
1351.82	14108
1352.9	14102
1353.98	14068
1355.06	13922
1356.14	14166
1357.22	14006
1358.3	13982
1359.38	13872
1360.46	13794
1361.54	13818
1362.62	13692
1363.7	13804
1364.78	13682
1365.86	13804
1366.94	13650
1368.02	13686
1369.09	13594
1370.17	13586
1371.25	13562
1372.33	13562
1373.41	13422
1374.48	13470
1375.56	13462
1376.64	13370
1377.72	13350
1378.79	13426
1379.87	13400
1380.95	13282
1382.02	13268
1383.1	13202
1384.17	13258
1385.25	13188
1386.33	13074
1387.4	13132
1388.48	13062
1389.55	13108
1390.63	13068
1391.7	13030
1392.78	13080
1393.85	13068
1394.93	12804
1396	12874
1397.07	12926
1398.15	12872
1399.22	12780
1400.3	12764
1401.37	12814
1402.44	12814
1403.52	12800
1404.59	12648
1405.66	12810
1406.73	12750
1407.81	12594
1408.88	12554
1409.95	12520
1411.02	12652
1412.09	12598
1413.17	12522
1414.24	12500
1415.31	12274
1416.38	12466
1417.45	12378
1418.52	12426
1419.59	12292
1420.66	12284
1421.73	12280
1422.8	12200
1423.87	12190
1424.94	12232
1426.01	12238
1427.08	12138
1428.15	12222
1429.22	12224
1430.29	12046
1431.35	12152
1432.42	11994
1433.49	12026
1434.56	12102
1435.63	12050
1436.7	11978
1437.76	11964
1438.83	11988
1439.9	12118
1440.96	11990
1442.03	11992
1443.1	11912
1444.17	11808
1445.23	11860
1446.3	11800
1447.36	11872
1448.43	11768
1449.49	11764
1450.56	11808
1451.63	11856
1452.69	11702
1453.76	11704
1454.82	11740
1455.89	11562
1456.95	11606
1458.01	11530
1459.08	11650
1460.14	11536
1461.21	11574
1462.27	11530
1463.34	11686
1464.4	11538
1465.46	11520
1466.52	11512
1467.59	11582
1468.65	11522
1469.71	11558
1470.77	11424
1471.84	11394
1472.9	11428
1473.96	11480
1475.02	11430
1476.08	11374
1477.15	11244
1478.21	11422
1479.27	11314
1480.33	11248
1481.39	11278
1482.45	11306
1483.51	11320
1484.57	11364
1485.63	11294
1486.69	11182
1487.75	11292
1488.81	11116
1489.87	11210
1490.93	11224
1491.99	11160
1493.05	11188
1494.1	11128
1495.16	11256
1496.22	11112
1497.28	11062
1498.34	11028
1499.4	11060
1500.45	11024
1501.51	10992
1502.57	11094
1503.63	11002
1504.68	10940
1505.74	10920
1506.8	10818
1507.85	10852
1508.91	10810
1509.97	10928
1511.02	10924
1512.08	10884
1513.13	10830
1514.19	10830
1515.24	10770
1516.3	10684
1517.35	10794
1518.41	10706
1519.46	10678
1520.52	10668
1521.57	10630
1522.63	10752
1523.68	10738
1524.73	10598
1525.79	10578
1526.84	10528
1527.9	10648
1528.95	10440
1530	10450
1531.06	10498
1532.11	10450
1533.16	10502
1534.21	10340
1535.26	10478
1536.32	10408
1537.37	10494
1538.42	10284
1539.47	10430
1540.52	10294
1541.57	10318
1542.63	10404
1543.68	10296
1544.73	10294
1545.78	10306
1546.83	10326
1547.88	10104
1548.93	10338
1549.98	10226
1551.03	10034
1552.08	10268
1553.13	10100
1554.18	10096
1555.23	10146
1556.27	10048
1557.32	10116
1558.37	10130
1559.42	10042
1560.47	10024
1561.52	10192
1562.56	10062
1563.61	10128
1564.66	10000
1565.71	10064
1566.75	9862
1567.8	10022
1568.85	9990
1569.9	10090
1570.94	10048
1571.99	10024
1573.03	9820
1574.08	9854
1575.13	9902
1576.17	9964
1577.22	9862
1578.26	9990
1579.31	9910
1580.35	9906
1581.4	9900
1582.44	9968
1583.49	9790
1584.53	9808
1585.58	9818
1586.62	9984
1587.66	9786
1588.71	9840
1589.75	9860
1590.8	9696
1591.84	9786
1592.88	9862
1593.93	9728
1594.97	9946
1596.01	9762
1597.05	9762
1598.1	9764
1599.14	9746
1600.18	9790
1601.22	9732
1602.26	9742
1603.31	9740
1604.35	9806
1605.39	9730
1606.43	9776
1607.47	9716
1608.51	9728
1609.55	9744
1610.59	9648
1611.63	9732
1612.67	9712
1613.71	9724
1614.75	9674
1615.79	9720
1616.83	9792
1617.87	9626
1618.91	9682
1619.95	9662
1620.99	9576
1622.02	9722
1623.06	9558
1624.1	9722
1625.14	9716
1626.18	9592
1627.21	9582
1628.25	9432
1629.29	9634
1630.33	9608
1631.36	9752
1632.4	9480
1633.44	9360
1634.48	9476
1635.51	9466
1636.55	9418
1637.58	9628
1638.62	9494
1639.66	9492
1640.69	9434
1641.73	9424
1642.76	9608
1643.8	9490
1644.83	9548
1645.87	9424
1646.9	9362
1647.94	9352
1648.97	9350
1650	9254
1651.04	9432
1652.07	9414
1653.11	9416
1654.14	9506
1655.17	9372
1656.21	9480
1657.24	9430
1658.27	9414
1659.31	9212
1660.34	9232
1661.37	9300
1662.4	9158
1663.43	9244
1664.47	9242
1665.5	9306
1666.53	9238
1667.56	9244
1668.59	9198
1669.62	9186
1670.66	9134
1671.69	9180
1672.72	9084
1673.75	9242
1674.78	9084
1675.81	9204
1676.84	9028
1677.87	9074
1678.9	9168
1679.93	8990
1680.96	9040
1681.98	9016
1683.01	9052
1684.04	9032
1685.07	8988
1686.1	8926
1687.13	8962
1688.16	8914
1689.19	9064
1690.21	8980
1691.24	8856
1692.27	8846
1693.3	8872
1694.32	8936
1695.35	8928
1696.38	8890
1697.4	8950
1698.43	8802
1699.46	8812
1700.48	8836
1701.51	8804
1702.54	8712
1703.56	8872
1704.59	8784
1705.61	8772
1706.64	8850
1707.66	8744
1708.69	8798
1709.71	8708
1710.74	8642
1711.76	8814
1712.79	8646
1713.81	8536
1714.83	8786
1715.86	8666
1716.88	8748
1717.91	8736
1718.93	8836
1719.95	8610
1720.98	8652
1722	8652
1723.02	8666
1724.04	8564
1725.07	8576
1726.09	8678
1727.11	8614
1728.13	8740
1729.15	8586
1730.18	8590
1731.2	8594
1732.22	8612
1733.24	8480
1734.26	8436
1735.28	8484
1736.3	8616
1737.32	8546
1738.34	8478
1739.36	8564
1740.38	8566
1741.4	8700
1742.42	8602
1743.44	8466
1744.46	8464
1745.48	8468
1746.5	8514
1747.52	8420
1748.54	8438
1749.56	8394
1750.58	8340
1751.6	8426
1752.61	8428
1753.63	8420
1754.65	8568
1755.67	8414
1756.68	8508
1757.7	8426
1758.72	8506
1759.74	8466
1760.75	8328
1761.77	8386
1762.79	8450
1763.8	8334
1764.82	8416
1765.84	8364
1766.85	8446
1767.87	8416
1768.88	8332
1769.9	8322
1770.91	8348
1771.93	8480
1772.94	8386
1773.96	8390
1774.97	8376
1775.99	8324
1777	8420
1778.02	8302
1779.03	8384
1780.04	8416
1781.06	8230
1782.07	8378
1783.09	8344
1784.1	8372
1785.11	8416
1786.13	8326
1787.14	8208
1788.15	8384
1789.16	8294
1790.18	8114
1791.19	8266
1792.2	8188
1793.21	8312
1794.22	8298
1795.23	8408
1796.25	8210
1797.26	8326
1798.27	8312
1799.28	8174
1800.29	8138
1801.3	8230
1802.31	8240
1803.32	8340
1804.33	8246
1805.34	8152
1806.35	8210
1807.36	8216
1808.37	8088
1809.38	8250
1810.39	8188
1811.4	8128
1812.41	8196
1813.42	8108
1814.43	8134
1815.43	8146
1816.44	8204
1817.45	8144
1818.46	8056
1819.47	8168
1820.47	8152
1821.48	8138
1822.49	8012
1823.49	8124
1824.5	8126
1825.51	8080
1826.52	8068
1827.52	7930
1828.53	8020
1829.54	8030
1830.54	8060
1831.55	7910
1832.55	8040
1833.56	7934
1834.56	7960
1835.57	7938
1836.57	7986
1837.58	7896
1838.58	7930
1839.59	8008
1840.59	7992
1841.6	7840
1842.6	7912
1843.61	7908
1844.61	7984
1845.61	7956
1846.62	7924
1847.62	7870
1848.62	7906
1849.63	7858
1850.63	7792
1851.63	7842
1852.64	7862
1853.64	7860
1854.64	7774
1855.64	7800
1856.64	7758
1857.65	7828
1858.65	7792
1859.65	7820
1860.65	7776
1861.65	7718
1862.65	7776
1863.65	7716
1864.66	7690
1865.66	7740
1866.66	7790
1867.66	7760
1868.66	7678
1869.66	7758
1870.66	7726
1871.66	7788
1872.66	7708
1873.66	7650
1874.66	7714
1875.65	7730
1876.65	7678
1877.65	7798
1878.65	7704
1879.65	7798
1880.65	7612
1881.65	7660
1882.64	7612
1883.64	7718
1884.64	7588
1885.64	7688
1886.63	7712
1887.63	7664
1888.63	7590
1889.63	7682
1890.62	7690
1891.62	7762
1892.62	7546
1893.61	7614
1894.61	7572
1895.6	7598
1896.6	7522
1897.6	7652
1898.59	7642
1899.59	7638
1900.58	7674
1901.58	7510
1902.57	7642
1903.57	7642
1904.56	7644
1905.56	7672
1906.55	7670
1907.54	7662
1908.54	7632
1909.53	7560
1910.53	7522
1911.52	7468
1912.51	7572
1913.51	7548
1914.5	7498
1915.49	7614
1916.49	7524
1917.48	7578
1918.47	7574
1919.46	7592
1920.46	7558
1921.45	7578
1922.44	7542
1923.43	7538
1924.42	7518
1925.41	7456
1926.41	7460
1927.4	7566
1928.39	7528
1929.38	7466
1930.37	7386
1931.36	7584
1932.35	7460
1933.34	7514
1934.33	7528
1935.32	7370
1936.31	7536
1937.3	7484
1938.29	7336
1939.28	7604
1940.27	7412
1941.26	7518
1942.24	7428
1943.23	7400
1944.22	7432
1945.21	7356
1946.2	7426
1947.19	7414
1948.17	7456
1949.16	7380
1950.15	7464
1951.14	7548
1952.13	7374
1953.11	7370
1954.1	7472
1955.09	7384
1956.07	7516
1957.06	7418
1958.05	7432
1959.03	7226
1960.02	7352
1961	7360
1961.99	7362
1962.98	7366
1963.96	7410
1964.95	7382
1965.93	7182
1966.92	7308
1967.9	7218
1968.89	7296
1969.87	7328
1970.85	7220
1971.84	7224
1972.82	7172
1973.81	7260
1974.79	7308
1975.78	7254
1976.76	7178
1977.74	7272
1978.73	7216
1979.71	7246
1980.69	7126
1981.67	7244
1982.66	7194
1983.64	7122
1984.62	7194
1985.6	7304
1986.59	7274
1987.57	7294
1988.55	7196
1989.53	7208
1990.51	7252
1991.49	7146
1992.47	7214
1993.45	7080
1994.44	7256
1995.42	7142
1996.4	7202
1997.38	7174
1998.36	7168
1999.34	7142
2000.32	7050
2001.3	7210
2002.28	7020
2003.26	7056
2004.24	7080
2005.22	7054
2006.19	7086
2007.17	7074
2008.15	7154
2009.13	7168
2010.11	7190
2011.09	7160
2012.06	7066
2013.04	7114
2014.02	7050
2015	7110
2015.98	7134
2016.95	7056
2017.93	7116
2018.91	7046
2019.88	7084
2020.86	7064
2021.84	7046
2022.81	7006
2023.79	7100
2024.77	6976
2025.74	7012
2026.72	7072
2027.69	6964
2028.67	6954
2029.65	7112
2030.62	7070
2031.6	7040
2032.57	7082
2033.55	7016
2034.52	7012
2035.5	6924
2036.47	6904
2037.44	7004
2038.42	7094
2039.39	7022
2040.36	6970
2041.34	6906
2042.31	6998
2043.29	6932
2044.26	7004
2045.23	6852
2046.2	7024
2047.18	6960
2048.15	7032
2049.12	6958
2050.09	6926
2051.07	6884
2052.04	6926
2053.01	6928
2053.98	6966
2054.95	6848
2055.93	6918
2056.9	6914
2057.87	6834
2058.84	6914
2059.81	6918
2060.78	6840
2061.75	6716
2062.72	6918
2063.69	6970
2064.66	6778
2065.63	6764
2066.6	6808
2067.57	6828
2068.54	6846
2069.51	6838
2070.48	6790
2071.45	6884
2072.42	6902
2073.38	6726
2074.35	6800
2075.32	6842
2076.29	6862
2077.26	6826
2078.23	6710
2079.19	6732
2080.16	6808
2081.13	6732
2082.1	6682
2083.06	6820
2084.03	6764
2085	6710
2085.96	6682
2086.93	6678
2087.9	6716
2088.86	6762
2089.83	6736
2090.8	6728
2091.76	6756
2092.73	6716
2093.69	6598
2094.66	6700
2095.62	6772
2096.59	6732
2097.55	6670
2098.52	6694
2099.48	6714
2100.45	6690
2101.41	6662
2102.38	6752
2103.34	6658
2104.31	6728
2105.27	6646
2106.23	6668
2107.2	6698
2108.16	6658
2109.12	6706
2110.09	6668
2111.05	6714
2112.01	6652
2112.98	6626
2113.94	6638
2114.9	6554
2115.86	6684
2116.82	6616
2117.79	6668
2118.75	6674
2119.71	6598
2120.67	6646
2121.63	6532
2122.59	6686
2123.55	6604
2124.52	6628
2125.48	6524
2126.44	6604
2127.4	6524
2128.36	6576
2129.32	6508
2130.28	6586
2131.24	6664
2132.2	6534
2133.16	6508
2134.12	6636
2135.08	6624
2136.04	6548
2136.99	6528
2137.95	6494
2138.91	6532
2139.87	6536
2140.83	6464
2141.79	6502
2142.75	6482
2143.7	6554
2144.66	6368
2145.62	6435.75
2146.58	6506.58
2147.53	6500.67
2148.49	6420.35
2149.45	6343.39
2150.41	6471.09
2151.36	6422.26
2152.32	6366.65
2153.28	6416.5
2154.23	6508.41
2155.19	6373.41
2156.14	6369.09
2157.1	6386.44
2158.06	6398.42
2159.01	6340.01
2159.97	6351.32
2160.92	6375.66
2161.88	6345.78
2162.83	6323.33
2163.79	6302.29
2164.74	6381.51
2165.7	6291.17
2166.65	6368.28
2167.61	6281.65
2168.56	6280.13
2169.51	6332.71
2170.47	6249.96
2171.42	6329.88
2172.38	6358.03
2173.33	6305.41
2174.28	6248.75
2175.24	6302.19
2176.19	6265.4
2177.14	6211.01
2178.09	6264.68
2179.05	6261.47
2180	6347.04
2180.95	6258.01
2181.9	6287.67
2182.86	6224.8
2183.81	6266.57
2184.76	6200.04
2185.71	6232.34
2186.66	6227.36
2187.61	6162.37
2188.57	6258.48
2189.52	6219.73
2190.47	6185.88
2191.42	6262.86
2192.37	6229.78
2193.32	6211.83
2194.27	6183.97
2195.22	6185.2
2196.17	6212.85
2197.12	6202.32
2198.07	6157.32
2199.02	6195.95
2199.97	6186.35
2200.92	6212.36
2201.87	6172.87
2202.82	6109.49
2203.76	6130.77
2204.71	6183.75
2205.66	6136.13
2206.61	6154.2
2207.56	6185.59
2208.51	6168.35
2209.45	6132.08
2210.4	6167.26
2211.35	6136.34
2212.3	6125.07
2213.25	6164.48
2214.19	6152.19
2215.14	6145.48
2216.09	6170.82
2217.03	6131.61
2217.98	6071.12
2218.93	6122.19
2219.87	6098.22
2220.82	6108.13
2221.77	6139.01
2222.71	6130.02
2223.66	6137.65
2224.6	6222.79
2225.55	6158.18
2226.49	6129.9
2227.44	6109.41
2228.38	6080.06
2229.33	6081.07
2230.27	6168.42
2231.22	6146.67
2232.16	6104.15
2233.11	6160.41
2234.05	6141.99
2235	6115.07
2235.94	6124.97
2236.88	6125.82
2237.83	6156.68
2238.77	6132.15
2239.72	6135.05
2240.66	6144.79
2241.6	6172.78
2242.07	6246
2243.02	6194
2243.97	6104
2244.92	6250
2245.87	6130
2246.81	6088
2247.76	6198
2248.71	6040
2249.65	6110
2250.6	6170
2251.55	6092
2252.49	6096
2253.44	6234
2254.39	6160
2255.33	6096
2256.28	6066
2257.22	6156
2258.17	6052
2259.12	6170
2260.06	6100
2261.01	6088
2261.95	6166
2262.9	6056
2263.84	5996
2264.78	6096
2265.73	6054
2266.67	6054
2267.62	6096
2268.56	6014
2269.51	6088
2270.45	6130
2271.39	6028
2272.34	6116
2273.28	6000
2274.22	6124
2275.17	6022
2276.11	6076
2277.05	5974
2277.99	5954
2278.94	6042
2279.88	5988
2280.82	6052
2281.76	6002
2282.71	5970
2283.65	6002
2284.59	6034
2285.53	6000
2286.47	5952
2287.41	5978
2288.35	6036
2289.3	5946
2290.24	5882
2291.18	6032
2292.12	6030
2293.06	5914
2294	5972
2294.94	5928
2295.88	5910
2296.82	5958
2297.76	5968
2298.7	5946
2299.64	5888
2300.58	5906
2301.52	5804
2302.46	5926
2303.39	5852
2304.33	5908
2305.27	5976
2306.21	5876
2307.15	5938
2308.09	5840
2309.02	5878
2309.96	5856
2310.9	5886
2311.84	5836
2312.77	5836
2313.71	5900
2314.65	5852
2315.59	5932
2316.52	5784
2317.46	5758
2318.4	5864
2319.33	5940
2320.27	5882
2321.21	5908
2322.14	5886
2323.08	5796
2324.01	5860
2324.95	5780
2325.89	5754
2326.82	5728
2327.76	5780
2328.69	5856
2329.63	5846
2330.56	5814
2331.5	5826
2332.43	5722
2333.36	5742
2334.3	5800
2335.23	5752
2336.17	5792
2337.1	5780
2338.03	5802
2338.97	5748
2339.9	5810
2340.83	5692
2341.77	5734
2342.7	5768
2343.63	5804
2344.57	5714
2345.5	5822
2346.43	5804
2347.36	5740
2348.3	5676
2349.23	5716
2350.16	5720
2351.09	5790
2352.02	5738
2352.95	5758
2353.89	5708
2354.82	5712
2355.75	5800
2356.68	5734
2357.61	5672
2358.54	5780
2359.47	5788
2360.4	5618
2361.33	5776
2362.26	5822
2363.19	5666
2364.12	5658
2365.05	5686
2365.98	5676
2366.91	5698
2367.84	5786
2368.77	5648
2369.7	5632
2370.63	5688
2371.56	5546
2372.48	5636
2373.41	5622
2374.34	5698
2375.27	5656
2376.2	5712
2377.12	5724
2378.05	5662
2378.98	5636
2379.91	5644
2380.84	5680
2381.76	5630
2382.69	5564
2383.62	5600
2384.54	5524
2385.47	5548
2386.4	5570
2387.32	5588
2388.25	5652
2389.18	5568
2390.1	5672
2391.03	5552
2391.95	5512
2392.88	5610
2393.8	5584
2394.73	5554
2395.65	5480
2396.58	5464
2397.5	5494
2398.43	5598
2399.35	5562
2400.28	5532
2401.2	5472
2402.13	5510
2403.05	5472
2403.97	5514
2404.9	5620
2405.82	5600
2406.75	5454
2407.67	5504
2408.59	5522
2409.51	5472
2410.44	5560
2411.36	5464
2412.28	5488
2413.21	5510
2414.13	5492
2415.05	5474
2415.97	5438
2416.9	5434
2417.82	5460
2418.74	5472
2419.66	5450
2420.58	5422
2421.5	5436
2422.42	5460
2423.35	5396
2424.27	5388
2425.19	5468
2426.11	5420
2427.03	5298
2427.95	5396
2428.87	5348
2429.79	5402
2430.71	5354
2431.63	5478
2432.55	5402
2433.47	5308
2434.39	5402
2435.31	5318
2436.23	5336
2437.14	5430
2438.06	5362
2438.98	5370
2439.9	5344
2440.82	5308
2441.74	5386
2442.66	5404
2443.57	5358
2444.49	5294
2445.41	5320
2446.33	5322
2447.24	5250
2448.16	5300
2449.08	5346
2450	5350
2450.91	5262
2451.83	5300
2452.75	5274
2453.66	5262
2454.58	5312
2455.5	5216
2456.41	5340
2457.33	5300
2458.24	5236
2459.16	5304
2460.08	5202
2460.99	5192
2461.91	5264
2462.82	5274
2463.74	5272
2464.65	5220
2465.57	5262
2466.48	5284
2467.4	5142
2468.31	5176
2469.22	5202
2470.14	5276
2471.05	5236
2471.97	5234
2472.88	5268
2473.79	5150
2474.71	5162
2475.62	5206
2476.53	5176
2477.45	5166
2478.36	5176
2479.27	5246
2480.19	5084
2481.1	5096
2482.01	5122
2482.92	5188
2483.83	5168
2484.75	5188
2485.66	5144
2486.57	5018
2487.48	5122
2488.39	5012
2489.3	5172
2490.22	5052
2491.13	5026
2492.04	5078
2492.95	5000
2493.86	5072
2494.77	5010
2495.68	5090
2496.59	5114
2497.5	5002
2498.41	5116
2499.32	5124
2500.23	5098
2501.14	5070
2502.05	5030
2502.96	4950
2503.87	5010
2504.78	5030
2505.68	5040
2506.59	4994
2507.5	5036
2508.41	4910
2509.32	5046
2510.23	4940
2511.14	5014
2512.04	4922
2512.95	5000
2513.86	4934
2514.77	4896
2515.67	5052
2516.58	4876
2517.49	4956
2518.39	4914
2519.3	4878
2520.21	4818
2521.11	4922
2522.02	4940
2522.93	4874
2523.83	4886
2524.74	4910
2525.65	4876
2526.55	4868
2527.46	4826
2528.36	4896
2529.27	4840
2530.17	4886
2531.08	4860
2531.98	4784
2532.89	4904
2533.79	4884
2534.7	4940
2535.6	4908
2536.51	4852
2537.41	4792
2538.32	4770
2539.22	4770
2540.12	4774
2541.03	4740
2541.93	4722
2542.83	4850
2543.74	4740
2544.64	4774
2545.54	4712
2546.45	4730
2547.35	4746
2548.25	4732
2549.15	4714
2550.06	4750
2550.96	4748
2551.86	4696
2552.76	4690
2553.66	4672
2554.56	4740
2555.47	4682
2556.37	4696
2557.27	4742
2558.17	4768
2559.07	4604
2559.97	4734
2560.87	4702
2561.77	4692
2562.67	4668
2563.58	4612
2564.47	4666
2565.38	4738
2566.27	4630
2567.18	4632
2568.07	4614
2568.97	4596
2569.87	4624
2570.77	4666
2571.67	4586
2572.57	4632
2573.47	4602
2574.37	4622
2575.27	4640
2576.17	4656
2577.06	4604
2577.96	4618
2578.86	4512
2579.76	4588
2580.66	4526
2581.55	4562
2582.45	4580
2583.35	4560
2584.25	4500
2585.14	4484
2586.04	4520
2586.94	4528
2587.83	4538
2588.73	4544
2589.63	4532
2590.52	4456
2591.42	4464
2592.32	4480
2593.21	4486
2594.11	4506
2595	4442
2595.9	4442
2596.8	4448
2597.69	4482
2598.59	4478
2599.48	4464
2600.38	4478
2601.27	4424
2602.17	4344
2603.06	4514
2603.95	4484
2604.85	4346
2605.74	4438
2606.64	4402
2607.53	4436
2608.42	4432
2609.32	4404
2610.21	4414
2611.1	4332
2612	4412
2612.89	4328
2613.78	4378
2614.68	4396
2615.57	4424
2616.46	4292
2617.36	4398
2618.25	4346
2619.14	4348
2620.03	4324
2620.92	4378
2621.82	4342
2622.71	4368
2623.6	4278
2624.49	4242
2625.38	4282
2626.27	4226
2627.16	4300
2628.05	4264
2628.95	4248
2629.84	4262
2630.73	4354
2631.62	4266
2632.51	4254
2633.4	4222
2634.29	4264
2635.18	4288
2636.07	4188
2636.96	4200
2637.85	4174
2638.74	4142
2639.62	4186
2640.51	4124
2641.4	4194
2642.29	4166
2643.18	4176
2644.07	4072
2644.96	4266
2645.85	4136
2646.73	4126
2647.62	4156
2648.51	4180
2649.4	4158
2650.28	4036
2651.17	4032
2652.06	4250
2652.95	4152
2653.83	4170
2654.72	4146
2655.61	4138
2656.5	4194
2657.38	4112
2658.27	4140
2659.15	4126
2660.04	4082
2660.93	4062
2661.81	4122
2662.7	4060
2663.58	4016
2664.47	4016
2665.35	4066
2666.24	4030
2667.13	4042
2668.01	4092
2668.9	4082
2669.78	4042
2670.66	4016
2671.55	4064
2672.43	4044
2673.32	4036
2674.2	4052
2675.09	3982
2675.97	4002
2676.85	4038
2677.74	4018
2678.62	4010
2679.5	4014
2680.39	4060
2681.27	4022
2682.15	3970
2683.04	3976
2683.92	3966
2684.8	3976
2685.68	3992
2686.57	3954
2687.45	3948
2688.33	4000
2689.21	3964
2690.09	4026
2690.98	3950
2691.86	3868
2692.74	3932
2693.62	3980
2694.5	3932
2695.38	4000
2696.26	3926
2697.15	3880
2698.03	3902
2698.91	3878
2699.79	3864
2700.67	3880
2701.55	3854
2702.43	3894
2703.31	3856
2704.19	3840
2705.07	3826
2705.95	3896
2706.83	3876
2707.7	3824
2708.58	3792
2709.46	3792
2710.34	3854
2711.22	3810
2712.1	3756
2712.98	3738
2713.86	3670
2714.73	3708
2715.61	3784
2716.49	3810
2717.37	3808
2718.25	3800
2719.12	3708
2720	3782
2720.88	3802
2721.76	3754
2722.63	3838
2723.51	3720
2724.39	3690
2725.26	3746
2726.14	3768
2727.02	3742
2727.89	3680
2728.77	3730
2729.64	3700
2730.52	3622
2731.4	3704
2732.27	3684
2733.15	3596
2734.02	3620
2734.9	3696
2735.77	3718
2736.65	3720
2737.52	3626
2738.4	3620
2739.27	3570
2740.15	3640
2741.02	3576
2741.9	3664
2742.77	3640
2743.64	3680
2744.52	3622
2745.39	3592
2746.27	3618
2747.14	3586
2748.01	3656
2748.89	3526
2749.76	3568
2750.63	3618
2751.51	3572
2752.38	3602
2753.25	3558
2754.12	3544
2755	3522
2755.87	3544
2756.74	3602
2757.61	3608
2758.48	3568
2759.35	3534
2760.23	3542
2761.1	3560
2761.97	3524
2762.84	3526
2763.71	3564
2764.58	3524
2765.45	3494
2766.32	3486
2767.19	3526
2768.07	3522
2768.94	3462
2769.81	3442
2770.68	3494
2771.55	3410
2772.42	3418
2773.29	3396
2774.16	3520
2775.02	3438
2775.89	3422
2776.76	3452
2777.63	3424
2778.5	3476
2779.37	3382
2780.24	3392
2781.11	3448
2781.98	3444
2782.84	3432
2783.71	3402
2784.58	3358
2785.45	3350
2786.32	3380
2787.18	3366
2788.05	3442
2788.92	3432
2789.79	3386
2790.65	3412
2791.52	3392
2792.39	3384
2793.25	3306
2794.12	3414
2794.99	3316
2795.85	3338
2796.72	3318
2797.59	3344
2798.45	3370
2799.32	3358
2800.18	3272
2801.05	3328
2801.92	3244
2802.78	3232
2803.65	3270
2804.51	3308
2805.38	3336
2806.24	3270
2807.11	3316
2807.97	3310
2808.84	3286
2809.7	3274
2810.57	3302
2811.43	3256
2812.29	3268
2813.16	3288
2814.02	3246
2814.88	3224
2815.75	3290
2816.61	3160
2817.47	3198
2818.34	3280
2819.2	3224
2820.06	3242
2820.93	3150
2821.79	3204
2822.65	3156
2823.51	3224
2824.38	3178
2825.24	3170
2826.1	3186
2826.96	3234
2827.82	3140
2828.69	3134
2829.55	3168
2830.41	3114
2831.27	3124
2832.13	3210
2832.99	3168
2833.85	3186
2834.71	3152
2835.57	3126
2836.44	3172
2837.3	3144
2838.16	3108
2839.02	3092
2839.88	3142
2840.74	3090
2841.6	3056
2842.46	3160
2843.32	3086
2844.18	3124
2845.03	3088
2845.89	3084
2846.75	3056
2847.61	3068
2848.47	3098
2849.33	3054
2850.19	3028
2851.05	3024
2851.9	3072
2852.76	2994
2853.62	3010
2854.48	3038
2855.34	3010
2856.19	3026
2857.05	3022
2857.91	3056
2858.77	3008
2859.62	3012
2860.48	3008
2861.34	2986
2862.19	2988
2863.05	2940
2863.91	3048
2864.76	2952
2865.62	3014
2866.48	2990
2867.33	2962
2868.19	3022
2869.04	2936
2869.9	2952
2870.76	2920
2871.61	2988
2872.47	2962
2873.32	2960
2874.18	2888
2875.03	2972
2875.89	2908
2876.74	2916
2877.6	2896
2878.45	2874
2879.31	2878
2880.16	2908
2881.01	2880
2881.87	2878
2882.72	2838
2883.58	2838
2884.43	2948
2885.28	2904
2886.14	2866
2886.99	2880
2887.84	2868
2888.7	2890
2889.55	2860
2890.4	2856
2891.25	2886
2892.11	2878
2892.96	2834
2893.81	2802
2894.66	2838
2895.52	2856
2896.37	2818
2897.22	2804
2898.07	2776
2898.92	2826
2899.77	2786
2900.62	2818
2901.48	2824
2902.33	2740
2903.18	2838
2904.03	2790
2904.88	2838
2905.73	2790
2906.58	2830
2907.43	2740
2908.28	2764
2909.13	2786
2909.98	2848
2910.83	2716
2911.68	2728
2912.53	2824
2913.38	2748
2914.23	2754
2915.08	2754
2915.93	2746
2916.78	2704
2917.63	2764
2918.47	2726
2919.32	2716
2920.17	2820
2921.02	2790
2921.87	2738
2922.72	2786
2923.56	2748
2924.41	2726
2925.26	2722
2926.11	2704
2926.95	2730
2927.8	2740
2928.65	2698
2929.5	2714
2930.34	2654
2931.19	2682
2932.04	2758
2932.88	2708
2933.73	2796
2934.58	2610
2935.42	2712
2936.27	2670
2937.11	2646
2937.96	2686
2938.81	2618
2939.65	2700
2940.5	2652
2941.34	2654
2942.19	2682
2943.03	2652
2943.88	2678
2944.72	2684
2945.57	2650
2946.41	2686
2947.26	2702
2948.1	2724
2948.95	2620
2949.79	2664
2950.64	2622
2951.48	2618
2952.32	2586
2953.17	2670
2954.01	2640
2954.85	2600
2955.7	2652
2956.54	2586
2957.38	2698
2958.23	2610
2959.07	2624
2959.91	2600
2960.75	2616
2961.6	2560
2962.44	2636
2963.28	2636
2964.12	2562
2964.97	2550
2965.81	2574
2966.65	2570
2967.49	2500
2968.33	2526
2969.17	2562
2970.02	2596
2970.86	2600
2971.7	2580
2972.54	2556
2973.38	2586
2974.22	2494
2975.06	2514
2975.9	2512
2976.74	2458
2977.58	2572
2978.42	2560
2979.26	2508
2980.1	2496
2980.94	2542
2981.78	2472
2982.62	2480
2983.46	2506
2984.3	2468
2985.14	2474
2985.98	2488
2986.82	2488
2987.66	2496
2988.49	2480
2989.33	2476
2990.17	2432
2991.01	2482
2991.85	2448
2992.69	2516
2993.52	2406
2994.36	2474
2995.2	2428
2996.04	2458
2996.87	2414
2997.71	2462
2998.55	2410
2999.39	2374
