#Acq. time (s)=	10
#Accumulations=	1
#Range (cm-¹)=	100...3000
#Windows=	3
#Autofocus=	Off
#AutoExposure=	Off
#Spike filter=	Off
#Delay time (s)=	0
#Binning=	1
#Readout mode=	Signal
#DeNoise=	Off
#ICS correction=	Off
#Dark correction=	Off
#Inst. Process=	Off
#Instrument=	LabRAM HR Evol
#Detector=	Syncerity OE
#Objective=	x100_VIS
#Grating=	600 (500nm)
#ND Filter=	3.2%
#Laser=	633nm_Edge
#Hole=	100.021
#Range=	Visible
#Project=	Omar
#Sample=	26-06-23
#Site=	2
#Title=	Organic
#Remark=	
#Date=	26.06.2023 16:34
#Acquired=	26.06.2023 16:34:20
101.018	3522
102.302	3478
103.586	3474
104.869	3492
106.152	3492
107.435	3566
108.717	3568
109.999	3540
111.281	3580
112.563	3586
113.845	3582
115.126	3504
116.407	3472
117.688	3564
118.969	3584
120.249	3584
121.53	3624
122.81	3592
124.09	3646
125.369	3616
126.649	3594
127.928	3678
129.207	3622
130.486	3650
131.765	3642
133.043	3698
134.321	3652
135.599	3640
136.877	3636
138.155	3716
139.432	3678
140.708	3668
141.985	3728
143.261	3714
144.538	3678
145.814	3820
147.09	3792
148.366	3730
149.641	3780
150.916	3688
152.191	3764
153.466	3720
154.741	3684
156.016	3786
157.289	3774
158.563	3742
159.837	3742
161.111	3820
162.385	3820
163.657	3748
164.93	3840
166.203	3806
167.476	3838
168.747	3792
170.019	3788
171.291	3834
172.562	3734
173.834	3888
175.105	3764
176.377	3832
177.646	3862
178.917	3798
180.188	3822
181.457	3856
182.727	3878
183.996	3862
185.266	3868
186.536	3822
187.804	3828
189.073	3776
190.342	3888
191.609	3894
192.878	3908
194.145	3926
195.413	3894
196.681	3952
197.948	3986
199.215	3906
200.481	3970
201.749	3870
203.014	3974
204.281	4000
205.546	4048
206.813	4066
208.077	3978
209.343	4018
210.608	4096
211.873	3976
213.137	4034
214.402	4070
215.666	3990
216.93	4036
218.194	4148
219.458	4020
220.721	4020
221.983	4064
223.247	4142
224.509	4100
225.772	4168
227.034	4074
228.295	4134
229.558	4240
230.819	4126
232.081	4166
233.342	4174
234.602	4152
235.864	4192
237.124	4222
238.384	4236
239.645	4244
240.904	4222
242.164	4238
243.423	4218
244.683	4226
245.941	4166
247.2	4244
248.46	4246
249.717	4322
250.975	4232
252.233	4254
253.492	4290
254.749	4322
256.006	4278
257.263	4268
258.519	4204
259.777	4300
261.033	4204
262.289	4314
263.545	4312
264.8	4248
266.057	4290
267.312	4220
268.567	4368
269.822	4312
271.076	4354
272.331	4392
273.585	4364
274.839	4332
276.094	4294
277.347	4408
278.601	4360
279.854	4348
281.107	4312
282.359	4386
283.612	4336
284.864	4408
286.116	4374
287.368	4410
288.62	4426
289.871	4380
291.123	4486
292.374	4442
293.625	4488
294.875	4432
296.126	4474
297.376	4500
298.626	4520
299.876	4510
301.126	4558
302.375	4588
303.625	4562
304.874	4558
306.122	4660
307.371	4532
308.62	4582
309.866	4584
311.114	4600
312.362	4542
313.61	4650
314.857	4644
316.105	4570
317.352	4612
318.599	4614
319.844	4638
321.09	4634
322.337	4678
323.583	4650
324.828	4606
326.073	4608
327.318	4664
328.563	4722
329.808	4654
331.053	4664
332.296	4704
333.541	4688
334.785	4654
336.029	4720
337.272	4738
338.515	4684
339.759	4728
341.001	4750
342.244	4664
343.486	4734
344.728	4740
345.97	4690
347.212	4748
348.453	4764
349.695	4716
350.936	4820
352.176	4778
353.418	4812
354.659	4756
355.898	4828
357.139	4878
358.378	4798
359.618	4836
360.858	4882
362.097	4808
363.336	4908
364.574	4926
365.813	4900
367.051	4916
368.29	4824
369.527	4914
370.766	4930
372.002	4866
373.241	4804
374.477	4896
375.715	4946
376.951	4806
378.188	4856
379.424	4958
380.66	4826
381.896	4872
383.132	4900
384.367	4922
385.603	4902
386.838	4876
388.072	4968
389.307	4934
390.541	4952
391.776	4986
393.01	4930
394.243	4912
395.477	4970
396.71	5024
397.943	4906
399.177	4966
400.409	4956
401.641	4996
402.875	4968
404.106	5030
405.338	5128
406.57	5030
407.802	5090
409.032	5080
410.263	5130
411.495	5086
412.725	5124
413.955	5188
415.185	5146
416.417	5202
417.646	5164
418.875	5302
420.104	5308
421.335	5200
422.564	5232
423.792	5278
425.02	5348
426.249	5354
427.477	5226
428.706	5328
429.933	5290
431.161	5358
432.388	5440
433.615	5346
434.841	5322
436.068	5400
437.294	5320
438.522	5384
439.748	5456
440.974	5342
442.199	5470
443.425	5414
444.65	5412
445.875	5396
447.1	5398
448.324	5410
449.549	5440
450.773	5426
451.997	5436
453.221	5466
454.445	5454
455.668	5488
456.891	5490
458.114	5418
459.337	5410
460.56	5510
461.782	5448
463.005	5534
464.227	5472
465.447	5466
466.669	5496
467.89	5532
469.112	5488
470.333	5488
471.554	5542
472.774	5514
473.995	5566
475.214	5462
476.434	5494
477.654	5570
478.874	5546
480.093	5630
481.312	5612
482.53	5526
483.749	5616
484.968	5522
486.186	5610
487.405	5584
488.622	5612
489.84	5692
491.057	5734
492.275	5648
493.491	5620
494.708	5626
495.925	5788
497.141	5716
498.357	5706
499.574	5726
500.789	5696
502.005	5772
503.221	5804
504.435	5804
505.65	5736
506.866	5800
508.079	5756
509.294	5918
510.509	5840
511.722	5808
512.936	5852
514.149	5848
515.363	5814
516.577	5840
517.789	5804
519.002	5816
520.214	5918
521.427	5792
522.638	5820
523.851	5840
525.062	5738
526.274	5768
527.485	5886
528.697	5894
529.907	5854
531.118	5898
532.328	5928
533.539	5754
534.748	5830
535.959	5890
537.168	5864
538.379	5880
539.587	5812
540.796	5868
542.005	5842
543.214	5870
544.423	5952
545.631	5912
546.838	5976
548.047	5954
549.254	6036
550.461	5930
551.669	5966
552.876	6004
554.082	6030
555.29	5988
556.496	5956
557.701	5932
558.909	6050
560.114	5944
561.319	5908
562.524	5966
563.731	6062
564.935	6042
566.14	6080
567.344	6052
568.549	6070
569.753	6094
570.957	6044
572.161	6142
573.364	6228
574.568	6152
575.771	6074
576.974	6194
578.177	6212
579.379	6158
580.581	6158
581.785	6162
582.987	6092
584.188	6148
585.39	6270
586.591	6378
587.792	6274
588.993	6350
590.193	6234
591.394	6284
592.594	6340
593.796	6360
594.996	6378
596.195	6344
597.395	6336
598.594	6290
599.793	6314
600.992	6410
602.191	6474
603.39	6426
604.588	6420
605.786	6426
606.984	6466
608.181	6462
609.378	6510
610.576	6512
611.773	6518
612.97	6500
614.167	6574
615.364	6560
616.56	6430
617.757	6624
618.953	6660
620.149	6738
621.343	6676
622.539	6642
623.734	6658
624.929	6822
626.124	6632
627.319	6914
628.512	6732
629.707	6644
630.901	6780
632.095	6820
633.289	6820
634.481	6884
635.675	6834
636.868	6790
638.061	6876
639.253	6922
640.446	6888
641.638	6884
642.831	6940
644.021	6930
645.213	6996
646.405	6996
647.595	7082
648.787	7056
649.978	7116
651.168	7140
652.359	7126
653.549	7126
654.738	7070
655.929	7124
657.117	7144
658.307	7130
659.497	7054
660.685	7076
661.875	7200
663.063	7248
664.252	7274
665.439	7288
666.628	7208
667.816	7186
669.003	7174
670.191	7314
671.378	7264
672.565	7156
673.751	7258
674.939	7256
676.124	7286
677.311	7328
678.497	7230
679.682	7350
680.868	7452
682.053	7262
683.239	7420
684.424	7360
685.609	7400
686.793	7386
687.977	7448
689.162	7488
690.346	7466
691.529	7496
692.714	7476
693.897	7592
695.081	7530
696.264	7406
697.446	7536
698.63	7578
699.812	7544
700.993	7674
702.175	7600
703.358	7632
704.539	7592
705.72	7758
706.901	7654
708.083	7670
709.264	7680
710.444	7814
711.625	7746
712.806	7696
713.986	7734
715.165	7878
716.345	7888
717.524	7858
718.705	7776
719.884	7794
721.062	7884
722.241	8004
723.419	7964
724.597	7950
725.775	8024
726.954	8012
728.132	7986
729.31	7904
730.487	8094
731.664	8140
732.841	8118
734.017	8210
735.194	8126
736.37	8186
737.546	8212
738.722	8110
739.898	8206
741.074	8216
742.249	8242
743.424	8090
744.599	8366
745.774	8236
746.949	8370
748.123	8296
749.298	8404
750.472	8258
751.646	8304
752.819	8412
753.993	8496
755.166	8354
756.34	8352
757.511	8520
758.684	8450
759.857	8466
761.029	8512
762.202	8576
763.374	8454
764.546	8490
765.716	8396
766.888	8646
768.059	8616
769.23	8626
770.401	8618
771.571	8690
772.741	8770
773.912	8796
775.082	8734
776.251	8814
777.421	8820
778.59	8742
779.76	8678
780.928	8860
782.097	8866
783.266	8958
784.434	8958
785.602	8934
786.771	8836
787.938	8920
789.106	8964
790.274	8984
791.44	9052
792.608	8908
793.775	9036
794.941	9062
796.108	9082
797.273	9180
798.44	9182
799.606	9262
800.771	9166
801.937	9184
803.102	9218
804.268	9272
805.432	9202
806.597	9258
807.761	9408
808.926	9304
810.09	9398
811.254	9456
812.417	9472
813.582	9522
814.744	9500
815.908	9538
817.071	9696
818.234	9650
819.396	9628
820.558	9602
821.721	9692
822.883	9762
824.045	9762
825.206	9836
826.367	9786
827.529	9898
828.69	10000
829.85	9928
831.012	10084
832.172	9932
833.332	10056
834.493	9944
835.653	10014
836.812	10082
837.972	10090
839.131	10106
840.29	10256
841.449	10196
842.609	10250
843.767	10308
844.925	10202
846.083	10304
847.242	10392
848.399	10366
849.557	10378
850.714	10498
851.871	10482
853.029	10392
854.186	10492
855.342	10594
856.498	10616
857.654	10686
858.81	10682
859.966	10568
861.122	10702
862.278	10688
863.434	10858
864.589	10596
865.744	10840
866.898	10912
868.053	10894
869.207	10862
870.361	10884
871.515	11004
872.669	10966
873.822	10952
874.976	10930
876.129	10996
877.282	10954
878.435	11172
879.588	11128
880.74	11146
881.893	11024
883.045	11288
884.197	11020
885.349	11258
886.5	11212
887.652	11194
888.802	11254
889.953	11296
891.104	11294
892.254	11388
893.405	11314
894.555	11444
895.706	11424
896.854	11372
898.004	11414
899.154	11486
900.303	11508
901.453	11444
902.6	11536
903.749	11590
904.898	11562
906.047	11540
907.194	11720
908.342	11520
909.49	11564
910.638	11688
911.785	11664
912.932	11620
914.08	11670
915.225	11700
916.372	11748
917.519	11762
918.666	11806
919.811	11958
920.957	12016
922.102	12062
923.248	11928
924.394	11950
925.538	11926
926.684	12082
927.828	11952
928.973	12190
930.118	12094
931.261	12258
932.406	12188
933.549	12258
934.693	12226
935.836	12438
936.979	12404
938.122	12490
939.265	12496
940.407	12394
941.55	12608
942.692	12642
943.835	12610
944.976	12694
946.118	12734
947.259	12670
948.401	12666
949.542	12852
950.682	12826
951.824	12794
952.964	12864
954.105	12860
955.245	12740
956.385	13076
957.525	12956
958.664	13074
959.803	13112
960.944	13096
962.082	13122
963.221	13186
964.36	13148
965.498	13238
966.636	13304
967.774	13204
968.913	13392
970.051	13432
971.188	13381
972.325	13330
973.463	13502
974.6	13542
975.736	13404
976.873	13520
978.009	13666
979.146	13546
980.282	13466
981.418	13656
982.554	13720
983.689	13662
984.824	13600
985.959	13722
987.095	13796
988.23	13810
989.364	13730
990.499	13844
991.633	13844
992.767	13972
993.9	13994
995.034	13670
996.167	13964
997.301	13960
998.434	14018
999.567	14004
1000.7	14138
1001.83	14096
1002.96	14240
1004.1	14058
1005.23	14104
1006.36	14174
1007.49	14142
1008.62	14206
1009.76	14238
1010.89	14294
1012.02	14412
1013.15	14340
1014.28	14342
1015.41	14258
1016.54	14492
1017.67	14464
1018.8	14350
1019.93	14530
1021.06	14638
1022.19	14584
1023.32	14654
1024.44	14866
1025.57	14542
1026.7	14582
1027.83	14738
1028.96	14724
1030.09	14726
1031.21	14836
1032.34	14970
1033.47	14944
1034.6	14872
1035.72	14898
1036.85	15000
1037.98	15114
1039.1	15228
1040.23	15038
1041.35	15384
1042.48	15378
1043.61	15208
1044.73	15390
1045.86	15216
1046.98	15464
1048.11	15414
1049.23	15396
1050.36	15384
1051.48	15348
1052.61	15508
1053.73	15512
1054.85	15604
1055.98	15648
1057.1	15574
1058.22	15642
1059.35	15620
1060.47	15564
1061.59	15602
1062.72	15752
1063.84	15602
1064.96	15740
1066.08	15832
1067.2	15754
1068.33	15786
1069.45	15810
1070.57	15824
1071.69	15852
1072.81	15834
1073.93	15838
1075.05	16034
1076.17	15834
1077.29	15848
1078.41	16042
1079.53	16082
1080.65	16054
1081.77	16142
1082.89	16088
1084.01	16018
1085.13	15952
1086.25	15810
1087.37	16058
1088.48	16056
1089.6	15914
1090.72	15988
1091.84	15838
1092.96	15932
1094.07	16020
1095.19	16020
1096.31	15910
1097.43	16030
1098.54	15916
1099.66	16050
1100.78	15972
1101.89	15976
1103.01	16194
1104.12	16024
1105.24	16030
1106.35	16114
1107.47	15870
1108.59	16108
1109.7	16216
1110.81	15902
1111.93	16136
1113.04	15870
1114.16	16128
1115.27	16066
1116.39	16032
1117.5	16020
1118.61	16032
1119.73	16174
1120.84	16222
1121.95	16048
1123.06	16214
1124.18	16430
1125.29	16126
1126.4	16298
1127.51	16284
1128.63	16018
1129.74	16152
1130.85	16194
1131.96	16132
1133.07	16214
1134.18	16316
1135.29	16186
1136.4	16182
1137.51	16260
1138.62	16394
1139.73	16320
1140.84	16326
1141.95	16248
1143.06	16190
1144.17	16344
1145.28	16344
1146.39	16262
1147.5	16494
1148.61	16482
1149.72	16402
1150.82	16482
1151.93	16454
1153.04	16424
1154.15	16440
1155.26	16550
1156.36	16546
1157.47	16502
1158.58	16586
1159.68	16454
1160.79	16420
1161.9	16478
1163	16438
1164.11	16424
1165.22	16366
1166.32	16492
1167.43	16472
1168.53	16416
1169.64	16366
1170.74	16378
1171.85	16588
1172.95	16434
1174.06	16446
1175.16	16502
1176.26	16398
1177.37	16284
1178.47	16404
1179.58	16468
1180.68	16276
1181.78	16284
1182.88	16210
1183.99	16254
1185.09	16172
1186.19	16284
1187.3	16188
1188.4	16202
1189.5	16062
1190.6	16142
1191.7	16024
1192.8	16122
1193.9	15956
1195.01	16076
1196.11	15974.9
1197.21	16193.7
1198.31	16027
1199.41	16016
1200.51	15963.3
1201.61	15842.6
1202.71	15771.3
1203.81	15908.6
1204.91	15831.4
1206.01	15783.9
1207.11	15654.3
1208.2	15763.1
1209.3	15706.1
1210.4	15698.4
1211.5	15723.7
1212.6	15710.1
1213.7	15568.2
1214.8	15650.3
1215.89	15619.3
1216.99	15452.7
1218.09	15436.6
1219.18	15442.9
1220.28	15519.6
1221.38	15364.3
1222.48	15350.8
1223.57	15369.1
1224.67	15353.9
1225.76	15304.7
1226.86	15310.3
1227.96	15265.2
1229.05	15270.2
1230.15	15299.7
1231.24	15273.7
1232.34	15201.6
1233.43	15077.4
1234.53	15178.4
1235.62	15142.8
1236.71	15214.1
1237.81	15205.2
1238.9	15140.4
1240	15105
1241.09	15133
1242.18	14994.7
1243.28	15108.8
1244.37	15033.2
1245.46	14901.5
1246.56	14985.4
1247.65	14931.5
1248.74	14973.3
1249.83	14926.6
1250.93	14834.4
1252.02	14900.8
1253.11	14958
1254.2	14848.8
1255.29	14820.3
1256.38	14890.4
1257.47	14783.9
1258.56	14729
1259.65	14796.3
1260.74	14745.7
1261.84	14801.2
1262.92	14681.4
1264.01	14698
1265.1	14663.3
1266.19	14640.4
1267.28	14652.1
1268.37	14692.5
1269.46	14619.8
1270.55	14609.4
1271.64	14509.4
1272.73	14602.5
1273.82	14476.4
1274.9	14517.1
1275.99	14546.8
1277.08	14490.7
1278.17	14423.2
1279.26	14407.8
1280.34	14387.6
1281.43	14362.9
1282.52	14439.9
1283.6	14363.5
1284.69	14359.1
1285.78	14328.1
1286.86	14291.8
1287.95	14292
1289.03	14359.5
1290.12	14215
1291.21	14199.8
1292.29	14123.6
1293.38	14171.1
1294.46	14092.7
1295.55	13997.8
1296.63	14036.8
1297.71	14032.9
1298.8	14045
1299.88	13941
1300.97	13983.1
1302.05	13971.4
1303.13	13918.1
1304.22	13810.6
1305.3	13737.4
1306.38	13943.2
1307.34	14028
1308.43	13832
1309.52	13694
1310.61	13780
1311.7	13680
1312.78	13728
1313.87	13566
1314.96	13598
1316.05	13742
1317.13	13516
1318.22	13368
1319.3	13540
1320.39	13306
1321.48	13388
1322.56	13326
1323.65	13186
1324.73	13288
1325.82	13244
1326.9	13200
1327.99	13234
1329.07	13080
1330.16	13006
1331.24	12922
1332.33	13068
1333.41	12928
1334.5	12934
1335.58	12828
1336.66	12970
1337.75	12944
1338.83	12808
1339.91	12802
1341	12820
1342.08	12702
1343.16	12748
1344.25	12756
1345.33	12654
1346.41	12706
1347.49	12610
1348.57	12572
1349.65	12474
1350.74	12476
1351.82	12542
1352.9	12564
1353.98	12318
1355.06	12504
1356.14	12416
1357.22	12370
1358.3	12454
1359.38	12260
1360.46	12338
1361.54	12274
1362.62	12210
1363.7	12370
1364.78	12312
1365.86	12104
1366.94	12098
1368.02	12140
1369.09	12068
1370.17	12204
1371.25	12008
1372.33	12018
1373.41	12028
1374.48	12098
1375.56	11948
1376.64	11902
1377.72	12030
1378.79	11960
1379.87	11762
1380.95	11820
1382.02	11884
1383.1	11720
1384.17	11758
1385.25	11678
1386.33	11764
1387.4	11822
1388.48	11538
1389.55	11604
1390.63	11616
1391.7	11568
1392.78	11638
1393.85	11450
1394.93	11604
1396	11448
1397.07	11442
1398.15	11440
1399.22	11430
1400.3	11442
1401.37	11384
1402.44	11430
1403.52	11372
1404.59	11314
1405.66	11322
1406.73	11322
1407.81	11264
1408.88	11280
1409.95	11168
1411.02	11184
1412.09	11238
1413.17	11104
1414.24	11084
1415.31	11166
1416.38	11080
1417.45	11000
1418.52	11020
1419.59	11012
1420.66	11166
1421.73	11036
1422.8	10906
1423.87	10974
1424.94	11040
1426.01	10968
1427.08	10964
1428.15	10888
1429.22	10714
1430.29	10906
1431.35	10922
1432.42	10776
1433.49	10816
1434.56	10790
1435.63	10730
1436.7	10752
1437.76	10672
1438.83	10818
1439.9	10702
1440.96	10682
1442.03	10732
1443.1	10648
1444.17	10488
1445.23	10606
1446.3	10700
1447.36	10524
1448.43	10618
1449.49	10652
1450.56	10538
1451.63	10478
1452.69	10458
1453.76	10562
1454.82	10452
1455.89	10592
1456.95	10490
1458.01	10418
1459.08	10640
1460.14	10516
1461.21	10366
1462.27	10522
1463.34	10390
1464.4	10356
1465.46	10334
1466.52	10552
1467.59	10372
1468.65	10400
1469.71	10296
1470.77	10408
1471.84	10340
1472.9	10308
1473.96	10262
1475.02	10248
1476.08	10268
1477.15	10242
1478.21	10214
1479.27	10282
1480.33	10290
1481.39	10250
1482.45	10134
1483.51	10112
1484.57	10112
1485.63	10192
1486.69	10162
1487.75	10194
1488.81	10146
1489.87	10092
1490.93	10108
1491.99	10116
1493.05	10004
1494.1	10062
1495.16	10182
1496.22	10060
1497.28	9996
1498.34	10104
1499.4	9916
1500.45	9986
1501.51	10022
1502.57	9976
1503.63	9910
1504.68	9906
1505.74	9854
1506.8	9868
1507.85	9788
1508.91	9816
1509.97	9854
1511.02	9798
1512.08	9806
1513.13	9686
1514.19	9750
1515.24	9846
1516.3	9708
1517.35	9768
1518.41	9700
1519.46	9756
1520.52	9654
1521.57	9684
1522.63	9652
1523.68	9612
1524.73	9736
1525.79	9476
1526.84	9662
1527.9	9650
1528.95	9478
1530	9554
1531.06	9440
1532.11	9484
1533.16	9564
1534.21	9534
1535.26	9526
1536.32	9500
1537.37	9460
1538.42	9478
1539.47	9436
1540.52	9486
1541.57	9398
1542.63	9356
1543.68	9326
1544.73	9318
1545.78	9344
1546.83	9288
1547.88	9200
1548.93	9300
1549.98	9238
1551.03	9372
1552.08	9248
1553.13	9242
1554.18	9170
1555.23	9186
1556.27	9130
1557.32	9106
1558.37	9242
1559.42	9148
1560.47	9170
1561.52	8998
1562.56	9212
1563.61	9172
1564.66	9052
1565.71	9180
1566.75	9132
1567.8	9036
1568.85	9184
1569.9	9070
1570.94	9110
1571.99	8998
1573.03	9106
1574.08	8878
1575.13	9072
1576.17	8966
1577.22	9030
1578.26	9010
1579.31	9208
1580.35	9040
1581.4	8968
1582.44	8958
1583.49	8994
1584.53	9018
1585.58	8932
1586.62	8942
1587.66	8930
1588.71	8920
1589.75	8984
1590.8	8908
1591.84	8964
1592.88	8858
1593.93	8996
1594.97	8998
1596.01	8958
1597.05	8914
1598.1	8946
1599.14	8884
1600.18	8750
1601.22	8914
1602.26	8862
1603.31	8934
1604.35	8960
1605.39	8902
1606.43	8894
1607.47	8768
1608.51	8816
1609.55	8868
1610.59	8894
1611.63	8916
1612.67	8876
1613.71	8780
1614.75	8770
1615.79	8744
1616.83	8846
1617.87	8780
1618.91	8732
1619.95	8792
1620.99	8764
1622.02	8772
1623.06	8830
1624.1	8730
1625.14	8784
1626.18	8754
1627.21	8630
1628.25	8814
1629.29	8794
1630.33	8656
1631.36	8586
1632.4	8664
1633.44	8684
1634.48	8746
1635.51	8766
1636.55	8758
1637.58	8650
1638.62	8616
1639.66	8634
1640.69	8734
1641.73	8592
1642.76	8730
1643.8	8608
1644.83	8630
1645.87	8726
1646.9	8616
1647.94	8642
1648.97	8506
1650	8572
1651.04	8640
1652.07	8556
1653.11	8562
1654.14	8448
1655.17	8508
1656.21	8494
1657.24	8462
1658.27	8588
1659.31	8468
1660.34	8416
1661.37	8450
1662.4	8490
1663.43	8510
1664.47	8304
1665.5	8466
1666.53	8404
1667.56	8232
1668.59	8426
1669.62	8424
1670.66	8338
1671.69	8358
1672.72	8256
1673.75	8380
1674.78	8242
1675.81	8306
1676.84	8388
1677.87	8408
1678.9	8242
1679.93	8250
1680.96	8296
1681.98	8240
1683.01	8100
1684.04	8226
1685.07	8278
1686.1	8184
1687.13	8270
1688.16	8228
1689.19	7982
1690.21	8006
1691.24	8122
1692.27	8196
1693.3	8174
1694.32	7968
1695.35	8122
1696.38	8086
1697.4	8114
1698.43	8082
1699.46	8144
1700.48	8106
1701.51	7976
1702.54	7946
1703.56	8024
1704.59	7936
1705.61	8006
1706.64	7960
1707.66	7992
1708.69	7936
1709.71	8044
1710.74	8026
1711.76	8018
1712.79	7954
1713.81	7944
1714.83	7912
1715.86	8000
1716.88	7938
1717.91	7890
1718.93	7960
1719.95	7880
1720.98	7922
1722	7940
1723.02	7884
1724.04	7938
1725.07	7940
1726.09	7872
1727.11	7884
1728.13	7854
1729.15	7744
1730.18	7834
1731.2	7818
1732.22	7840
1733.24	7776
1734.26	7750
1735.28	7864
1736.3	7764
1737.32	7714
1738.34	7890
1739.36	7710
1740.38	7854
1741.4	7674
1742.42	7748
1743.44	7724
1744.46	7716
1745.48	7768
1746.5	7708
1747.52	7696
1748.54	7702
1749.56	7780
1750.58	7726
1751.6	7736
1752.61	7708
1753.63	7642
1754.65	7818
1755.67	7722
1756.68	7644
1757.7	7806
1758.72	7744
1759.74	7628
1760.75	7810
1761.77	7654
1762.79	7724
1763.8	7766
1764.82	7624
1765.84	7742
1766.85	7772
1767.87	7662
1768.88	7666
1769.9	7712
1770.91	7650
1771.93	7562
1772.94	7606
1773.96	7684
1774.97	7690
1775.99	7638
1777	7620
1778.02	7538
1779.03	7644
1780.04	7724
1781.06	7642
1782.07	7592
1783.09	7594
1784.1	7754
1785.11	7544
1786.13	7644
1787.14	7692
1788.15	7610
1789.16	7558
1790.18	7588
1791.19	7628
1792.2	7518
1793.21	7592
1794.22	7552
1795.23	7530
1796.25	7556
1797.26	7524
1798.27	7400
1799.28	7458
1800.29	7556
1801.3	7508
1802.31	7548
1803.32	7496
1804.33	7558
1805.34	7550
1806.35	7514
1807.36	7456
1808.37	7366
1809.38	7492
1810.39	7460
1811.4	7414
1812.41	7434
1813.42	7348
1814.43	7592
1815.43	7498
1816.44	7428
1817.45	7410
1818.46	7426
1819.47	7550
1820.47	7536
1821.48	7312
1822.49	7400
1823.49	7384
1824.5	7392
1825.51	7416
1826.52	7318
1827.52	7472
1828.53	7386
1829.54	7354
1830.54	7348
1831.55	7378
1832.55	7298
1833.56	7226
1834.56	7382
1835.57	7144
1836.57	7300
1837.58	7292
1838.58	7310
1839.59	7360
1840.59	7206
1841.6	7226
1842.6	7324
1843.61	7266
1844.61	7308
1845.61	7266
1846.62	7248
1847.62	7156
1848.62	7168
1849.63	7194
1850.63	7194
1851.63	7244
1852.64	7102
1853.64	7294
1854.64	7174
1855.64	7170
1856.64	7106
1857.65	7144
1858.65	7168
1859.65	7014
1860.65	7064
1861.65	7152
1862.65	7078
1863.65	7024
1864.66	7048
1865.66	7220
1866.66	7106
1867.66	7046
1868.66	7084
1869.66	7090
1870.66	7086
1871.66	7080
1872.66	7030
1873.66	7082
1874.66	7052
1875.65	7174
1876.65	6996
1877.65	7096
1878.65	6974
1879.65	6942
1880.65	7026
1881.65	7008
1882.64	6912
1883.64	6916
1884.64	6990
1885.64	6956
1886.63	6994
1887.63	6918
1888.63	6958
1889.63	6910
1890.62	6956
1891.62	6976
1892.62	7018
1893.61	6986
1894.61	6928
1895.6	7010
1896.6	6958
1897.6	6968
1898.59	6866
1899.59	6964
1900.58	7010
1901.58	6966
1902.57	6984
1903.57	6858
1904.56	7006
1905.56	6938
1906.55	7022
1907.54	6942
1908.54	6928
1909.53	6978
1910.53	6866
1911.52	6942
1912.51	7022
1913.51	6814
1914.5	6902
1915.49	6954
1916.49	6932
1917.48	6962
1918.47	6918
1919.46	6970
1920.46	6842
1921.45	6888
1922.44	6796
1923.43	6768
1924.42	6872
1925.41	6822
1926.41	7000
1927.4	6906
1928.39	6912
1929.38	6848
1930.37	6876
1931.36	6842
1932.35	6948
1933.34	6816
1934.33	6802
1935.32	6894
1936.31	6948
1937.3	6926
1938.29	6836
1939.28	6824
1940.27	6762
1941.26	6782
1942.24	6838
1943.23	6848
1944.22	6776
1945.21	6794
1946.2	6818
1947.19	6732
1948.17	6912
1949.16	6878
1950.15	6814
1951.14	6750
1952.13	6780
1953.11	6836
1954.1	6710
1955.09	6742
1956.07	6716
1957.06	6758
1958.05	6616
1959.03	6748
1960.02	6654
1961	6704
1961.99	6678
1962.98	6734
1963.96	6658
1964.95	6730
1965.93	6720
1966.92	6698
1967.9	6610
1968.89	6634
1969.87	6692
1970.85	6638
1971.84	6572
1972.82	6746
1973.81	6696
1974.79	6504
1975.78	6642
1976.76	6654
1977.74	6590
1978.73	6598
1979.71	6642
1980.69	6660
1981.67	6614
1982.66	6574
1983.64	6638
1984.62	6514
1985.6	6590
1986.59	6672
1987.57	6658
1988.55	6602
1989.53	6570
1990.51	6584
1991.49	6634
1992.47	6530
1993.45	6578
1994.44	6604
1995.42	6578
1996.4	6568
1997.38	6488
1998.36	6616
1999.34	6540
2000.32	6468
2001.3	6558
2002.28	6558
2003.26	6496
2004.24	6474
2005.22	6514
2006.19	6572
2007.17	6488
2008.15	6466
2009.13	6390
2010.11	6434
2011.09	6508
2012.06	6514
2013.04	6512
2014.02	6442
2015	6396
2015.98	6482
2016.95	6496
2017.93	6372
2018.91	6574
2019.88	6384
2020.86	6442
2021.84	6416
2022.81	6458
2023.79	6402
2024.77	6356
2025.74	6444
2026.72	6308
2027.69	6472
2028.67	6452
2029.65	6450
2030.62	6368
2031.6	6478
2032.57	6388
2033.55	6382
2034.52	6378
2035.5	6462
2036.47	6444
2037.44	6304
2038.42	6402
2039.39	6380
2040.36	6424
2041.34	6328
2042.31	6358
2043.29	6324
2044.26	6400
2045.23	6372
2046.2	6254
2047.18	6350
2048.15	6318
2049.12	6380
2050.09	6364
2051.07	6316
2052.04	6294
2053.01	6242
2053.98	6266
2054.95	6310
2055.93	6246
2056.9	6206
2057.87	6278
2058.84	6222
2059.81	6238
2060.78	6304
2061.75	6290
2062.72	6224
2063.69	6204
2064.66	6268
2065.63	6308
2066.6	6272
2067.57	6154
2068.54	6310
2069.51	6368
2070.48	6228
2071.45	6222
2072.42	6254
2073.38	6110
2074.35	6208
2075.32	6216
2076.29	6226
2077.26	6236
2078.23	6212
2079.19	6180
2080.16	6228
2081.13	6138
2082.1	6096
2083.06	6182
2084.03	6152
2085	6078
2085.96	6162
2086.93	6110
2087.9	6190
2088.86	6040
2089.83	6088
2090.8	6140
2091.76	6172
2092.73	6126
2093.69	6124
2094.66	6156
2095.62	6134
2096.59	6192
2097.55	6156
2098.52	6160
2099.48	6036
2100.45	6098
2101.41	6072
2102.38	6060
2103.34	6040
2104.31	6142
2105.27	6100
2106.23	5994
2107.2	5970
2108.16	6066
2109.12	6112
2110.09	6008
2111.05	6068
2112.01	6020
2112.98	6026
2113.94	6080
2114.9	5996
2115.86	6094
2116.82	6106
2117.79	6058
2118.75	5992
2119.71	6140
2120.67	6010
2121.63	5984
2122.59	5942
2123.55	6030
2124.52	6010
2125.48	6066
2126.44	5944
2127.4	6036
2128.36	6074
2129.32	6084
2130.28	6050
2131.24	5956
2132.2	5918
2133.16	5988
2134.12	5994
2135.08	6060
2136.04	6026
2136.99	5868
2137.95	5846
2138.91	5882
2139.87	5900
2140.83	5886
2141.79	5972
2142.75	5896
2143.7	5856
2144.66	5904
2145.62	5939.42
2146.58	5909.67
2147.53	5762.75
2148.49	5845.71
2149.45	5838.01
2150.41	5875.52
2151.36	5854.94
2152.32	5829.63
2153.28	5772.18
2154.23	5901.5
2155.19	5827.64
2156.14	5780.01
2157.1	5870.21
2158.06	5867.06
2159.01	5875.21
2159.97	5833.29
2160.92	5703.59
2161.88	5891.12
2162.83	5719.05
2163.79	5817.44
2164.74	5692.11
2165.7	5810.42
2166.65	5834.35
2167.61	5777.75
2168.56	5824.66
2169.51	5877.9
2170.47	5787.83
2171.42	5720.24
2172.38	5722.85
2173.33	5740.23
2174.28	5813.32
2175.24	5666.89
2176.19	5641.93
2177.14	5698.94
2178.09	5708.87
2179.05	5723.17
2180	5653.04
2180.95	5657.83
2181.9	5705.54
2182.86	5717.33
2183.81	5707.62
2184.76	5705.17
2185.71	5677.17
2186.66	5671.6
2187.61	5688.1
2188.57	5669.41
2189.52	5642.92
2190.47	5658.32
2191.42	5645.27
2192.37	5683.39
2193.32	5676.65
2194.27	5662.58
2195.22	5611.46
2196.17	5592.98
2197.12	5611.94
2198.07	5595.05
2199.02	5583.51
2199.97	5561.44
2200.92	5594.97
2201.87	5589.37
2202.82	5607.24
2203.76	5583.25
2204.71	5595.7
2205.66	5562.35
2206.61	5573.52
2207.56	5572.73
2208.51	5540.18
2209.45	5614.07
2210.4	5636.59
2211.35	5583.91
2212.3	5578.69
2213.25	5572.33
2214.19	5538.72
2215.14	5584.95
2216.09	5596.95
2217.03	5571.14
2217.98	5571.71
2218.93	5602.95
2219.87	5589.77
2220.82	5574.5
2221.77	5615.8
2222.71	5586.56
2223.66	5575.7
2224.6	5577.5
2225.55	5593.12
2226.49	5582.77
2227.44	5576.28
2228.38	5587.83
2229.33	5581.65
2230.27	5596.74
2231.22	5588.9
2232.16	5616.05
2233.11	5560.54
2234.05	5556.36
2235	5570.64
2235.94	5574.24
2236.88	5608.89
2237.83	5596.27
2238.77	5605.45
2239.72	5613.05
2240.66	5573.01
2241.6	5608.39
2242.07	5662
2243.02	5568
2243.97	5628
2244.92	5612
2245.87	5610
2246.81	5588
2247.76	5540
2248.71	5650
2249.65	5570
2250.6	5608
2251.55	5564
2252.49	5566
2253.44	5520
2254.39	5576
2255.33	5486
2256.28	5526
2257.22	5494
2258.17	5572
2259.12	5534
2260.06	5498
2261.01	5540
2261.95	5590
2262.9	5520
2263.84	5580
2264.78	5464
2265.73	5588
2266.67	5522
2267.62	5492
2268.56	5476
2269.51	5540
2270.45	5506
2271.39	5542
2272.34	5418
2273.28	5460
2274.22	5460
2275.17	5468
2276.11	5562
2277.05	5520
2277.99	5518
2278.94	5468
2279.88	5502
2280.82	5546
2281.76	5484
2282.71	5482
2283.65	5526
2284.59	5518
2285.53	5490
2286.47	5472
2287.41	5442
2288.35	5458
2289.3	5352
2290.24	5566
2291.18	5512
2292.12	5344
2293.06	5424
2294	5398
2294.94	5422
2295.88	5416
2296.82	5342
2297.76	5412
2298.7	5366
2299.64	5338
2300.58	5374
2301.52	5426
2302.46	5346
2303.39	5454
2304.33	5386
2305.27	5350
2306.21	5256
2307.15	5400
2308.09	5438
2309.02	5340
2309.96	5358
2310.9	5284
2311.84	5248
2312.77	5402
2313.71	5354
2314.65	5298
2315.59	5288
2316.52	5266
2317.46	5342
2318.4	5274
2319.33	5308
2320.27	5300
2321.21	5342
2322.14	5214
2323.08	5356
2324.01	5222
2324.95	5168
2325.89	5278
2326.82	5266
2327.76	5308
2328.69	5234
2329.63	5412
2330.56	5272
2331.5	5306
2332.43	5356
2333.36	5252
2334.3	5220
2335.23	5262
2336.17	5380
2337.1	5318
2338.03	5228
2338.97	5216
2339.9	5298
2340.83	5232
2341.77	5192
2342.7	5196
2343.63	5234
2344.57	5224
2345.5	5260
2346.43	5190
2347.36	5152
2348.3	5200
2349.23	5156
2350.16	5158
2351.09	5140
2352.02	5264
2352.95	5166
2353.89	5104
2354.82	5232
2355.75	5170
2356.68	5252
2357.61	5206
2358.54	5170
2359.47	5196
2360.4	5164
2361.33	5128
2362.26	5234
2363.19	5146
2364.12	5084
2365.05	5160
2365.98	5254
2366.91	5114
2367.84	5192
2368.77	5214
2369.7	5190
2370.63	5114
2371.56	5164
2372.48	5124
2373.41	5192
2374.34	5166
2375.27	5146
2376.2	5068
2377.12	5192
2378.05	5158
2378.98	5154
2379.91	5020
2380.84	5110
2381.76	5146
2382.69	5172
2383.62	5116
2384.54	5122
2385.47	5126
2386.4	5122
2387.32	5128
2388.25	5040
2389.18	5118
2390.1	5094
2391.03	5050
2391.95	5016
2392.88	5086
2393.8	5062
2394.73	5030
2395.65	5000
2396.58	5032
2397.5	5010
2398.43	5068
2399.35	5044
2400.28	5026
2401.2	4898
2402.13	4968
2403.05	5086
2403.97	4980
2404.9	4994
2405.82	5064
2406.75	4964
2407.67	5042
2408.59	4970
2409.51	4974
2410.44	4966
2411.36	4936
2412.28	5050
2413.21	4922
2414.13	4900
2415.05	4882
2415.97	5018
2416.9	5038
2417.82	4936
2418.74	4976
2419.66	4930
2420.58	5018
2421.5	4970
2422.42	4952
2423.35	4892
2424.27	4892
2425.19	4918
2426.11	4864
2427.03	4834
2427.95	4988
2428.87	4914
2429.79	4918
2430.71	4894
2431.63	4876
2432.55	4872
2433.47	4888
2434.39	4830
2435.31	4818
2436.23	4890
2437.14	4794
2438.06	4816
2438.98	4886
2439.9	4978
2440.82	4852
2441.74	4842
2442.66	4774
2443.57	4838
2444.49	4762
2445.41	4862
2446.33	4852
2447.24	4758
2448.16	4860
2449.08	4844
2450	4878
2450.91	4836
2451.83	4838
2452.75	4812
2453.66	4786
2454.58	4808
2455.5	4808
2456.41	4746
2457.33	4788
2458.24	4802
2459.16	4812
2460.08	4864
2460.99	4806
2461.91	4852
2462.82	4750
2463.74	4694
2464.65	4742
2465.57	4848
2466.48	4798
2467.4	4698
2468.31	4756
2469.22	4782
2470.14	4690
2471.05	4780
2471.97	4674
2472.88	4700
2473.79	4668
2474.71	4692
2475.62	4710
2476.53	4730
2477.45	4708
2478.36	4640
2479.27	4768
2480.19	4698
2481.1	4640
2482.01	4768
2482.92	4668
2483.83	4646
2484.75	4746
2485.66	4592
2486.57	4662
2487.48	4636
2488.39	4594
2489.3	4652
2490.22	4560
2491.13	4570
2492.04	4598
2492.95	4646
2493.86	4636
2494.77	4728
2495.68	4628
2496.59	4574
2497.5	4566
2498.41	4558
2499.32	4626
2500.23	4574
2501.14	4604
2502.05	4554
2502.96	4578
2503.87	4540
2504.78	4602
2505.68	4508
2506.59	4474
2507.5	4508
2508.41	4588
2509.32	4556
2510.23	4454
2511.14	4480
2512.04	4422
2512.95	4424
2513.86	4518
2514.77	4504
2515.67	4516
2516.58	4450
2517.49	4468
2518.39	4488
2519.3	4430
2520.21	4536
2521.11	4370
2522.02	4506
2522.93	4470
2523.83	4438
2524.74	4458
2525.65	4458
2526.55	4434
2527.46	4352
2528.36	4374
2529.27	4358
2530.17	4406
2531.08	4460
2531.98	4348
2532.89	4368
2533.79	4432
2534.7	4494
2535.6	4350
2536.51	4378
2537.41	4364
2538.32	4370
2539.22	4350
2540.12	4364
2541.03	4310
2541.93	4384
2542.83	4378
2543.74	4332
2544.64	4348
2545.54	4342
2546.45	4308
2547.35	4340
2548.25	4370
2549.15	4292
2550.06	4278
2550.96	4296
2551.86	4220
2552.76	4280
2553.66	4284
2554.56	4240
2555.47	4306
2556.37	4254
2557.27	4266
2558.17	4178
2559.07	4198
2559.97	4274
2560.87	4348
2561.77	4218
2562.67	4364
2563.58	4174
2564.47	4290
2565.38	4188
2566.27	4198
2567.18	4278
2568.07	4192
2568.97	4202
2569.87	4166
2570.77	4232
2571.67	4158
2572.57	4166
2573.47	4242
2574.37	4060
2575.27	4146
2576.17	4150
2577.06	4236
2577.96	4094
2578.86	4154
2579.76	4092
2580.66	4144
2581.55	4124
2582.45	4168
2583.35	4112
2584.25	4102
2585.14	4120
2586.04	4122
2586.94	4112
2587.83	4120
2588.73	4024
2589.63	4114
2590.52	4088
2591.42	4090
2592.32	4046
2593.21	4038
2594.11	4074
2595	4036
2595.9	4054
2596.8	3960
2597.69	4046
2598.59	4046
2599.48	4018
2600.38	4006
2601.27	4022
2602.17	4010
2603.06	3952
2603.95	4054
2604.85	3924
2605.74	3918
2606.64	4038
2607.53	3998
2608.42	3956
2609.32	3988
2610.21	3934
2611.1	3988
2612	3922
2612.89	3902
2613.78	4042
2614.68	3978
2615.57	3982
2616.46	3972
2617.36	3904
2618.25	3936
2619.14	3984
2620.03	3984
2620.92	3836
2621.82	3868
2622.71	3946
2623.6	3912
2624.49	3996
2625.38	3912
2626.27	3876
2627.16	3884
2628.05	3930
2628.95	3852
2629.84	3860
2630.73	3846
2631.62	3824
2632.51	3936
2633.4	3826
2634.29	3792
2635.18	3810
2636.07	3864
2636.96	3846
2637.85	3804
2638.74	3818
2639.62	3788
2640.51	3758
2641.4	3742
2642.29	3806
2643.18	3794
2644.07	3808
2644.96	3778
2645.85	3776
2646.73	3720
2647.62	3676
2648.51	3798
2649.4	3818
2650.28	3766
2651.17	3762
2652.06	3808
2652.95	3796
2653.83	3708
2654.72	3718
2655.61	3730
2656.5	3794
2657.38	3742
2658.27	3702
2659.15	3718
2660.04	3798
2660.93	3696
2661.81	3756
2662.7	3674
2663.58	3742
2664.47	3724
2665.35	3704
2666.24	3644
2667.13	3678
2668.01	3740
2668.9	3766
2669.78	3720
2670.66	3682
2671.55	3682
2672.43	3630
2673.32	3596
2674.2	3644
2675.09	3708
2675.97	3676
2676.85	3610
2677.74	3644
2678.62	3586
2679.5	3642
2680.39	3650
2681.27	3684
2682.15	3604
2683.04	3682
2683.92	3694
2684.8	3618
2685.68	3638
2686.57	3616
2687.45	3558
2688.33	3608
2689.21	3516
2690.09	3570
2690.98	3592
2691.86	3540
2692.74	3588
2693.62	3562
2694.5	3590
2695.38	3652
2696.26	3556
2697.15	3538
2698.03	3508
2698.91	3554
2699.79	3474
2700.67	3458
2701.55	3462
2702.43	3534
2703.31	3486
2704.19	3588
2705.07	3508
2705.95	3462
2706.83	3548
2707.7	3468
2708.58	3460
2709.46	3538
2710.34	3492
2711.22	3590
2712.1	3464
2712.98	3414
2713.86	3490
2714.73	3496
2715.61	3442
2716.49	3430
2717.37	3416
2718.25	3430
2719.12	3434
2720	3444
2720.88	3336
2721.76	3450
2722.63	3378
2723.51	3446
2724.39	3390
2725.26	3454
2726.14	3532
2727.02	3354
2727.89	3464
2728.77	3378
2729.64	3332
2730.52	3402
2731.4	3304
2732.27	3376
2733.15	3396
2734.02	3396
2734.9	3370
2735.77	3262
2736.65	3348
2737.52	3316
2738.4	3270
2739.27	3288
2740.15	3286
2741.02	3340
2741.9	3312
2742.77	3288
2743.64	3288
2744.52	3294
2745.39	3320
2746.27	3260
2747.14	3214
2748.01	3284
2748.89	3324
2749.76	3270
2750.63	3218
2751.51	3310
2752.38	3322
2753.25	3234
2754.12	3298
2755	3204
2755.87	3248
2756.74	3248
2757.61	3316
2758.48	3248
2759.35	3244
2760.23	3254
2761.1	3240
2761.97	3158
2762.84	3140
2763.71	3194
2764.58	3204
2765.45	3144
2766.32	3164
2767.19	3252
2768.07	3148
2768.94	3246
2769.81	3172
2770.68	3154
2771.55	3164
2772.42	3164
2773.29	3158
2774.16	3116
2775.02	3190
2775.89	3122
2776.76	3210
2777.63	3160
2778.5	3158
2779.37	3088
2780.24	3102
2781.11	3168
2781.98	3136
2782.84	3176
2783.71	3140
2784.58	3084
2785.45	3158
2786.32	3064
2787.18	3054
2788.05	3110
2788.92	3076
2789.79	3134
2790.65	3102
2791.52	3112
2792.39	3154
2793.25	3068
2794.12	3092
2794.99	3048
2795.85	3052
2796.72	3080
2797.59	3044
2798.45	3058
2799.32	3030
2800.18	3104
2801.05	3106
2801.92	3030
2802.78	3048
2803.65	3032
2804.51	3016
2805.38	3038
2806.24	3100
2807.11	3024
2807.97	3038
2808.84	2954
2809.7	2966
2810.57	2980
2811.43	3010
2812.29	3028
2813.16	3030
2814.02	2978
2814.88	2968
2815.75	2966
2816.61	2966
2817.47	2918
2818.34	2948
2819.2	2992
2820.06	2936
2820.93	2928
2821.79	2934
2822.65	2928
2823.51	2954
2824.38	2934
2825.24	2944
2826.1	2910
2826.96	2854
2827.82	2878
2828.69	2944
2829.55	2890
2830.41	2944
2831.27	2886
2832.13	2920
2832.99	2828
2833.85	2880
2834.71	2848
2835.57	2918
2836.44	2852
2837.3	2810
2838.16	2842
2839.02	2856
2839.88	2822
2840.74	2828
2841.6	2796
2842.46	2848
2843.32	2910
2844.18	2836
2845.03	2838
2845.89	2860
2846.75	2844
2847.61	2840
2848.47	2796
2849.33	2760
2850.19	2778
2851.05	2824
2851.9	2782
2852.76	2800
2853.62	2824
2854.48	2778
2855.34	2804
2856.19	2766
2857.05	2814
2857.91	2780
2858.77	2736
2859.62	2704
2860.48	2724
2861.34	2776
2862.19	2794
2863.05	2740
2863.91	2734
2864.76	2750
2865.62	2686
2866.48	2700
2867.33	2674
2868.19	2672
2869.04	2632
2869.9	2672
2870.76	2680
2871.61	2608
2872.47	2658
2873.32	2758
2874.18	2660
2875.03	2606
2875.89	2664
2876.74	2646
2877.6	2690
2878.45	2640
2879.31	2644
2880.16	2598
2881.01	2612
2881.87	2644
2882.72	2596
2883.58	2664
2884.43	2624
2885.28	2604
2886.14	2608
2886.99	2618
2887.84	2578
2888.7	2638
2889.55	2646
2890.4	2616
2891.25	2584
2892.11	2594
2892.96	2594
2893.81	2634
2894.66	2560
2895.52	2608
2896.37	2634
2897.22	2654
2898.07	2630
2898.92	2578
2899.77	2526
2900.62	2578
2901.48	2520
2902.33	2572
2903.18	2616
2904.03	2558
2904.88	2594
2905.73	2542
2906.58	2512
2907.43	2564
2908.28	2542
2909.13	2538
2909.98	2548
2910.83	2524
2911.68	2550
2912.53	2594
2913.38	2524
2914.23	2514
2915.08	2540
2915.93	2512
2916.78	2506
2917.63	2504
2918.47	2500
2919.32	2486
2920.17	2508
2921.02	2540
2921.87	2566
2922.72	2558
2923.56	2526
2924.41	2538
2925.26	2516
2926.11	2480
2926.95	2502
2927.8	2500
2928.65	2492
2929.5	2494
2930.34	2502
2931.19	2422
2932.04	2528
2932.88	2444
2933.73	2472
2934.58	2480
2935.42	2464
2936.27	2496
2937.11	2440
2937.96	2466
2938.81	2444
2939.65	2420
2940.5	2410
2941.34	2426
2942.19	2442
2943.03	2410
2943.88	2534
2944.72	2434
2945.57	2366
2946.41	2458
2947.26	2404
2948.1	2432
2948.95	2448
2949.79	2394
2950.64	2468
2951.48	2380
2952.32	2444
2953.17	2392
2954.01	2376
2954.85	2442
2955.7	2374
2956.54	2380
2957.38	2346
2958.23	2356
2959.07	2340
2959.91	2386
2960.75	2316
2961.6	2332
2962.44	2332
2963.28	2452
2964.12	2294
2964.97	2336
2965.81	2352
2966.65	2386
2967.49	2334
2968.33	2382
2969.17	2348
2970.02	2334
2970.86	2324
2971.7	2296
2972.54	2358
2973.38	2310
2974.22	2316
2975.06	2316
2975.9	2318
2976.74	2300
2977.58	2288
2978.42	2212
2979.26	2296
2980.1	2334
2980.94	2286
2981.78	2296
2982.62	2336
2983.46	2242
2984.3	2246
2985.14	2274
2985.98	2210
2986.82	2238
2987.66	2250
2988.49	2180
2989.33	2196
2990.17	2242
2991.01	2220
2991.85	2246
2992.69	2250
2993.52	2262
2994.36	2232
2995.2	2168
2996.04	2180
2996.87	2242
2997.71	2230
2998.55	2232
2999.39	2168
