#Acq. time (s)=	10
#Accumulations=	1
#Range (cm-¹)=	100...3000
#Windows=	3
#Autofocus=	Off
#AutoExposure=	Off
#Spike filter=	Off
#Delay time (s)=	0
#Binning=	1
#Readout mode=	Signal
#DeNoise=	Off
#ICS correction=	Off
#Dark correction=	Off
#Inst. Process=	Off
#Instrument=	LabRAM HR Evol
#Detector=	Syncerity OE
#Objective=	x100_VIS
#Grating=	600 (500nm)
#ND Filter=	3.2%
#Laser=	633nm_Edge
#Hole=	100.021
#Range=	Visible
#Project=	Omar
#Sample=	26-06-23
#Site=	2
#Title=	Organic
#Remark=	
#Date=	26.06.2023 16:17
#Acquired=	26.06.2023 16:17:00
101.018	4436
102.302	4426
103.586	4444
104.869	4498
106.152	4492
107.435	4508
108.717	4560
109.999	4490
111.281	4560
112.563	4542
113.845	4480
115.126	4464
116.407	4492
117.688	4506
118.969	4566
120.249	4564
121.53	4612
122.81	4640
124.09	4606
125.369	4610
126.649	4654
127.928	4646
129.207	4616
130.486	4700
131.765	4686
133.043	4670
134.321	4662
135.599	4714
136.877	4674
138.155	4748
139.432	4698
140.708	4606
141.985	4674
143.261	4690
144.538	4638
145.814	4742
147.09	4654
148.366	4732
149.641	4736
150.916	4690
152.191	4690
153.466	4804
154.741	4824
156.016	4808
157.289	4804
158.563	4754
159.837	4812
161.111	4840
162.385	4898
163.657	4836
164.93	4862
166.203	4876
167.476	4910
168.747	4842
170.019	4868
171.291	4852
172.562	4810
173.834	4886
175.105	4922
176.377	4860
177.646	4878
178.917	4848
180.188	4890
181.457	4972
182.727	4984
183.996	4856
185.266	4996
186.536	4944
187.804	4988
189.073	4934
190.342	4928
191.609	4912
192.878	5112
194.145	5004
195.413	5004
196.681	5108
197.948	5090
199.215	5062
200.481	5052
201.749	5050
203.014	5152
204.281	4988
205.546	5144
206.813	5170
208.077	5162
209.343	5154
210.608	5162
211.873	5234
213.137	5224
214.402	5288
215.666	5186
216.93	5248
218.194	5206
219.458	5262
220.721	5294
221.983	5288
223.247	5282
224.509	5342
225.772	5388
227.034	5268
228.295	5336
229.558	5350
230.819	5400
232.081	5414
233.342	5492
234.602	5400
235.864	5370
237.124	5454
238.384	5406
239.645	5480
240.904	5428
242.164	5434
243.423	5458
244.683	5522
245.941	5444
247.2	5488
248.46	5554
249.717	5582
250.975	5494
252.233	5518
253.492	5608
254.749	5558
256.006	5546
257.263	5586
258.519	5518
259.777	5614
261.033	5556
262.289	5526
263.545	5500
264.8	5622
266.057	5516
267.312	5580
268.567	5614
269.822	5530
271.076	5580
272.331	5548
273.585	5476
274.839	5472
276.094	5568
277.347	5624
278.601	5612
279.854	5664
281.107	5724
282.359	5638
283.612	5676
284.864	5690
286.116	5648
287.368	5692
288.62	5820
289.871	5714
291.123	5784
292.374	5730
293.625	5822
294.875	5764
296.126	5816
297.376	5780
298.626	5724
299.876	5876
301.126	5918
302.375	6034
303.625	5956
304.874	5924
306.122	5940
307.371	5976
308.62	5976
309.866	5968
311.114	5964
312.362	5900
313.61	6002
314.857	5970
316.105	6052
317.352	6048
318.599	5990
319.844	5986
321.09	6010
322.337	6016
323.583	6068
324.828	6020
326.073	6112
327.318	6072
328.563	6038
329.808	6128
331.053	6142
332.296	6058
333.541	6028
334.785	6034
336.029	6098
337.272	6168
338.515	6088
339.759	6212
341.001	6208
342.244	6120
343.486	6236
344.728	6214
345.97	6206
347.212	6272
348.453	6230
349.695	6318
350.936	6254
352.176	6154
353.418	6250
354.659	6392
355.898	6382
357.139	6328
358.378	6414
359.618	6296
360.858	6452
362.097	6408
363.336	6352
364.574	6356
365.813	6388
367.051	6374
368.29	6446
369.527	6308
370.766	6376
372.002	6446
373.241	6454
374.477	6470
375.715	6426
376.951	6440
378.188	6456
379.424	6474
380.66	6346
381.896	6478
383.132	6500
384.367	6538
385.603	6468
386.838	6510
388.072	6508
389.307	6464
390.541	6494
391.776	6450
393.01	6540
394.243	6566
395.477	6556
396.71	6512
397.943	6600
399.177	6528
400.409	6660
401.641	6598
402.875	6544
404.106	6646
405.338	6636
406.57	6710
407.802	6728
409.032	6684
410.263	6676
411.495	6638
412.725	6662
413.955	6644
415.185	6748
416.417	6930
417.646	6810
418.875	6832
420.104	6976
421.335	6936
422.564	6990
423.792	7014
425.02	6954
426.249	6968
427.477	6930
428.706	6944
429.933	7020
431.161	7046
432.388	7094
433.615	7162
434.841	7064
436.068	7182
437.294	7114
438.522	7076
439.748	7176
440.974	7158
442.199	7186
443.425	7154
444.65	7070
445.875	7136
447.1	7208
448.324	7174
449.549	7156
450.773	7182
451.997	7240
453.221	7268
454.445	7192
455.668	7096
456.891	7188
458.114	7196
459.337	7264
460.56	7274
461.782	7146
463.005	7256
464.227	7236
465.447	7266
466.669	7196
467.89	7298
469.112	7318
470.333	7336
471.554	7258
472.774	7380
473.995	7270
475.214	7410
476.434	7448
477.654	7420
478.874	7474
480.093	7462
481.312	7462
482.53	7528
483.749	7462
484.968	7536
486.186	7480
487.405	7428
488.622	7526
489.84	7570
491.057	7544
492.275	7528
493.491	7606
494.708	7568
495.925	7588
497.141	7572
498.357	7672
499.574	7738
500.789	7668
502.005	7752
503.221	7720
504.435	7662
505.65	7714
506.866	7708
508.079	7742
509.294	7716
510.509	7748
511.722	7844
512.936	7740
514.149	7852
515.363	7796
516.577	7800
517.789	7744
519.002	7834
520.214	7744
521.427	7888
522.638	7836
523.851	7798
525.062	7874
526.274	7892
527.485	7906
528.697	7866
529.907	7840
531.118	7980
532.328	7882
533.539	7866
534.748	7954
535.959	7938
537.168	7954
538.379	7984
539.587	7966
540.796	7990
542.005	7928
543.214	7986
544.423	7970
545.631	8082
546.838	7990
548.047	8026
549.254	8136
550.461	8148
551.669	8008
552.876	8182
554.082	7926
555.29	8056
556.496	8068
557.701	8114
558.909	8242
560.114	8196
561.319	8224
562.524	8148
563.731	8194
564.935	8280
566.14	8350
567.344	8280
568.549	8184
569.753	8346
570.957	8246
572.161	8238
573.364	8362
574.568	8402
575.771	8378
576.974	8424
578.177	8348
579.379	8440
580.581	8516
581.785	8514
582.987	8360
584.188	8498
585.39	8524
586.591	8666
587.792	8456
588.993	8550
590.193	8544
591.394	8572
592.594	8590
593.796	8626
594.996	8552
596.195	8752
597.395	8570
598.594	8706
599.793	8650
600.992	8744
602.191	8746
603.39	8766
604.588	8826
605.786	8770
606.984	8870
608.181	8808
609.378	8992
610.576	8872
611.773	9030
612.97	8962
614.167	8938
615.364	9090
616.56	9088
617.757	9060
618.953	9200
620.149	9134
621.343	9186
622.539	9190
623.734	9236
624.929	9274
626.124	9288
627.319	9246
628.512	9472
629.707	9460
630.901	9332
632.095	9494
633.289	9498
634.481	9462
635.675	9532
636.868	9512
638.061	9662
639.253	9662
640.446	9628
641.638	9702
642.831	9710
644.021	9692
645.213	9686
646.405	9770
647.595	9826
648.787	9690
649.978	9764
651.168	9858
652.359	9904
653.549	9824
654.738	9966
655.929	9912
657.117	9916
658.307	9978
659.497	10074
660.685	10056
661.875	9880
663.063	10094
664.252	10104
665.439	10098
666.628	10200
667.816	10120
669.003	10054
670.191	10164
671.378	10216
672.565	10196
673.751	10316
674.939	10064
676.124	10388
677.311	10294
678.497	10194
679.682	10362
680.868	10374
682.053	10400
683.239	10412
684.424	10376
685.609	10408
686.793	10602
687.977	10408
689.162	10504
690.346	10664
691.529	10542
692.714	10498
693.897	10552
695.081	10590
696.264	10600
697.446	10610
698.63	10726
699.812	10714
700.993	10736
702.175	10926
703.358	10676
704.539	10856
705.72	10782
706.901	10926
708.083	10884
709.264	10948
710.444	11036
711.625	11082
712.806	11146
713.986	11150
715.165	11074
716.345	11228
717.524	11226
718.705	11242
719.884	11300
721.062	11264
722.241	11440
723.419	11406
724.597	11446
725.775	11380
726.954	11614
728.132	11512
729.31	11626
730.487	11600
731.664	11542
732.841	11632
734.017	11536
735.194	11700
736.37	11682
737.546	11728
738.722	11748
739.898	11820
741.074	11926
742.249	11846
743.424	11956
744.599	11938
745.774	11918
746.949	12042
748.123	12068
749.298	12008
750.472	12210
751.646	12132
752.819	12200
753.993	12204
755.166	12204
756.34	12198
757.511	12238
758.684	12366
759.857	12180
761.029	12402
762.202	12394
763.374	12420
764.546	12342
765.716	12676
766.888	12402
768.059	12566
769.23	12504
770.401	12638
771.571	12726
772.741	12726
773.912	12880
775.082	12522
776.251	12904
777.421	12774
778.59	12886
779.76	12866
780.928	12918
782.097	12928
783.266	13066
784.434	13044
785.602	13214
786.771	13036
787.938	13168
789.106	13240
790.274	13122
791.44	13194
792.608	13158
793.775	13354
794.941	13444
796.108	13552
797.273	13482
798.44	13402
799.606	13348
800.771	13578
801.937	13530
803.102	13578
804.268	13708
805.432	13550
806.597	13760
807.761	13830
808.926	13770
810.09	14026
811.254	13960
812.417	13990
813.582	14150
814.744	14162
815.908	14284
817.071	14294
818.234	14248
819.396	14352
820.558	14300
821.721	14500
822.883	14474
824.045	14510
825.206	14508
826.367	14508
827.529	14664
828.69	14712
829.85	14778
831.012	14760
832.172	14858
833.332	14790
834.493	14972
835.653	14784
836.812	15104
837.972	15134
839.131	15278
840.29	15200
841.449	15424
842.609	15218
843.767	15318
844.925	15344
846.083	15330
847.242	15596
848.399	15650
849.557	15456
850.714	15786
851.871	15736
853.029	15732
854.186	15800
855.342	15962
856.498	15920
857.654	15928
858.81	15982
859.966	16138
861.122	16040
862.278	16036
863.434	16152
864.589	16234
865.744	16338
866.898	16250
868.053	16384
869.207	16434
870.361	16576
871.515	16476
872.669	16376
873.822	16504
874.976	16650
876.129	16624
877.282	16554
878.435	16648
879.588	16866
880.74	16848
881.893	16842
883.045	16918
884.197	16862
885.349	16904
886.5	17042
887.652	16998
888.802	17204
889.953	17192
891.104	17094
892.254	17234
893.405	17122
894.555	17254
895.706	17400
896.854	17202
898.004	17420
899.154	17364
900.303	17590
901.453	17470
902.6	17472
903.749	17564
904.898	17554
906.047	17696
907.194	17666
908.342	17698
909.49	17806
910.638	17836
911.785	17832
912.932	17864
914.08	17896
915.225	17976
916.372	18052
917.519	18294
918.666	18130
919.811	18152
920.957	18346
922.102	18270
923.248	18380
924.394	18508
925.538	18480
926.684	18464
927.828	18564
928.973	18552
930.118	18694
931.261	18606
932.406	18816
933.549	18758
934.693	19004
935.836	18682
936.979	18860
938.122	19074
939.265	19122
940.407	19220
941.55	19290
942.692	19126
943.835	19302
944.976	19106
946.118	19396
947.259	19504
948.401	19556
949.542	19636
950.682	19886
951.824	19720
952.964	19768
954.105	19912
955.245	19886
956.385	19784
957.525	20022
958.664	19948
959.803	20138
960.944	20152
962.082	20240
963.221	20296
964.36	20442
965.498	20504
966.636	20624
967.774	20622
968.913	20688
970.051	20606
971.188	20763
972.325	20920
973.463	20640
974.6	20884
975.736	21014
976.873	20956
978.009	20702
979.146	21060
980.282	20970
981.418	21114
982.554	21258
983.689	21124
984.824	21040
985.959	21224
987.095	21368
988.23	21310
989.364	21432
990.499	21282
991.633	21420
992.767	21528
993.9	21414
995.034	21504
996.167	21584
997.301	21600
998.434	21760
999.567	21714
1000.7	21816
1001.83	21810
1002.96	21928
1004.1	21974
1005.23	22074
1006.36	22042
1007.49	22042
1008.62	22084
1009.76	22138
1010.89	22112
1012.02	22276
1013.15	22402
1014.28	22348
1015.41	22498
1016.54	22400
1017.67	22422
1018.8	22492
1019.93	22548
1021.06	22724
1022.19	22470
1023.32	22724
1024.44	22774
1025.57	22926
1026.7	22842
1027.83	22922
1028.96	23068
1030.09	23130
1031.21	23128
1032.34	23104
1033.47	23212
1034.6	23304
1035.72	23292
1036.85	23474
1037.98	23458
1039.1	23704
1040.23	23700
1041.35	23706
1042.48	23730
1043.61	23958
1044.73	23948
1045.86	23848
1046.98	23944
1048.11	24066
1049.23	24034
1050.36	23954
1051.48	24116
1052.61	24120
1053.73	24202
1054.85	24344
1055.98	24388
1057.1	24558
1058.22	24236
1059.35	24552
1060.47	24320
1061.59	24510
1062.72	24456
1063.84	24674
1064.96	24550
1066.08	24608
1067.2	24722
1068.33	24614
1069.45	24802
1070.57	24668
1071.69	24732
1072.81	24778
1073.93	25106
1075.05	24788
1076.17	24830
1077.29	25022
1078.41	24796
1079.53	24932
1080.65	24850
1081.77	24858
1082.89	25008
1084.01	24966
1085.13	24958
1086.25	25038
1087.37	25028
1088.48	24972
1089.6	24904
1090.72	25036
1091.84	24952
1092.96	24946
1094.07	25102
1095.19	25062
1096.31	24952
1097.43	25014
1098.54	25066
1099.66	24894
1100.78	24962
1101.89	25006
1103.01	25010
1104.12	25064
1105.24	24758
1106.35	25204
1107.47	25028
1108.59	25046
1109.7	25062
1110.81	25028
1111.93	25142
1113.04	24948
1114.16	25000
1115.27	25298
1116.39	25100
1117.5	25238
1118.61	25116
1119.73	25162
1120.84	25272
1121.95	25232
1123.06	25430
1124.18	25116
1125.29	25156
1126.4	25274
1127.51	25148
1128.63	25320
1129.74	25484
1130.85	25416
1131.96	25536
1133.07	25286
1134.18	25502
1135.29	25310
1136.4	25410
1137.51	25516
1138.62	25348
1139.73	25506
1140.84	25348
1141.95	25374
1143.06	25594
1144.17	25394
1145.28	25552
1146.39	25528
1147.5	25640
1148.61	25544
1149.72	25492
1150.82	25720
1151.93	25640
1153.04	25646
1154.15	25718
1155.26	25692
1156.36	25706
1157.47	25644
1158.58	25550
1159.68	25494
1160.79	25516
1161.9	25648
1163	25494
1164.11	25542
1165.22	25680
1166.32	25650
1167.43	25700
1168.53	25622
1169.64	25352
1170.74	25490
1171.85	25464
1172.95	25366
1174.06	25538
1175.16	25324
1176.26	25434
1177.37	25472
1178.47	25450
1179.58	25496
1180.68	25674
1181.78	25286
1182.88	25334
1183.99	25336
1185.09	25164
1186.19	25108
1187.3	25090
1188.4	25216
1189.5	25148
1190.6	24906
1191.7	24952
1192.8	24802
1193.9	24972
1195.01	24828
1196.11	24653.1
1197.21	24906.5
1198.31	24759.2
1199.41	24689.5
1200.51	24557.9
1201.61	24442.6
1202.71	24543.4
1203.81	24278.1
1204.91	24371.6
1206.01	24322.9
1207.11	24374.8
1208.2	24375.2
1209.3	24400.5
1210.4	24211.3
1211.5	24121.5
1212.6	24145
1213.7	23980
1214.8	24101.8
1215.89	23899.9
1216.99	23892.2
1218.09	23943.6
1219.18	23979.7
1220.28	23762.3
1221.38	23620.8
1222.48	23684.2
1223.57	23593.2
1224.67	23687.1
1225.76	23680
1226.86	23525.5
1227.96	23609.8
1229.05	23478.7
1230.15	23383.6
1231.24	23460.3
1232.34	23502.6
1233.43	23311.3
1234.53	23419.7
1235.62	23252.7
1236.71	23331.5
1237.81	23255.4
1238.9	23186.2
1240	23104.1
1241.09	23164.9
1242.18	23186.8
1243.28	23173.8
1244.37	23030
1245.46	23015.1
1246.56	22988.8
1247.65	22783.4
1248.74	22833.3
1249.83	22880.9
1250.93	22889.5
1252.02	22769.8
1253.11	22810.3
1254.2	22689.7
1255.29	22651.2
1256.38	22709.8
1257.47	22662.4
1258.56	22463.9
1259.65	22579
1260.74	22515.3
1261.84	22436.6
1262.92	22460
1264.01	22417.8
1265.1	22325
1266.19	22308.9
1267.28	22282.5
1268.37	22298.6
1269.46	22391
1270.55	22185.8
1271.64	22143.2
1272.73	22048
1273.82	22162.2
1274.9	22103.8
1275.99	22078.3
1277.08	22045.5
1278.17	21941.8
1279.26	21874.4
1280.34	21856.9
1281.43	21816.9
1282.52	21761.8
1283.6	21748
1284.69	21792.9
1285.78	21680.7
1286.86	21708.7
1287.95	21548.2
1289.03	21514.9
1290.12	21455.9
1291.21	21541.5
1292.29	21533.1
1293.38	21365.8
1294.46	21451
1295.55	21212.2
1296.63	21276.9
1297.71	21181.4
1298.8	21063.9
1299.88	21003.5
1300.97	21140.7
1302.05	20961.9
1303.13	20941.2
1304.22	20869.9
1305.3	20819.3
1306.38	20809.1
1307.34	20794
1308.43	20604
1309.52	20634
1310.61	20616
1311.7	20562
1312.78	20470
1313.87	20324
1314.96	20432
1316.05	20314
1317.13	20292
1318.22	20210
1319.3	20130
1320.39	20062
1321.48	20016
1322.56	20026
1323.65	19974
1324.73	19998
1325.82	19914
1326.9	19694
1327.99	19650
1329.07	19548
1330.16	19584
1331.24	19506
1332.33	19562
1333.41	19284
1334.5	19500
1335.58	19324
1336.66	19324
1337.75	19222
1338.83	19148
1339.91	19020
1341	19008
1342.08	18936
1343.16	19028
1344.25	18830
1345.33	18656
1346.41	18610
1347.49	18686
1348.57	18620
1349.65	18548
1350.74	18470
1351.82	18486
1352.9	18476
1353.98	18364
1355.06	18382
1356.14	18292
1357.22	18346
1358.3	18394
1359.38	18208
1360.46	18158
1361.54	18272
1362.62	18150
1363.7	18164
1364.78	18074
1365.86	17820
1366.94	17864
1368.02	17958
1369.09	17854
1370.17	17654
1371.25	17596
1372.33	17562
1373.41	17626
1374.48	17700
1375.56	17702
1376.64	17382
1377.72	17460
1378.79	17374
1379.87	17240
1380.95	17402
1382.02	17150
1383.1	17376
1384.17	17202
1385.25	17112
1386.33	17260
1387.4	17090
1388.48	17052
1389.55	16916
1390.63	17044
1391.7	16864
1392.78	17058
1393.85	16818
1394.93	16840
1396	16732
1397.07	16776
1398.15	16722
1399.22	16834
1400.3	16528
1401.37	16620
1402.44	16524
1403.52	16398
1404.59	16484
1405.66	16368
1406.73	16570
1407.81	16420
1408.88	16208
1409.95	16270
1411.02	16116
1412.09	16340
1413.17	16180
1414.24	16098
1415.31	16162
1416.38	16214
1417.45	16092
1418.52	16018
1419.59	16068
1420.66	15862
1421.73	15814
1422.8	15968
1423.87	15896
1424.94	15818
1426.01	15826
1427.08	15624
1428.15	15770
1429.22	15730
1430.29	15538
1431.35	15588
1432.42	15686
1433.49	15652
1434.56	15504
1435.63	15596
1436.7	15610
1437.76	15462
1438.83	15440
1439.9	15390
1440.96	15388
1442.03	15406
1443.1	15172
1444.17	15308
1445.23	15146
1446.3	15250
1447.36	15196
1448.43	15218
1449.49	15168
1450.56	15190
1451.63	15130
1452.69	15164
1453.76	15072
1454.82	15060
1455.89	15196
1456.95	15012
1458.01	14962
1459.08	14778
1460.14	14970
1461.21	14928
1462.27	15060
1463.34	15038
1464.4	14908
1465.46	14934
1466.52	14788
1467.59	14802
1468.65	14822
1469.71	14750
1470.77	14674
1471.84	14678
1472.9	14736
1473.96	14714
1475.02	14672
1476.08	14772
1477.15	14642
1478.21	14578
1479.27	14474
1480.33	14416
1481.39	14610
1482.45	14448
1483.51	14638
1484.57	14488
1485.63	14574
1486.69	14358
1487.75	14412
1488.81	14418
1489.87	14328
1490.93	14284
1491.99	14372
1493.05	14216
1494.1	14242
1495.16	14186
1496.22	14200
1497.28	14066
1498.34	13982
1499.4	14248
1500.45	14144
1501.51	14172
1502.57	14026
1503.63	14276
1504.68	14156
1505.74	13904
1506.8	14028
1507.85	13938
1508.91	13944
1509.97	13964
1511.02	13838
1512.08	13822
1513.13	13822
1514.19	13776
1515.24	13676
1516.3	13704
1517.35	13660
1518.41	13728
1519.46	13626
1520.52	13542
1521.57	13656
1522.63	13690
1523.68	13600
1524.73	13494
1525.79	13536
1526.84	13534
1527.9	13672
1528.95	13438
1530	13374
1531.06	13480
1532.11	13500
1533.16	13296
1534.21	13436
1535.26	13306
1536.32	13248
1537.37	13208
1538.42	13220
1539.47	13254
1540.52	13310
1541.57	13260
1542.63	13156
1543.68	13166
1544.73	13108
1545.78	13086
1546.83	12998
1547.88	13030
1548.93	13050
1549.98	13032
1551.03	13050
1552.08	12918
1553.13	13056
1554.18	12994
1555.23	12922
1556.27	12882
1557.32	12790
1558.37	12850
1559.42	12866
1560.47	12764
1561.52	12810
1562.56	12630
1563.61	12784
1564.66	12674
1565.71	12666
1566.75	12836
1567.8	12722
1568.85	12650
1569.9	12694
1570.94	12654
1571.99	12642
1573.03	12558
1574.08	12682
1575.13	12620
1576.17	12538
1577.22	12644
1578.26	12632
1579.31	12586
1580.35	12426
1581.4	12492
1582.44	12514
1583.49	12582
1584.53	12624
1585.58	12376
1586.62	12446
1587.66	12482
1588.71	12426
1589.75	12408
1590.8	12322
1591.84	12404
1592.88	12514
1593.93	12402
1594.97	12448
1596.01	12398
1597.05	12424
1598.1	12284
1599.14	12252
1600.18	12352
1601.22	12292
1602.26	12340
1603.31	12290
1604.35	12376
1605.39	12342
1606.43	12150
1607.47	12252
1608.51	12246
1609.55	12174
1610.59	12200
1611.63	12230
1612.67	12362
1613.71	12164
1614.75	12236
1615.79	12070
1616.83	12226
1617.87	12172
1618.91	12130
1619.95	12176
1620.99	12196
1622.02	12176
1623.06	11990
1624.1	12006
1625.14	12080
1626.18	12152
1627.21	12124
1628.25	11986
1629.29	12232
1630.33	12108
1631.36	12104
1632.4	12106
1633.44	11998
1634.48	12020
1635.51	12022
1636.55	11990
1637.58	12066
1638.62	11948
1639.66	11930
1640.69	11918
1641.73	11932
1642.76	11978
1643.8	11890
1644.83	11922
1645.87	11918
1646.9	11904
1647.94	11856
1648.97	11880
1650	11868
1651.04	11968
1652.07	11758
1653.11	11708
1654.14	11968
1655.17	11658
1656.21	11808
1657.24	11640
1658.27	11612
1659.31	11764
1660.34	11720
1661.37	11590
1662.4	11582
1663.43	11642
1664.47	11606
1665.5	11600
1666.53	11532
1667.56	11526
1668.59	11504
1669.62	11382
1670.66	11444
1671.69	11474
1672.72	11430
1673.75	11504
1674.78	11364
1675.81	11416
1676.84	11642
1677.87	11474
1678.9	11368
1679.93	11280
1680.96	11380
1681.98	11320
1683.01	11346
1684.04	11276
1685.07	11298
1686.1	11252
1687.13	11462
1688.16	11176
1689.19	11240
1690.21	11238
1691.24	11252
1692.27	11284
1693.3	11170
1694.32	11030
1695.35	11162
1696.38	11048
1697.4	11124
1698.43	11118
1699.46	11132
1700.48	11048
1701.51	11058
1702.54	11004
1703.56	10948
1704.59	10932
1705.61	11024
1706.64	11016
1707.66	10862
1708.69	10914
1709.71	11090
1710.74	11014
1711.76	10848
1712.79	11012
1713.81	10924
1714.83	10960
1715.86	10842
1716.88	10948
1717.91	10960
1718.93	10844
1719.95	10760
1720.98	10802
1722	10772
1723.02	10864
1724.04	10816
1725.07	10890
1726.09	10864
1727.11	10790
1728.13	10780
1729.15	10674
1730.18	10814
1731.2	10794
1732.22	10746
1733.24	10650
1734.26	10804
1735.28	10766
1736.3	10838
1737.32	10908
1738.34	10786
1739.36	10700
1740.38	10676
1741.4	10596
1742.42	10714
1743.44	10752
1744.46	10594
1745.48	10642
1746.5	10570
1747.52	10620
1748.54	10642
1749.56	10638
1750.58	10620
1751.6	10646
1752.61	10584
1753.63	10518
1754.65	10628
1755.67	10500
1756.68	10604
1757.7	10518
1758.72	10596
1759.74	10490
1760.75	10592
1761.77	10468
1762.79	10500
1763.8	10462
1764.82	10634
1765.84	10486
1766.85	10598
1767.87	10554
1768.88	10454
1769.9	10466
1770.91	10588
1771.93	10464
1772.94	10560
1773.96	10334
1774.97	10456
1775.99	10514
1777	10420
1778.02	10444
1779.03	10364
1780.04	10456
1781.06	10426
1782.07	10510
1783.09	10380
1784.1	10342
1785.11	10458
1786.13	10300
1787.14	10412
1788.15	10300
1789.16	10370
1790.18	10442
1791.19	10400
1792.2	10398
1793.21	10304
1794.22	10376
1795.23	10430
1796.25	10328
1797.26	10304
1798.27	10328
1799.28	10360
1800.29	10286
1801.3	10344
1802.31	10258
1803.32	10222
1804.33	10242
1805.34	10372
1806.35	10288
1807.36	10292
1808.37	10374
1809.38	10210
1810.39	10218
1811.4	10160
1812.41	10216
1813.42	10324
1814.43	10288
1815.43	10046
1816.44	10222
1817.45	10356
1818.46	10256
1819.47	10132
1820.47	10132
1821.48	9964
1822.49	10110
1823.49	10080
1824.5	10082
1825.51	10182
1826.52	10060
1827.52	10040
1828.53	9934
1829.54	9954
1830.54	9980
1831.55	10042
1832.55	10044
1833.56	10034
1834.56	9996
1835.57	9938
1836.57	9900
1837.58	9998
1838.58	9878
1839.59	9878
1840.59	9908
1841.6	9890
1842.6	9906
1843.61	9844
1844.61	9802
1845.61	9820
1846.62	9758
1847.62	9890
1848.62	9852
1849.63	9794
1850.63	9736
1851.63	9708
1852.64	9854
1853.64	9816
1854.64	9744
1855.64	9676
1856.64	9838
1857.65	9714
1858.65	9732
1859.65	9830
1860.65	9836
1861.65	9692
1862.65	9664
1863.65	9770
1864.66	9708
1865.66	9590
1866.66	9578
1867.66	9644
1868.66	9628
1869.66	9644
1870.66	9600
1871.66	9834
1872.66	9746
1873.66	9744
1874.66	9674
1875.65	9596
1876.65	9662
1877.65	9536
1878.65	9690
1879.65	9660
1880.65	9532
1881.65	9670
1882.64	9570
1883.64	9556
1884.64	9556
1885.64	9488
1886.63	9460
1887.63	9520
1888.63	9602
1889.63	9552
1890.62	9530
1891.62	9546
1892.62	9568
1893.61	9614
1894.61	9562
1895.6	9534
1896.6	9544
1897.6	9532
1898.59	9508
1899.59	9522
1900.58	9578
1901.58	9480
1902.57	9526
1903.57	9480
1904.56	9458
1905.56	9380
1906.55	9454
1907.54	9554
1908.54	9474
1909.53	9538
1910.53	9504
1911.52	9494
1912.51	9468
1913.51	9416
1914.5	9384
1915.49	9486
1916.49	9444
1917.48	9400
1918.47	9566
1919.46	9418
1920.46	9430
1921.45	9456
1922.44	9396
1923.43	9428
1924.42	9466
1925.41	9464
1926.41	9542
1927.4	9404
1928.39	9368
1929.38	9428
1930.37	9438
1931.36	9462
1932.35	9324
1933.34	9344
1934.33	9396
1935.32	9340
1936.31	9310
1937.3	9370
1938.29	9446
1939.28	9324
1940.27	9324
1941.26	9358
1942.24	9272
1943.23	9264
1944.22	9300
1945.21	9180
1946.2	9282
1947.19	9216
1948.17	9150
1949.16	9290
1950.15	9219
1951.14	9148
1952.13	9344
1953.11	9204
1954.1	9120
1955.09	9250
1956.07	9310
1957.06	9316
1958.05	9174
1959.03	9132
1960.02	9344
1961	9248
1961.99	9154
1962.98	9176
1963.96	9120
1964.95	9134
1965.93	9192
1966.92	9214
1967.9	9148
1968.89	9168
1969.87	9184
1970.85	9196
1971.84	9204
1972.82	9088
1973.81	9258
1974.79	9054
1975.78	9152
1976.76	9036
1977.74	9086
1978.73	9074
1979.71	9092
1980.69	8938
1981.67	8996
1982.66	9044
1983.64	9198
1984.62	9138
1985.6	9124
1986.59	8970
1987.57	9058
1988.55	9038
1989.53	8846
1990.51	8984
1991.49	9018
1992.47	8898
1993.45	9000
1994.44	8946
1995.42	8994
1996.4	8936
1997.38	8970
1998.36	8934
1999.34	9076
2000.32	9028
2001.3	8918
2002.28	8918
2003.26	8904
2004.24	8990
2005.22	8954
2006.19	8888
2007.17	8912
2008.15	8914
2009.13	8978
2010.11	8960
2011.09	8968
2012.06	8946
2013.04	8958
2014.02	8876
2015	9008
2015.98	8896
2016.95	8864
2017.93	8972
2018.91	8808
2019.88	8852
2020.86	8722
2021.84	8818
2022.81	9006
2023.79	8652
2024.77	8870
2025.74	8828
2026.72	8868
2027.69	8904
2028.67	8886
2029.65	8772
2030.62	8874
2031.6	8908
2032.57	8714
2033.55	8848
2034.52	8792
2035.5	8726
2036.47	8766
2037.44	8942
2038.42	8674
2039.39	8746
2040.36	8798
2041.34	8772
2042.31	8776
2043.29	8694
2044.26	8742
2045.23	8750
2046.2	8706
2047.18	8702
2048.15	8740
2049.12	8770
2050.09	8718
2051.07	8670
2052.04	8740
2053.01	8682
2053.98	8582
2054.95	8786
2055.93	8672
2056.9	8514
2057.87	8672
2058.84	8712
2059.81	8714
2060.78	8632
2061.75	8562
2062.72	8574
2063.69	8624
2064.66	8560
2065.63	8594
2066.6	8466
2067.57	8536
2068.54	8536
2069.51	8698
2070.48	8678
2071.45	8606
2072.42	8464
2073.38	8478
2074.35	8572
2075.32	8446
2076.29	8520
2077.26	8690
2078.23	8542
2079.19	8456
2080.16	8530
2081.13	8362
2082.1	8516
2083.06	8414
2084.03	8586
2085	8526
2085.96	8496
2086.93	8448
2087.9	8442
2088.86	8420
2089.83	8446
2090.8	8552
2091.76	8422
2092.73	8518
2093.69	8472
2094.66	8332
2095.62	8404
2096.59	8420
2097.55	8414
2098.52	8388
2099.48	8428
2100.45	8442
2101.41	8380
2102.38	8570
2103.34	8284
2104.31	8438
2105.27	8390
2106.23	8382
2107.2	8400
2108.16	8290
2109.12	8378
2110.09	8430
2111.05	8446
2112.01	8454
2112.98	8336
2113.94	8336
2114.9	8316
2115.86	8330
2116.82	8296
2117.79	8282
2118.75	8364
2119.71	8298
2120.67	8320
2121.63	8296
2122.59	8380
2123.55	8220
2124.52	8240
2125.48	8328
2126.44	8244
2127.4	8198
2128.36	8378
2129.32	8280
2130.28	8208
2131.24	8344
2132.2	8244
2133.16	8232
2134.12	8222
2135.08	8200
2136.04	8312
2136.99	8120
2137.95	8208
2138.91	8238
2139.87	8264
2140.83	8188
2141.79	8236
2142.75	8234
2143.7	8104
2144.66	8124
2145.62	8131.29
2146.58	8177.29
2147.53	8143.44
2148.49	8145.54
2149.45	8057.18
2150.41	8088.43
2151.36	8167.8
2152.32	8011.7
2153.28	8119.23
2154.23	8045.55
2155.19	7971.97
2156.14	8032.45
2157.1	8005.44
2158.06	8024.94
2159.01	8031.79
2159.97	8044.95
2160.92	8008.23
2161.88	8027.27
2162.83	7963.58
2163.79	7968.85
2164.74	7912.81
2165.7	7924.84
2166.65	7838.06
2167.61	7943.51
2168.56	7910.56
2169.51	7921.34
2170.47	7921.18
2171.42	7908.05
2172.38	7860.37
2173.33	8008.6
2174.28	7870.28
2175.24	7871.72
2176.19	7882.8
2177.14	7874.47
2178.09	7891.89
2179.05	7903.68
2180	7807.73
2180.95	7917.67
2181.9	7903.31
2182.86	7843.63
2183.81	7761.38
2184.76	7823.05
2185.71	7845.16
2186.66	7738.36
2187.61	7776.11
2188.57	7690.12
2189.52	7768.98
2190.47	7804.45
2191.42	7752.95
2192.37	7794.56
2193.32	7809.65
2194.27	7786.03
2195.22	7750.05
2196.17	7738.44
2197.12	7747.46
2198.07	7755.07
2199.02	7707.54
2199.97	7730.53
2200.92	7729.81
2201.87	7676.33
2202.82	7660.69
2203.76	7706.58
2204.71	7740.6
2205.66	7699.1
2206.61	7714.08
2207.56	7727.65
2208.51	7717.75
2209.45	7707.54
2210.4	7663.21
2211.35	7651.85
2212.3	7674.01
2213.25	7716.64
2214.19	7685.4
2215.14	7629.17
2216.09	7610.73
2217.03	7661.63
2217.98	7653.78
2218.93	7648.72
2219.87	7664.75
2220.82	7633.19
2221.77	7698.14
2222.71	7714.72
2223.66	7664
2224.6	7585.71
2225.55	7578.95
2226.49	7654.75
2227.44	7651.73
2228.38	7636.18
2229.33	7690.18
2230.27	7710.5
2231.22	7674.34
2232.16	7697.68
2233.11	7709.82
2234.05	7663.27
2235	7673.28
2235.94	7675.66
2236.88	7673.13
2237.83	7614.22
2238.77	7640.04
2239.72	7695.63
2240.66	7673.69
2241.6	7654.69
2242.07	7658
2243.02	7710
2243.97	7680
2244.92	7656
2245.87	7658
2246.81	7746
2247.76	7576
2248.71	7682
2249.65	7588
2250.6	7614
2251.55	7616
2252.49	7666
2253.44	7648
2254.39	7580
2255.33	7520
2256.28	7626
2257.22	7668
2258.17	7626
2259.12	7606
2260.06	7642
2261.01	7548
2261.95	7652
2262.9	7562
2263.84	7618
2264.78	7482
2265.73	7526
2266.67	7622
2267.62	7588
2268.56	7546
2269.51	7518
2270.45	7476
2271.39	7554
2272.34	7582
2273.28	7566
2274.22	7508
2275.17	7482
2276.11	7456
2277.05	7574
2277.99	7450
2278.94	7544
2279.88	7628
2280.82	7488
2281.76	7566
2282.71	7494
2283.65	7492
2284.59	7538
2285.53	7548
2286.47	7516
2287.41	7460
2288.35	7526
2289.3	7538
2290.24	7412
2291.18	7418
2292.12	7466
2293.06	7374
2294	7396
2294.94	7454
2295.88	7404
2296.82	7378
2297.76	7336
2298.7	7364
2299.64	7414
2300.58	7162
2301.52	7432
2302.46	7366
2303.39	7362
2304.33	7370
2305.27	7320
2306.21	7400
2307.15	7336
2308.09	7242
2309.02	7258
2309.96	7366
2310.9	7424
2311.84	7250
2312.77	7382
2313.71	7370
2314.65	7386
2315.59	7312
2316.52	7202
2317.46	7420
2318.4	7396
2319.33	7184
2320.27	7170
2321.21	7304
2322.14	7146
2323.08	7264
2324.01	7194
2324.95	7208
2325.89	7266
2326.82	7304
2327.76	7264
2328.69	7258
2329.63	7196
2330.56	7208
2331.5	7220
2332.43	7180
2333.36	7202
2334.3	7138
2335.23	7250
2336.17	7150
2337.1	7218
2338.03	7244
2338.97	7258
2339.9	7260
2340.83	7080
2341.77	7212
2342.7	7130
2343.63	7190
2344.57	7168
2345.5	7114
2346.43	7092
2347.36	7184
2348.3	7180
2349.23	7220
2350.16	7136
2351.09	7214
2352.02	7084
2352.95	7116
2353.89	7082
2354.82	7110
2355.75	7116
2356.68	7054
2357.61	7158
2358.54	7168
2359.47	7124
2360.4	7186
2361.33	7120
2362.26	7064
2363.19	7114
2364.12	7132
2365.05	7026
2365.98	7142
2366.91	7012
2367.84	7112
2368.77	7122
2369.7	7124
2370.63	6984
2371.56	7032
2372.48	7068
2373.41	7008
2374.34	7010
2375.27	7004
2376.2	7090
2377.12	6996
2378.05	6986
2378.98	7012
2379.91	7000
2380.84	6970
2381.76	7058
2382.69	6970
2383.62	7008
2384.54	6900
2385.47	6864
2386.4	6950
2387.32	6878
2388.25	7056
2389.18	6886
2390.1	6932
2391.03	6826
2391.95	6826
2392.88	6898
2393.8	6800
2394.73	6894
2395.65	6964
2396.58	6852
2397.5	6836
2398.43	6930
2399.35	6898
2400.28	6964
2401.2	6928
2402.13	6802
2403.05	6920
2403.97	6848
2404.9	6788
2405.82	6892
2406.75	6792
2407.67	6730
2408.59	6834
2409.51	6826
2410.44	6776
2411.36	6822
2412.28	6770
2413.21	6744
2414.13	6770
2415.05	6748
2415.97	6720
2416.9	6790
2417.82	6794
2418.74	6702
2419.66	6760
2420.58	6814
2421.5	6682
2422.42	6754
2423.35	6768
2424.27	6710
2425.19	6740
2426.11	6712
2427.03	6662
2427.95	6738
2428.87	6738
2429.79	6776
2430.71	6644
2431.63	6686
2432.55	6636
2433.47	6656
2434.39	6746
2435.31	6674
2436.23	6666
2437.14	6516
2438.06	6694
2438.98	6654
2439.9	6712
2440.82	6738
2441.74	6546
2442.66	6560
2443.57	6698
2444.49	6652
2445.41	6622
2446.33	6586
2447.24	6556
2448.16	6550
2449.08	6518
2450	6522
2450.91	6608
2451.83	6588
2452.75	6558
2453.66	6584
2454.58	6528
2455.5	6544
2456.41	6522
2457.33	6554
2458.24	6502
2459.16	6480
2460.08	6482
2460.99	6536
2461.91	6516
2462.82	6484
2463.74	6480
2464.65	6462
2465.57	6482
2466.48	6540
2467.4	6412
2468.31	6418
2469.22	6440
2470.14	6314
2471.05	6430
2471.97	6470
2472.88	6424
2473.79	6498
2474.71	6420
2475.62	6330
2476.53	6388
2477.45	6302
2478.36	6296
2479.27	6392
2480.19	6344
2481.1	6362
2482.01	6436
2482.92	6292
2483.83	6314
2484.75	6344
2485.66	6298
2486.57	6362
2487.48	6258
2488.39	6324
2489.3	6372
2490.22	6430
2491.13	6290
2492.04	6322
2492.95	6326
2493.86	6368
2494.77	6320
2495.68	6396
2496.59	6162
2497.5	6178
2498.41	6284
2499.32	6284
2500.23	6300
2501.14	6178
2502.05	6170
2502.96	6210
2503.87	6122
2504.78	6208
2505.68	6160
2506.59	6120
2507.5	6074
2508.41	6086
2509.32	6150
2510.23	6152
2511.14	6196
2512.04	6100
2512.95	6170
2513.86	6186
2514.77	6116
2515.67	6124
2516.58	6126
2517.49	6006
2518.39	6166
2519.3	6110
2520.21	6184
2521.11	6092
2522.02	6072
2522.93	6016
2523.83	6150
2524.74	5984
2525.65	5962
2526.55	6072
2527.46	6056
2528.36	5994
2529.27	6066
2530.17	6058
2531.08	5962
2531.98	6012
2532.89	5996
2533.79	5978
2534.7	5998
2535.6	6022
2536.51	6014
2537.41	5984
2538.32	5980
2539.22	5988
2540.12	5862
2541.03	5966
2541.93	5970
2542.83	5974
2543.74	5952
2544.64	5898
2545.54	5978
2546.45	5878
2547.35	5902
2548.25	5852
2549.15	5860
2550.06	5878
2550.96	5822
2551.86	5850
2552.76	5940
2553.66	5870
2554.56	5830
2555.47	5806
2556.37	5788
2557.27	5904
2558.17	5890
2559.07	5880
2559.97	5854
2560.87	5744
2561.77	5752
2562.67	5842
2563.58	5738
2564.47	5764
2565.38	5784
2566.27	5662
2567.18	5836
2568.07	5780
2568.97	5720
2569.87	5726
2570.77	5762
2571.67	5690
2572.57	5644
2573.47	5678
2574.37	5674
2575.27	5736
2576.17	5808
2577.06	5568
2577.96	5716
2578.86	5602
2579.76	5692
2580.66	5592
2581.55	5624
2582.45	5606
2583.35	5678
2584.25	5738
2585.14	5684
2586.04	5634
2586.94	5602
2587.83	5566
2588.73	5580
2589.63	5568
2590.52	5576
2591.42	5648
2592.32	5604
2593.21	5608
2594.11	5488
2595	5552
2595.9	5576
2596.8	5596
2597.69	5510
2598.59	5580
2599.48	5534
2600.38	5498
2601.27	5524
2602.17	5508
2603.06	5458
2603.95	5528
2604.85	5448
2605.74	5428
2606.64	5532
2607.53	5344
2608.42	5482
2609.32	5424
2610.21	5412
2611.1	5372
2612	5404
2612.89	5456
2613.78	5436
2614.68	5416
2615.57	5458
2616.46	5398
2617.36	5440
2618.25	5416
2619.14	5384
2620.03	5386
2620.92	5410
2621.82	5394
2622.71	5412
2623.6	5402
2624.49	5388
2625.38	5348
2626.27	5302
2627.16	5352
2628.05	5246
2628.95	5350
2629.84	5218
2630.73	5296
2631.62	5346
2632.51	5326
2633.4	5270
2634.29	5250
2635.18	5330
2636.07	5226
2636.96	5326
2637.85	5122
2638.74	5176
2639.62	5138
2640.51	5250
2641.4	5168
2642.29	5164
2643.18	5158
2644.07	5170
2644.96	5102
2645.85	5146
2646.73	5214
2647.62	5256
2648.51	5102
2649.4	5144
2650.28	5162
2651.17	5086
2652.06	5106
2652.95	5158
2653.83	5156
2654.72	5182
2655.61	5048
2656.5	5060
2657.38	5014
2658.27	5098
2659.15	5060
2660.04	5096
2660.93	5042
2661.81	5008
2662.7	5072
2663.58	5038
2664.47	5028
2665.35	5134
2666.24	5086
2667.13	5016
2668.01	4992
2668.9	4960
2669.78	4978
2670.66	5028
2671.55	4932
2672.43	4932
2673.32	4974
2674.2	5014
2675.09	5024
2675.97	5044
2676.85	5050
2677.74	4990
2678.62	4940
2679.5	4998
2680.39	5032
2681.27	4996
2682.15	5010
2683.04	4944
2683.92	4964
2684.8	4952
2685.68	4976
2686.57	4992
2687.45	4944
2688.33	4838
2689.21	4880
2690.09	4886
2690.98	4862
2691.86	4852
2692.74	4788
2693.62	4934
2694.5	4896
2695.38	4842
2696.26	4794
2697.15	4780
2698.03	4898
2698.91	4796
2699.79	4812
2700.67	4822
2701.55	4850
2702.43	4930
2703.31	4804
2704.19	4832
2705.07	4800
2705.95	4768
2706.83	4836
2707.7	4714
2708.58	4798
2709.46	4840
2710.34	4762
2711.22	4804
2712.1	4716
2712.98	4734
2713.86	4764
2714.73	4758
2715.61	4720
2716.49	4710
2717.37	4686
2718.25	4776
2719.12	4664
2720	4694
2720.88	4594
2721.76	4650
2722.63	4732
2723.51	4822
2724.39	4636
2725.26	4612
2726.14	4632
2727.02	4690
2727.89	4582
2728.77	4644
2729.64	4604
2730.52	4552
2731.4	4638
2732.27	4568
2733.15	4626
2734.02	4586
2734.9	4552
2735.77	4646
2736.65	4538
2737.52	4536
2738.4	4558
2739.27	4514
2740.15	4598
2741.02	4548
2741.9	4622
2742.77	4604
2743.64	4516
2744.52	4506
2745.39	4472
2746.27	4484
2747.14	4450
2748.01	4530
2748.89	4520
2749.76	4494
2750.63	4406
2751.51	4420
2752.38	4474
2753.25	4414
2754.12	4440
2755	4482
2755.87	4408
2756.74	4342
2757.61	4438
2758.48	4394
2759.35	4344
2760.23	4342
2761.1	4490
2761.97	4370
2762.84	4402
2763.71	4308
2764.58	4416
2765.45	4368
2766.32	4314
2767.19	4330
2768.07	4402
2768.94	4334
2769.81	4260
2770.68	4304
2771.55	4392
2772.42	4346
2773.29	4282
2774.16	4230
2775.02	4356
2775.89	4288
2776.76	4282
2777.63	4312
2778.5	4226
2779.37	4274
2780.24	4240
2781.11	4268
2781.98	4168
2782.84	4252
2783.71	4184
2784.58	4270
2785.45	4188
2786.32	4272
2787.18	4124
2788.05	4230
2788.92	4230
2789.79	4144
2790.65	4174
2791.52	4090
2792.39	4274
2793.25	4164
2794.12	4130
2794.99	4168
2795.85	4224
2796.72	4152
2797.59	4180
2798.45	4144
2799.32	4162
2800.18	4128
2801.05	4150
2801.92	4230
2802.78	4150
2803.65	4141
2804.51	4132
2805.38	4118
2806.24	4066
2807.11	4140
2807.97	4006
2808.84	4106
2809.7	4082
2810.57	4078
2811.43	4078
2812.29	4066
2813.16	4034
2814.02	3990
2814.88	4056
2815.75	4052
2816.61	4028
2817.47	4000
2818.34	4014
2819.2	4016
2820.06	3992
2820.93	3990
2821.79	3976
2822.65	3904
2823.51	4014
2824.38	3976
2825.24	3988
2826.1	3960
2826.96	3954
2827.82	3926
2828.69	3970
2829.55	4014
2830.41	3932
2831.27	3936
2832.13	3974
2832.99	3934
2833.85	3862
2834.71	3878
2835.57	3928
2836.44	3934
2837.3	3968
2838.16	3920
2839.02	3910
2839.88	3844
2840.74	3822
2841.6	3844
2842.46	3810
2843.32	3842
2844.18	3802
2845.03	3722
2845.89	3828
2846.75	3868
2847.61	3860
2848.47	3830
2849.33	3782
2850.19	3770
2851.05	3794
2851.9	3670
2852.76	3742
2853.62	3748
2854.48	3796
2855.34	3828
2856.19	3716
2857.05	3714
2857.91	3714
2858.77	3700
2859.62	3770
2860.48	3758
2861.34	3736
2862.19	3738
2863.05	3750
2863.91	3610
2864.76	3660
2865.62	3722
2866.48	3714
2867.33	3678
2868.19	3710
2869.04	3696
2869.9	3660
2870.76	3622
2871.61	3636
2872.47	3638
2873.32	3622
2874.18	3674
2875.03	3660
2875.89	3640
2876.74	3606
2877.6	3634
2878.45	3594
2879.31	3546
2880.16	3554
2881.01	3560
2881.87	3600
2882.72	3534
2883.58	3596
2884.43	3586
2885.28	3566
2886.14	3564
2886.99	3530
2887.84	3568
2888.7	3460
2889.55	3550
2890.4	3574
2891.25	3476
2892.11	3530
2892.96	3478
2893.81	3540
2894.66	3490
2895.52	3530
2896.37	3528
2897.22	3476
2898.07	3520
2898.92	3464
2899.77	3402
2900.62	3496
2901.48	3536
2902.33	3454
2903.18	3476
2904.03	3450
2904.88	3492
2905.73	3476
2906.58	3468
2907.43	3434
2908.28	3464
2909.13	3482
2909.98	3434
2910.83	3440
2911.68	3452
2912.53	3418
2913.38	3488
2914.23	3400
2915.08	3434
2915.93	3406
2916.78	3416
2917.63	3420
2918.47	3398
2919.32	3462
2920.17	3436
2921.02	3376
2921.87	3406
2922.72	3420
2923.56	3386
2924.41	3372
2925.26	3458
2926.11	3398
2926.95	3358
2927.8	3370
2928.65	3310
2929.5	3398
2930.34	3324
2931.19	3436
2932.04	3368
2932.88	3352
2933.73	3288
2934.58	3324
2935.42	3344
2936.27	3336
2937.11	3284
2937.96	3276
2938.81	3290
2939.65	3310
2940.5	3348
2941.34	3322
2942.19	3270
2943.03	3302
2943.88	3294
2944.72	3372
2945.57	3260
2946.41	3314
2947.26	3304
2948.1	3274
2948.95	3322
2949.79	3248
2950.64	3236
2951.48	3274
2952.32	3246
2953.17	3162
2954.01	3254
2954.85	3274
2955.7	3236
2956.54	3286
2957.38	3244
2958.23	3218
2959.07	3250
2959.91	3258
2960.75	3220
2961.6	3166
2962.44	3242
2963.28	3200
2964.12	3248
2964.97	3202
2965.81	3216
2966.65	3136
2967.49	3166
2968.33	3174
2969.17	3130
2970.02	3164
2970.86	3058
2971.7	3068
2972.54	3144
2973.38	3136
2974.22	3068
2975.06	3138
2975.9	3154
2976.74	3190
2977.58	3122
2978.42	3062
2979.26	3118
2980.1	3130
2980.94	3134
2981.78	3056
2982.62	3076
2983.46	3080
2984.3	3094
2985.14	3136
2985.98	3062
2986.82	3050
2987.66	3072
2988.49	3078
2989.33	3042
2990.17	3044
2991.01	3034
2991.85	3024
2992.69	3000
2993.52	3058
2994.36	3048
2995.2	3086
2996.04	2996
2996.87	3030
2997.71	2998
2998.55	3018
2999.39	2938
