#Acq. time (s)=	25
#Accumulations=	3
#Range (cm-¹)=	100...4000
#Windows=	3
#Autofocus=	Off
#AutoExposure=	Off
#Spike filter=	Multiple accum.
#Delay time (s)=	0
#Binning=	1
#Readout mode=	Signal
#DeNoise=	Off
#ICS correction=	Off
#Dark correction=	Off
#Inst. Process=	Off
#Instrument=	LabRAM HR Evol
#Detector=	Syncerity OE
#Objective=	x100_VIS
#Grating=	600 (500nm)
#ND Filter=	100%
#Laser=	532nm_Edge
#Hole=	150.001
#Range=	Visible
#Project=	Omar
#Sample=	
#Site=	27-04-23
#Title=	roy_mg
#Remark=	
#Date=	27.04.2023 16:34
#Acquired=	27.04.2023 16:34:43
101.48	436
103.316	504.936
105.149	551.872
106.984	555.807
108.817	493.743
110.651	442.679
112.483	443.615
114.315	457.551
116.148	487.487
117.979	474.422
119.811	465.358
121.641	474.294
123.471	475.23
125.302	468.166
127.131	444.101
128.96	435.037
130.79	420.973
132.618	414.909
134.448	425.845
136.275	436.781
138.102	488.716
139.93	449.652
141.757	440.588
143.582	430.524
145.41	414.46
147.235	431.395
149.059	424.331
150.884	438.267
152.71	419.203
154.533	464.139
156.357	439.075
158.182	412.01
160.004	424.946
161.826	423.882
163.648	423.818
165.472	405.754
167.293	426.689
169.114	429.625
170.934	442.561
172.754	415.497
174.576	415.433
176.395	402.369
178.214	403.304
180.033	411.24
181.851	407.176
183.671	421.112
185.489	432.048
187.306	419.983
189.123	417.919
190.939	418.855
192.755	414.791
194.573	419.727
196.389	434.663
198.204	430.598
200.018	426.534
201.833	454.47
203.647	440.406
205.46	428.342
207.274	432.277
209.087	441.213
210.899	446.149
212.714	446.085
214.525	441.021
216.337	450.957
218.148	435.892
219.959	431.828
221.769	435.764
223.58	437.7
225.389	449.636
227.199	407.571
229.008	415.507
230.816	425.443
232.625	438.379
234.433	445.315
236.24	433.251
238.048	439.186
239.855	436.122
241.661	442.058
243.468	451.994
245.273	429.93
247.079	437.865
248.884	436.801
250.689	451.737
252.493	430.673
254.295	442.609
256.099	424.545
257.903	423.48
259.706	456.416
261.509	430.352
263.311	431.288
265.113	453.224
266.915	425.159
268.716	440.095
270.515	440.031
272.315	420.967
274.116	442.903
275.916	433.839
277.715	419.774
279.514	446.71
281.313	423.646
283.11	443.582
284.908	449.518
286.706	412.453
288.503	428.389
290.3	431.325
292.095	431.261
293.891	415.197
295.688	415.133
297.483	417.068
299.277	422.004
301.072	405.94
302.866	404.876
304.661	413.812
306.453	409.747
308.246	405.683
310.039	410.619
311.832	412.555
313.623	394.491
315.415	416.427
317.207	401.362
318.997	389.298
320.788	408.234
322.579	399.17
324.367	377.106
326.157	363.041
327.947	351.977
329.734	325.913
331.524	338.849
333.312	355.785
335.099	345.721
336.887	348.656
338.673	342.592
340.46	336.528
342.247	324.464
344.032	336.4
345.818	329.335
347.602	323.271
349.388	321.207
351.173	327.143
352.956	338.079
354.74	329.015
356.523	317.95
358.307	314.886
360.088	318.822
361.871	323.758
363.652	303.694
365.435	306.629
367.215	294.565
368.997	311.501
370.776	312.437
372.557	316.373
374.336	320.309
376.117	312.244
377.895	320.18
379.675	316.116
381.452	313.052
383.231	314.988
385.008	307.923
386.786	297.859
388.562	323.795
390.338	298.731
392.115	310.667
393.89	294.603
395.667	312.538
397.441	305.474
399.215	315.41
400.991	313.346
402.764	310.282
404.537	317.217
406.312	323.153
408.084	308.089
409.858	308.025
411.63	314.961
413.401	294.897
415.174	303.832
416.944	298.768
418.715	316.704
420.485	286.64
422.256	295.576
424.025	304.511
425.794	295.447
427.565	305.383
429.333	299.319
431.101	299.255
432.868	299.191
434.637	290.126
436.404	288.062
438.171	297.998
439.937	300.934
441.705	303.87
443.47	306.805
445.235	291.741
447	306.677
448.764	322.613
450.53	288.549
452.294	302.485
454.058	305.42
455.821	305.356
457.583	311.292
459.346	308.228
461.11	293.164
462.872	301.099
464.633	309.035
466.394	315.971
468.155	312.907
469.915	304.843
471.675	299.779
473.435	309.714
475.196	319.65
476.955	319.586
478.714	298.522
480.472	307.458
482.23	320.393
483.988	302.329
485.745	320.265
487.502	325.201
489.259	300.137
491.015	312.073
492.771	314.008
494.527	300.944
496.282	301.88
498.037	306.816
499.791	289.752
501.546	285.687
503.3	285.623
505.053	297.559
506.807	290.495
508.56	301.431
510.312	271.367
512.064	289.302
513.816	295.238
515.568	309.174
517.319	287.11
519.07	285.046
520.821	282.981
522.569	278.917
524.319	288.853
526.068	287.789
527.818	287.725
529.567	283.661
531.315	292.596
533.063	292.532
534.811	299.468
536.557	290.404
538.304	306.34
540.051	299.275
541.798	307.211
543.544	321.147
545.29	305.083
547.033	306.019
548.778	329.955
550.523	331.89
552.268	323.826
554.012	325.762
555.754	332.698
557.498	314.634
559.241	317.569
560.984	329.505
562.724	340.441
564.466	331.377
566.208	334.313
567.95	333.249
569.689	329.184
571.43	346.12
573.171	348.056
574.909	328.992
576.649	354.928
578.388	324.863
580.126	352.799
581.864	365.735
583.603	354.671
585.339	355.607
587.077	360.543
588.815	363.478
590.55	364.414
592.287	358.35
594.023	364.286
595.758	366.222
597.494	360.157
599.227	342.093
600.962	362.029
602.697	379.965
604.43	367.901
606.164	379.837
607.896	365.772
609.63	364.708
611.361	379.644
613.094	380.58
614.825	379.516
616.557	377.451
618.287	385.387
620.018	377.323
621.748	377.259
623.479	395.195
625.207	388.131
626.938	378.066
628.666	389.002
630.395	375.938
632.123	389.874
633.852	395.81
635.578	398.745
637.307	401.681
639.033	395.617
640.76	399.553
642.486	400.489
644.211	392.425
645.937	366.36
647.662	410.296
649.388	376.232
651.111	389.168
652.835	384.104
654.56	412.039
656.283	391.975
658.005	406.911
659.729	404.847
661.451	395.783
663.172	402.719
664.895	396.654
666.616	391.59
668.336	376.526
670.059	384.462
671.778	384.398
673.498	394.333
675.219	387.269
676.938	379.205
678.656	407.141
680.374	392.077
682.094	381.013
683.812	391.948
685.529	384.884
687.246	401.82
688.964	382.756
690.68	390.692
692.396	386.627
694.112	383.563
695.827	411.499
697.544	386.435
699.258	397.371
700.973	380.307
702.687	395.242
704.4	404.178
706.115	395.114
707.828	384.05
709.541	401.986
711.253	379.921
712.965	399.857
714.677	393.793
716.388	392.729
718.099	390.665
719.81	390.601
721.522	382.536
723.232	386.472
724.942	415.408
726.651	393.344
728.36	387.28
730.069	395.215
731.777	387.151
733.486	395.087
735.193	393.023
736.901	380.959
738.608	392.895
740.315	368.83
742.021	388.766
743.727	408.702
745.433	404.638
747.139	394.574
748.844	408.509
750.549	396.445
752.253	402.381
753.957	409.317
755.661	383.253
757.365	410.189
759.068	406.124
760.771	412.06
762.474	382.996
764.174	395.932
765.876	386.868
767.577	393.803
769.279	402.739
770.98	421.675
772.68	410.611
774.381	395.547
776.081	402.483
777.779	419.418
779.478	412.354
781.177	402.29
782.876	423.226
784.574	401.162
786.272	407.097
787.968	405.033
789.666	402.969
791.363	405.905
793.06	400.841
794.754	402.777
796.45	393.712
798.146	407.648
799.842	408.584
801.537	410.52
803.23	404.456
804.924	408.391
806.619	397.327
808.311	403.263
810.004	410.199
811.698	406.135
813.391	395.071
815.081	412.006
816.774	391.942
818.466	425.878
820.156	400.814
821.847	403.75
823.538	401.685
825.227	388.621
826.917	414.557
828.605	391.493
830.295	404.429
831.985	410.365
833.672	391.3
835.361	399.236
837.047	411.172
838.736	381.108
840.424	376.044
842.109	375.979
843.797	388.915
845.482	390.851
847.168	373.787
848.853	383.723
850.539	367.659
852.222	370.594
853.908	382.53
855.591	355.466
857.275	354.402
858.958	365.338
860.642	357.273
862.324	362.209
864.007	364.145
865.689	367.081
867.371	358.017
869.052	368.953
870.734	362.888
872.414	358.824
874.096	358.76
875.775	352.696
877.454	362.632
879.135	365.567
880.813	329.503
882.493	347.439
884.171	354.375
885.848	362.311
887.527	352.247
889.204	369.182
890.881	362.118
892.559	337.054
894.235	352.99
895.91	349.926
897.587	346.861
899.262	356.797
900.937	370.733
902.613	354.669
904.287	336.605
905.961	358.541
907.634	339.476
909.309	324.412
910.982	348.348
912.654	346.284
914.326	342.22
916	326.155
917.671	349.091
919.343	330.027
921.013	341.963
922.686	341.899
924.356	319.835
926.026	327.77
927.696	325.706
929.365	326.642
931.034	327.578
932.704	325.514
934.373	299.449
936.041	326.385
937.708	307.321
939.376	296.257
941.043	310.193
942.71	308.129
944.378	293.064
946.044	300
947.71	296.936
949.376	301.872
951.041	313.808
952.706	306.743
954.371	303.679
956.035	305.615
957.699	303.551
959.362	289.487
961.026	305.423
962.689	303.358
964.352	307.294
966.014	297.23
967.676	313.166
969.338	295.102
971	293.037
972.661	301.973
974.322	304.909
975.982	290.845
977.642	319.781
979.302	296.717
980.962	313.652
982.621	303.588
984.28	294.524
985.939	308.46
987.598	301.396
989.254	300.331
990.912	292.267
992.569	303.203
994.226	300.139
995.883	299.075
997.54	312.011
999.196	291.946
1000.85	305.882
1002.51	288.818
1004.16	312.754
1005.82	315.69
1007.47	302.625
1009.13	292.561
1010.78	303.497
1012.43	302.433
1014.08	309.369
1015.74	296.305
1017.39	298.24
1019.04	307.176
1020.69	290.112
1022.35	292.048
1024	295.984
1025.65	304.919
1027.3	305.855
1028.95	289.791
1030.6	313.727
1032.25	294.663
1033.9	286.599
1035.55	302.534
1037.19	285.47
1038.84	278.406
1040.49	303.342
1042.14	301.278
1043.79	294.213
1045.43	295.149
1047.08	287.085
1048.73	287.021
1050.37	292.957
1052.02	304.893
1053.66	290.828
1055.31	308.764
1056.95	302.7
1058.6	273.636
1060.24	304.572
1061.88	300.507
1063.53	293.443
1065.17	305.379
1066.81	289.315
1068.46	285.251
1070.1	310.187
1071.74	295.122
1073.38	288.058
1075.02	279.994
1076.66	276.93
1078.3	281.866
1079.94	292.801
1081.58	283.737
1083.22	287.673
1084.86	273.609
1086.5	277.545
1088.14	287.481
1089.78	279.416
1091.42	288.352
1093.06	290.288
1094.69	282.224
1096.33	279.16
1097.97	282.095
1099.6	283.031
1101.24	282.967
1102.87	278.903
1104.51	286.839
1106.15	261.775
1107.78	270.71
1109.41	269.646
1111.05	273.582
1112.68	295.518
1114.32	283.454
1115.95	281.389
1117.58	267.325
1119.21	290.261
1120.85	278.197
1122.48	281.133
1124.11	292.069
1125.74	284.004
1127.37	282.94
1129	288.876
1130.63	272.812
1132.26	268.748
1133.89	283.683
1135.52	286.619
1137.15	265.555
1138.78	287.491
1140.41	278.427
1142.04	280.363
1143.67	289.298
1145.29	271.234
1146.92	276.17
1148.55	287.106
1150.17	301.042
1151.8	272.977
1153.43	295.913
1155.05	283.849
1156.68	276.785
1158.3	279.721
1159.93	269.657
1161.55	270.592
1163.18	286.528
1164.8	287.464
1166.42	285.4
1168.05	286.336
1169.67	289.271
1171.29	296.207
1172.91	289.143
1174.54	288.079
1176.16	289.015
1177.78	291.951
1179.4	295.886
1181.02	296.822
1182.64	285.758
1184.26	270.694
1185.88	271.63
1187.5	292.565
1189.12	290.501
1190.74	289.437
1192.36	279.373
1193.97	286.309
1195.59	277.245
1197.21	275.18
1198.83	292.116
1200.44	293.052
1202.06	290.988
1203.68	290.924
1205.29	294.859
1206.91	290.795
1208.52	287.731
1210.14	307.667
1211.75	287.603
1213.37	286.539
1214.98	288.474
1216.59	299.41
1218.21	290.346
1219.82	289.282
1221.43	291.218
1223.05	293.153
1224.66	296.089
1226.27	300.025
1227.88	281.961
1229.49	302.897
1231.1	297.833
1232.72	289.768
1234.33	279.704
1235.94	288.64
1237.55	290.576
1239.16	278.512
1240.76	284.447
1242.37	289.383
1243.98	279.319
1245.59	301.255
1247.2	283.191
1248.81	293.127
1250.41	304.062
1252.02	303.998
1253.63	298.934
1255.23	311.87
1256.84	286.806
1258.44	289.741
1260.05	299.677
1261.66	305.613
1263.26	313.549
1264.86	298.485
1266.47	302.421
1268.07	311.356
1269.67	305.292
1271.28	300.228
1272.88	297.164
1274.48	301.1
1276.09	327.035
1277.69	309.971
1279.29	299.907
1280.89	303.843
1282.49	320.779
1284.09	297.715
1285.69	324.65
1287.29	308.586
1288.89	311.522
1290.49	313.458
1292.09	325.394
1293.69	294.329
1295.29	299.265
1296.89	297.201
1298.49	303.137
1300.08	314.073
1301.68	313.009
1303.28	308.944
1304.87	311.88
1306.47	314.816
1308.07	291.752
1309.66	318.688
1311.26	291.623
1312.85	303.559
1314.45	325.495
1316.04	318.431
1317.64	315.367
1319.23	312.303
1320.83	318.238
1322.42	316.174
1324.01	325.11
1325.61	327.046
1327.2	316.982
1328.79	331.917
1330.38	325.853
1331.97	324.289
1333.56	322.725
1335.15	310.661
1336.75	321.597
1338.34	321.532
1339.93	309.468
1341.52	331.404
1343.11	324.34
1344.69	325.276
1346.28	317.211
1347.87	323.147
1349.46	322.083
1351.05	322.019
1352.64	310.955
1354.22	314.891
1355.81	316.826
1357.4	309.762
1358.98	320.698
1360.57	313.634
1362.15	313.57
1363.74	313.505
1365.32	320.441
1366.91	326.377
1368.5	326.313
1370.08	332.249
1371.66	305.185
1373.25	312.12
1374.83	314.056
1376.41	325.992
1377.99	301.928
1379.58	319.864
1381.16	317.799
1382.74	315.735
1384.32	322.671
1385.9	321.607
1387.49	311.543
1389.07	326.479
1390.65	318.414
1392.23	307.35
1393.81	332.286
1395.39	318.222
1396.97	328.158
1398.54	321.093
1400.12	315.029
1401.7	330.965
1403.28	340.901
1404.86	329.837
1406.43	326.773
1408.01	334.708
1409.59	332.644
1411.16	323.58
1412.74	316.516
1414.32	323.452
1415.89	318.387
1417.47	336.323
1419.04	323.259
1420.62	323.195
1422.19	341.131
1423.76	322.067
1425.34	316.002
1426.91	326.938
1428.48	324.874
1430.06	325.81
1431.63	338.746
1433.2	314.681
1434.77	329.617
1436.35	321.553
1437.92	340.489
1439.49	334.425
1441.06	328.361
1442.63	335.296
1444.2	330.232
1445.77	331.168
1447.34	332.104
1448.91	331.04
1450.47	345.975
1452.04	336.911
1453.61	340.847
1455.18	328.783
1456.75	321.719
1458.31	331.655
1459.88	344.59
1461.45	325.526
1463.02	340.462
1464.58	327.398
1466.15	316.334
1467.71	328.269
1469.28	326.205
1470.84	339.141
1472.41	329.077
1473.97	327.013
1475.54	334.949
1477.1	323.884
1478.66	348.82
1480.23	334.756
1481.79	307.692
1483.35	341.628
1484.91	325.563
1486.48	348.499
1488.04	331.435
1489.6	341.371
1491.16	344.307
1492.72	346.243
1494.28	330.178
1495.84	330.114
1497.4	343.05
1498.96	348.986
1500.52	349.922
1502.08	329.857
1503.64	340.793
1505.2	325.729
1506.76	331.665
1508.31	331.601
1509.87	339.537
1511.43	337.472
1512.99	347.408
1514.54	354.344
1516.1	351.28
1517.65	350.216
1519.21	365.151
1520.77	339.087
1522.32	358.023
1523.88	356.959
1525.43	348.895
1526.99	337.831
1528.54	340.766
1530.09	348.702
1531.65	357.638
1533.2	347.574
1534.75	365.51
1536.3	357.445
1537.86	366.381
1539.41	361.317
1540.96	365.253
1542.51	353.189
1544.06	371.125
1545.61	367.06
1547.16	348.996
1548.71	357.932
1550.26	363.868
1551.81	356.804
1553.36	386.739
1554.91	371.675
1556.46	378.611
1558.01	369.547
1559.56	374.483
1561.1	354.419
1562.65	362.354
1564.2	356.29
1565.75	352.226
1567.29	381.162
1568.84	368.098
1570.39	349.033
1571.93	359.969
1573.48	370.905
1575.02	373.841
1576.57	353.777
1578.11	365.713
1579.66	369.648
1581.2	357.584
1582.74	361.52
1584.29	383.456
1585.83	362.392
1587.37	352.327
1588.91	345.263
1590.46	343.199
1592	342.135
1593.54	337.071
1595.08	382.007
1596.62	349.942
1598.16	360.878
1599.71	370.814
1601.24	368.75
1602.78	349.686
1604.32	340.621
1605.86	347.557
1607.4	360.493
1608.94	347.429
1610.48	352.365
1612.02	346.301
1613.56	350.236
1615.09	362.172
1616.63	346.108
1618.17	356.044
1619.71	336.98
1621.24	352.915
1622.78	342.851
1624.31	344.787
1625.85	352.723
1627.38	348.659
1628.92	330.595
1630.45	335.53
1631.99	366.466
1633.52	355.402
1635.06	326.338
1636.59	340.274
1638.12	355.209
1639.65	334.145
1641.19	356.081
1642.72	354.017
1644.25	339.953
1645.78	348.889
1647.32	353.751
1648.85	334.809
1650.38	340.335
1651.91	341.744
1653.44	335.786
1654.97	343.294
1656.5	351.458
1658.03	334.244
1659.56	335.738
1661.09	350.146
1662.61	344.231
1664.14	331.288
1665.67	357.971
1667.2	342.804
1668.73	337.156
1670.25	342.833
1671.78	350.249
1673.31	345.561
1674.83	344.323
1676.36	343.385
1677.89	335.542
1679.41	338.383
1680.93	348.018
1682.46	346.811
1683.98	337.98
1685.51	338.44
1687.03	337.554
1688.56	348.972
1690.08	352.075
1691.6	333.814
1693.13	340.073
1694.65	343.615
1696.17	350.018
1697.69	343.933
1699.21	341.363
1700.74	344.944
1702.26	345.271
1703.78	332.575
1705.3	349.466
1706.82	333.874
1708.34	341.231
1709.86	336.531
1711.38	340.375
1712.9	357.446
1714.42	344.313
1715.94	349.966
1717.45	342.267
1718.97	338.543
1720.49	350.092
1722.01	344.909
1723.52	347.073
1725.04	345.135
1726.56	335.511
1728.07	342.693
1729.59	343.167
1731.1	343.755
1732.62	336.177
1734.13	349.15
1735.65	342.827
1737.16	341.522
1738.68	343.769
1740.19	347.753
1741.71	345.812
1743.22	336.863
1744.73	329.815
1746.25	347.841
1747.76	342.155
1749.27	332.534
1750.78	335.958
1752.29	337.997
1753.81	335.118
1755.32	333.399
1756.83	348.018
1758.34	329.003
1759.85	335.651
1761.36	340.754
1762.87	333.457
1764.38	336.846
1765.89	346.706
1767.39	347.304
1768.9	338.495
1770.41	347.924
1771.92	339.582
1773.43	339.848
1774.94	336.46
1776.44	343.289
1777.95	352.992
1779.46	351.983
1780.96	345.769
1782.47	342.115
1783.98	345.189
1785.48	348.884
1786.99	347.236
1788.49	343.786
1789.99	345.65
1791.5	340.208
1793	331.544
1794.51	340.39
1796.01	346.751
1797.51	346.857
1799.02	345.598
1799.49	345.25
1801	349.225
1802.51	342.201
1804.02	355.176
1805.53	348.151
1807.04	342.127
1808.54	356.102
1810.05	349.077
1811.56	348.053
1813.07	356.028
1814.57	348.003
1816.08	348.979
1817.58	345.954
1819.09	352.929
1820.6	353.905
1822.1	359.88
1823.61	355.855
1825.11	352.831
1826.62	349.806
1828.12	339.781
1829.63	329.757
1831.13	351.732
1832.63	369.707
1834.14	349.683
1835.64	347.658
1837.14	340.633
1838.64	346.609
1840.14	351.584
1841.65	338.559
1843.15	353.535
1844.65	355.51
1846.15	348.485
1847.65	359.461
1849.15	342.436
1850.65	337.411
1852.15	350.387
1853.65	351.362
1855.15	346.337
1856.65	341.313
1858.15	341.288
1859.65	349.263
1861.14	355.239
1862.64	345.214
1864.14	345.19
1865.64	349.165
1867.13	358.14
1868.63	347.116
1870.13	341.091
1871.62	344.066
1873.12	344.042
1874.62	352.017
1876.11	355.992
1877.61	343.967
1879.1	357.943
1880.6	342.918
1882.09	348.893
1883.58	350.869
1885.08	338.844
1886.57	338.82
1888.06	347.795
1889.56	355.77
1891.05	352.746
1892.54	340.734
1894.03	346.723
1895.53	344.711
1897.02	338.7
1898.51	354.689
1900	359.677
1901.49	360.666
1902.98	343.655
1904.47	347.643
1905.96	350.632
1907.45	359.621
1908.94	345.609
1910.43	340.598
1911.92	348.587
1913.41	354.575
1914.89	356.564
1916.38	344.553
1917.87	348.541
1919.36	355.53
1920.84	362.518
1922.33	336.507
1923.82	356.496
1925.3	336.484
1926.79	354.473
1928.27	360.462
1929.76	352.45
1931.25	360.439
1932.73	350.428
1934.21	336.416
1935.7	334.405
1937.18	370.394
1938.67	344.382
1940.15	361.371
1941.63	350.36
1943.12	340.348
1944.6	369.337
1946.08	346.326
1947.56	358.314
1949.04	352.303
1950.53	344.291
1952.01	342.28
1953.49	350.269
1954.97	362.257
1956.45	355.246
1957.93	354.235
1959.41	346.223
1960.89	350.212
1962.37	348.201
1963.85	353.189
1965.33	356.178
1966.81	352.167
1968.29	344.155
1969.76	338.144
1971.24	358.133
1972.72	348.121
1974.2	356.11
1975.67	359.099
1977.15	350.087
1978.63	350.076
1980.1	352.064
1981.58	353.053
1983.05	370.042
1984.53	367.03
1986.01	364.019
1987.48	354.008
1988.95	348.996
1990.43	349.985
1991.9	356.974
1993.38	358.962
1994.85	349.951
1996.32	358.94
1997.79	358.928
1999.27	345.917
2000.74	362.906
2002.21	339.894
2003.68	361.883
2005.16	361.872
2006.63	365.86
2008.1	356.849
2009.57	333.837
2011.04	347.826
2012.51	348.815
2013.98	333.803
2015.45	348.792
2016.92	359.781
2018.39	365.769
2019.86	363.758
2021.33	335.747
2022.79	354.735
2024.26	365.724
2025.73	337.713
2027.2	351.701
2028.66	341.69
2030.13	364.679
2031.6	354.667
2033.06	341.656
2034.53	357.644
2036	349.633
2037.46	355.622
2038.93	363.61
2040.39	348.599
2041.86	360.588
2043.32	351.576
2044.79	346.565
2046.25	343.554
2047.71	358.542
2049.18	361.531
2050.64	360.52
2052.1	362.508
2053.56	379.497
2055.03	369.486
2056.49	335.474
2057.95	327.463
2059.41	347.452
2060.87	351.44
2062.34	345.429
2063.8	356.417
2065.26	351.406
2066.72	349.395
2068.18	357.383
2069.64	359.372
2071.1	357.361
2072.56	347.349
2074.01	355.338
2075.47	351.327
2076.93	348.315
2078.39	355.304
2079.85	355.293
2081.3	358.281
2082.76	360.27
2084.22	351.259
2085.68	344.247
2087.13	350.236
2088.59	347.225
2090.04	356.213
2091.5	345.202
2092.96	349.19
2094.41	353.179
2095.87	337.168
2097.32	337.156
2098.77	351.145
2100.23	325.134
2101.68	360.122
2103.14	357.111
2104.59	364.1
2106.04	333.088
2107.5	364.077
2108.95	335.066
2110.4	353.054
2111.85	349.043
2113.3	346.032
2114.76	361.02
2116.21	355.009
2117.66	350.997
2119.11	374.986
2120.56	361.975
2122.01	348.963
2123.46	346.952
2124.91	346.941
2126.36	350.929
2127.81	360.918
2129.25	346.907
2130.7	345.895
2132.15	340.884
2133.6	350.873
2135.05	340.861
2136.5	360.85
2137.94	344.839
2139.39	354.827
2140.84	354.816
2142.28	342.805
2143.73	350.793
2145.17	344.782
2146.62	331.77
2148.07	356.759
2149.51	344.748
2150.96	348.736
2152.4	348.725
2153.84	356.714
2155.29	342.702
2156.73	344.691
2158.18	352.68
2159.62	336.668
2161.06	340.657
2162.5	360.646
2163.95	358.634
2165.39	352.623
2166.83	350.612
2168.27	364.6
2169.71	344.589
2171.16	348.578
2172.6	359.566
2174.04	352.555
2175.48	339.543
2176.92	353.532
2178.36	367.521
2179.8	350.509
2181.24	352.498
2182.68	353.487
2184.11	353.475
2185.55	357.464
2186.99	349.453
2188.43	363.441
2189.87	350.43
2191.3	364.419
2192.74	358.407
2194.18	346.396
2195.61	360.385
2197.05	350.373
2198.49	349.362
2199.92	367.35
2201.36	363.339
2202.79	356.328
2204.23	349.316
2205.66	356.305
2207.1	352.294
2208.53	350.282
2209.97	356.271
2211.4	340.26
2212.84	362.248
2214.27	350.237
2215.7	344.226
2217.13	360.214
2218.57	354.203
2220	346.192
2221.43	337.18
2222.86	334.169
2224.29	345.158
2225.72	329.146
2227.16	366.135
2228.59	344.124
2230.02	346.112
2231.45	352.101
2232.88	355.089
2234.31	356.078
2235.74	330.067
2237.16	348.055
2238.59	347.044
2240.02	350.033
2241.45	362.021
2242.88	348.01
2244.31	357.999
2245.73	334.987
2247.16	348.976
2248.59	336.965
2250.02	344.953
2251.44	323.942
2252.87	327.931
2254.29	337.919
2255.72	332.908
2257.15	344.896
2258.57	337.885
2260	345.874
2261.42	341.862
2262.85	325.851
2264.27	345.84
2265.69	341.828
2267.12	333.817
2268.54	337.806
2269.96	345.794
2271.39	343.783
2272.81	344.772
2274.23	345.76
2275.65	322.749
2277.08	355.738
2278.5	327.726
2279.92	351.715
2281.34	340.704
2282.76	346.692
2284.18	354.681
2285.6	337.669
2287.02	348.658
2288.44	337.647
2289.86	337.635
2291.28	336.624
2292.7	331.613
2294.12	329.601
2295.54	336.59
2296.95	337.579
2298.37	350.567
2299.79	342.556
2301.21	341.545
2302.62	343.533
2304.04	353.522
2305.46	351.511
2306.88	351.499
2308.29	339.488
2309.71	342.476
2311.12	343.465
2312.54	354.454
2313.95	340.442
2315.37	341.431
2316.78	359.42
2318.2	351.408
2319.61	348.397
2321.03	359.386
2322.44	355.374
2323.85	337.363
2325.27	384.352
2326.68	401.34
2328.09	422.329
2329.5	429.318
2330.92	396.306
2332.33	357.295
2333.74	359.284
2335.15	349.272
2336.56	345.261
2337.97	358.249
2339.38	344.238
2340.79	347.227
2342.2	343.215
2343.61	338.204
2345.02	345.193
2346.43	348.181
2347.84	341.17
2349.25	331.159
2350.66	345.147
2352.07	361.136
2353.48	327.125
2354.88	350.113
2356.29	329.102
2357.7	335.091
2359.11	356.079
2360.51	329.068
2361.92	363.057
2363.32	356.045
2364.73	344.034
2366.14	361.022
2367.54	360.011
2368.95	346
2370.35	358.988
2371.76	354.977
2373.16	330.966
2374.57	354.954
2375.97	343.943
2377.37	354.932
2378.78	350.92
2380.18	340.909
2381.58	340.898
2382.99	342.886
2384.39	331.875
2385.79	345.864
2387.19	345.852
2388.59	324.841
2390	336.83
2391.4	352.818
2392.8	324.807
2394.2	344.795
2395.6	330.784
2397	341.773
2398.4	328.761
2399.8	335.75
2401.2	333.739
2402.6	342.727
2404	344.716
2405.4	338.705
2406.79	342.693
2408.19	358.682
2409.59	334.671
2410.99	326.659
2412.39	341.648
2413.78	324.637
2415.18	343.625
2416.57	356.614
2417.97	332.602
2419.37	345.591
2420.76	324.58
2422.16	345.568
2423.55	348.557
2424.95	345.546
2426.35	358.534
2427.74	320.523
2429.13	338.512
2430.53	349.5
2431.92	340.489
2433.32	342.478
2434.71	334.466
2436.1	348.455
2437.49	330.444
2438.89	344.432
2440.28	350.421
2441.67	336.409
2443.06	322.398
2444.46	352.387
2445.85	346.375
2447.24	353.364
2448.63	352.353
2450.02	343.341
2451.41	358.33
2452.8	336.319
2454.19	362.307
2455.58	350.296
2456.97	350.285
2458.36	344.273
2459.75	357.262
2461.14	344.251
2462.52	344.239
2463.91	362.228
2465.3	358.217
2466.69	346.205
2468.08	359.194
2469.46	352.183
2470.85	358.171
2472.24	350.16
2473.62	345.148
2475.01	341.137
2476.39	360.126
2477.78	358.114
2479.17	358.103
2480.55	343.092
2481.94	353.08
2483.32	352.069
2484.71	344.058
2486.09	349.046
2487.47	358.035
2488.86	363.024
2490.24	358.012
2491.62	342.001
2493.01	344.99
2494.39	349.978
2495.77	360.967
2497.15	350.956
2498.53	357.944
2499.92	347.933
2501.3	369.921
2502.68	351.91
2504.06	341.899
2505.44	344.887
2506.82	362.876
2508.2	353.865
2509.58	354.853
2510.96	354.842
2512.34	349.831
2513.72	336.819
2515.1	343.808
2516.48	355.797
2517.86	351.785
2519.23	347.774
2520.61	359.763
2521.99	351.751
2523.37	351.74
2524.74	335.728
2526.12	345.717
2527.5	345.706
2528.88	353.694
2530.25	348.683
2531.63	357.672
2533	363.66
2534.38	356.649
2535.75	361.638
2537.13	339.626
2538.5	339.615
2539.88	345.604
2541.25	332.592
2542.63	354.581
2544	344.57
2545.37	341.558
2546.75	343.547
2548.12	352.535
2549.49	346.524
2550.87	339.513
2552.24	331.501
2553.61	343.49
2554.98	340.479
2556.35	341.467
2557.72	335.456
2559.09	359.445
2560.47	357.433
2561.84	353.422
2563.21	331.411
2564.58	349.399
2565.95	345.388
2567.32	354.377
2568.69	319.365
2570.06	351.354
2571.42	346.343
2572.79	355.331
2574.16	362.32
2575.53	370.308
2576.9	346.297
2578.26	354.286
2579.63	359.274
2581	336.263
2582.37	339.252
2583.73	360.24
2585.1	358.229
2586.47	359.218
2587.83	343.206
2589.2	351.195
2590.56	362.184
2591.93	339.172
2593.29	344.161
2594.66	341.15
2596.02	361.138
2597.39	363.127
2598.75	367.116
2600.11	359.104
2601.48	355.093
2602.84	357.082
2604.2	347.07
2605.57	358.059
2606.93	359.047
2608.29	358.036
2609.65	353.025
2611.02	359.013
2612.38	348.002
2613.74	357.991
2615.1	358.979
2616.46	362.968
2617.82	361.957
2619.18	336.945
2620.54	359.934
2621.9	356.923
2623.26	363.911
2624.62	364.9
2625.98	354.889
2627.34	374.877
2628.7	344.866
2630.05	368.854
2631.41	352.843
2632.77	360.832
2634.13	370.82
2635.49	365.809
2636.84	358.798
2638.2	360.786
2639.56	356.775
2640.91	362.764
2642.27	368.752
2643.63	364.741
2644.98	362.73
2646.34	361.718
2647.69	351.707
2649.05	369.696
2650.4	349.684
2651.76	355.673
2653.11	371.661
2654.47	348.65
2655.82	356.639
2657.17	348.627
2658.53	354.616
2659.88	360.605
2661.23	364.593
2662.58	369.582
2663.94	368.571
2665.29	356.559
2666.64	351.548
2667.99	376.537
2669.34	363.525
2670.7	350.514
2672.05	356.503
2673.4	362.491
2674.75	363.48
2676.1	366.469
2677.45	342.457
2678.8	360.446
2680.15	354.434
2681.5	350.423
2682.85	354.412
2684.19	364.4
2685.54	365.889
2686.89	363.378
2688.24	350.366
2689.59	350.355
2690.93	358.344
2692.28	349.332
2693.63	344.321
2694.98	364.31
2696.32	364.298
2697.67	366.287
2699.02	359.276
2700.36	362.264
2701.71	357.253
2703.05	364.242
2704.4	364.23
2705.74	378.219
2707.09	359.207
2708.43	375.196
2709.78	363.185
2711.12	373.173
2712.46	354.162
2713.81	362.151
2715.15	348.139
2716.49	334.128
2717.84	369.117
2719.18	358.105
2720.52	367.094
2721.86	368.083
2723.21	346.071
2724.55	359.06
2725.89	350.049
2727.23	364.037
2728.57	377.026
2729.91	352.014
2731.25	350.003
2732.59	368.992
2733.93	351.98
2735.27	351.969
2736.61	366.958
2737.95	371.946
2739.29	350.935
2740.63	370.924
2741.97	370.912
2743.3	367.901
2744.64	379.89
2745.98	357.878
2747.32	363.867
2748.66	357.856
2749.99	359.844
2751.33	369.833
2752.67	369.822
2754	373.81
2755.34	373.799
2756.67	360.787
2758.01	375.776
2759.34	367.765
2760.68	369.753
2762.02	383.742
2763.35	369.731
2764.69	381.719
2766.02	359.708
2767.35	373.697
2768.69	363.685
2770.02	376.674
2771.35	367.663
2772.69	377.651
2774.02	376.64
2775.35	375.629
2776.68	371.617
2778.02	373.606
2779.35	375.595
2780.68	381.583
2782.01	373.572
2783.34	392.56
2784.67	367.549
2786.01	391.538
2787.34	357.526
2788.67	361.515
2790	374.504
2791.33	363.492
2792.66	383.481
2793.98	369.47
2795.31	375.458
2796.64	373.447
2797.97	373.436
2799.3	370.424
2800.63	357.413
2801.96	367.402
2803.28	371.39
2804.61	385.379
2805.94	382.368
2807.27	367.356
2808.59	371.345
2809.92	373.333
2811.24	373.322
2812.57	369.311
2813.9	367.299
2815.22	376.288
2816.55	373.277
2817.87	366.265
2819.2	376.254
2820.52	374.243
2821.85	376.231
2823.17	385.22
2824.5	378.209
2825.82	379.197
2827.14	375.186
2828.47	374.175
2829.79	373.163
2831.11	377.152
2832.43	373.141
2833.76	375.129
2835.08	364.118
2836.4	373.106
2837.72	369.095
2839.04	382.084
2840.36	365.072
2841.68	369.061
2843.01	380.05
2844.33	386.038
2845.65	372.027
2846.97	377.016
2848.29	381.004
2849.61	371.993
2850.92	380.982
2852.24	362.97
2853.56	378.959
2854.88	362.948
2856.2	374.936
2857.52	382.925
2858.84	383.913
2860.15	386.902
2861.47	370.891
2862.79	377.879
2864.1	390.868
2865.42	379.857
2866.74	395.845
2868.05	372.834
2869.37	362.823
2870.69	360.811
2872	376.8
2873.32	392.789
2874.63	376.777
2875.95	385.766
2877.26	383.755
2878.58	378.743
2879.89	377.732
2881.2	378.721
2882.52	386.709
2883.83	372.698
2885.15	376.686
2886.46	370.675
2887.77	375.664
2889.08	371.652
2890.4	372.641
2891.71	375.63
2893.02	374.618
2894.33	384.607
2895.64	399.596
2896.95	383.584
2898.27	386.573
2899.58	356.562
2900.89	373.55
2902.2	382.539
2903.51	372.528
2904.82	388.516
2906.13	373.505
2907.44	394.493
2908.74	393.482
2910.05	377.471
2911.36	370.459
2912.67	378.448
2913.98	370.437
2915.29	382.425
2916.59	378.414
2917.9	362.403
2919.21	392.391
2920.52	368.38
2921.82	380.369
2923.13	374.357
2924.44	356.346
2925.74	381.335
2927.05	387.323
2928.35	382.312
2929.66	367.301
2930.96	381.289
2932.27	358.278
2933.57	387.267
2934.88	378.255
2936.18	387.244
2937.49	385.232
2938.79	370.221
2940.09	380.21
2941.4	387.198
2942.7	388.187
2944	382.176
2945.31	398.164
2946.61	392.153
2947.91	384.142
2949.21	376.13
2950.52	370.119
2951.82	370.108
2953.12	384.041
2954.42	379.109
2955.72	372.424
2957.02	392.756
2958.32	381.148
2959.62	380.173
2960.92	395.168
2962.22	378.095
2963.52	382.106
2964.82	380.868
2966.12	387.026
2967.42	377.392
2968.72	384.277
2970.01	384.935
2971.31	386.739
2972.61	370.376
2973.91	374.865
2975.21	383.422
2976.5	382.361
2977.8	389.711
2979.1	377.109
2980.39	373.95
2981.69	363.954
2982.99	375.438
2984.28	369.779
2985.58	383.338
2986.87	382.324
2988.17	385.63
2989.46	387.99
2990.76	375.164
2992.05	374.276
2993.35	367.367
2994.64	377.677
2995.94	388.782
2997.23	364.817
2998.52	377.624
2999.82	389.14
3001.11	382.26
3002.4	374.519
3003.69	366.4
3004.98	379.675
3006.28	372.371
3007.57	383.123
3008.86	380.696
3010.15	382.535
3011.44	384.281
3012.73	371.647
3014.03	380.805
3015.32	378.526
3016.61	369.072
3017.9	379.863
3019.19	391.192
3020.48	394.203
3021.76	380.613
3023.05	374.234
3024.34	386.836
3025.63	381.211
3026.92	371.081
3028.21	369.224
3029.5	373.91
3030.78	367.716
3032.07	370.427
3033.36	382.567
3034.65	383.836
3035.93	374.183
3037.22	367.272
3038.51	384.388
3039.79	381.735
3041.08	381.055
3042.36	374.821
3043.65	384.072
3044.93	380.248
3046.22	382.82
3047.5	382.238
3048.79	387.655
3050.07	373.752
3051.36	379.734
3052.64	371.956
3053.92	379.597
3055.21	384.497
3056.49	389.48
3057.77	391.926
3059.06	387.853
3060.34	371.265
3061.62	393.351
3062.9	392.491
3064.19	387.401
3065.47	374.567
3066.75	384.659
3068.03	376.23
3069.31	370.12
3070.59	389.353
3071.87	386.037
3073.15	386.966
3074.43	381.552
3075.71	373.77
3076.99	377.877
3078.27	387.029
3079.55	374.175
3080.83	376.304
3082.11	385.964
3082.26	387.205
3083.54	375.201
3084.83	383.197
3086.11	383.193
3087.39	385.189
3088.68	387.184
3089.96	389.18
3091.24	369.176
3092.53	382.172
3093.81	387.168
3095.09	375.164
3096.38	378.159
3097.66	383.155
3098.94	379.151
3100.22	373.147
3101.5	375.143
3102.79	399.138
3104.07	367.134
3105.35	365.13
3106.63	377.126
3107.91	399.122
3109.19	382.118
3110.47	391.113
3111.75	378.109
3113.03	373.105
3114.31	386.101
3115.59	373.097
3116.86	379.093
3118.14	383.088
3119.42	374.084
3120.7	379.08
3121.98	377.076
3123.26	392.072
3124.53	386.068
3125.81	378.063
3127.09	373.059
3128.36	367.055
3129.64	381.051
3130.92	379.047
3132.19	387.043
3133.47	383.038
3134.75	383.034
3136.02	381.03
3137.3	371.026
3138.57	377.022
3139.85	380.018
3141.12	385.013
3142.4	386.009
3143.67	371.005
3144.95	395.001
3146.22	373.997
3147.49	382.993
3148.77	377.988
3150.04	394.984
3151.31	368.98
3152.58	381.976
3153.86	389.972
3155.13	392.968
3156.4	390.963
3157.67	374.959
3158.94	370.955
3160.22	396.951
3161.49	374.947
3162.76	371.943
3164.03	387.938
3165.3	401.934
3166.57	378.93
3167.84	372.926
3169.11	382.922
3170.38	378.918
3171.65	381.913
3172.92	384.909
3174.19	374.905
3175.46	378.901
3176.72	376.897
3177.99	374.893
3179.26	376.888
3180.53	380.884
3181.8	381.88
3183.07	385.876
3184.33	382.872
3185.6	377.867
3186.87	397.863
3188.13	386.859
3189.4	371.855
3190.67	368.851
3191.93	368.847
3193.2	380.842
3194.46	384.838
3195.73	380.834
3196.99	399.83
3198.26	384.826
3199.52	366.822
3200.79	360.817
3202.05	379.813
3203.32	388.809
3204.58	368.805
3205.84	376.801
3207.11	384.797
3208.37	372.792
3209.63	388.788
3210.9	382.784
3212.16	379.78
3213.42	374.776
3214.68	384.772
3215.95	366.767
3217.21	368.763
3218.47	388.759
3219.73	387.755
3220.99	378.751
3222.25	372.747
3223.51	376.742
3224.77	389.738
3226.03	356.734
3227.29	364.73
3228.55	374.726
3229.81	362.722
3231.07	373.717
3232.33	387.713
3233.59	371.709
3234.85	354.705
3236.11	372.701
3237.36	366.697
3238.62	366.692
3239.88	370.688
3241.14	358.684
3242.4	358.68
3243.65	379.676
3244.91	375.672
3246.17	358.667
3247.42	380.663
3248.68	382.659
3249.94	369.655
3251.19	378.651
3252.45	382.647
3253.7	376.642
3254.96	376.638
3256.21	368.634
3257.47	368.63
3258.72	364.626
3259.98	374.622
3261.23	348.617
3262.48	372.613
3263.74	376.609
3264.99	364.605
3266.25	387.601
3267.5	384.597
3268.75	372.592
3270	366.588
3271.26	356.584
3272.51	374.58
3273.76	370.576
3275.01	365.572
3276.26	372.567
3277.52	375.563
3278.77	368.559
3280.02	388.555
3281.27	370.551
3282.52	373.547
3283.77	386.542
3285.02	375.538
3286.27	367.534
3287.52	358.53
3288.77	386.526
3290.02	374.521
3291.27	370.517
3292.52	377.513
3293.76	387.509
3295.01	380.505
3296.26	363.501
3297.51	368.496
3298.76	366.492
3300	374.488
3301.25	372.484
3302.5	380.48
3303.74	366.476
3304.99	374.471
3306.24	392.467
3307.48	366.463
3308.73	376.459
3309.98	372.455
3311.22	386.451
3312.47	376.446
3313.71	380.442
3314.96	366.438
3316.2	390.434
3317.45	373.43
3318.69	357.426
3319.94	381.421
3321.18	368.417
3322.42	350.413
3323.67	386.409
3324.91	356.405
3326.15	374.401
3327.4	381.396
3328.64	388.392
3329.88	386.388
3331.12	378.384
3332.36	383.38
3333.61	378.376
3334.85	373.371
3336.09	374.367
3337.33	376.363
3338.57	382.359
3339.81	354.355
3341.05	391.351
3342.29	370.346
3343.53	348.342
3344.77	375.338
3346.01	361.334
3347.25	367.33
3348.49	380.326
3349.73	370.321
3350.97	362.317
3352.21	372.313
3353.45	376.309
3354.69	385.305
3355.92	376.301
3357.16	366.296
3358.4	364.292
3359.64	384.288
3360.87	360.284
3362.11	374.28
3363.35	392.276
3364.58	366.271
3365.82	364.267
3367.06	364.263
3368.29	367.259
3369.53	344.255
3370.76	389.25
3372	370.246
3373.24	356.242
3374.47	360.238
3375.7	371.234
3376.94	352.23
3378.17	362.225
3379.41	372.221
3380.64	364.217
3381.88	380.213
3383.11	362.209
3384.34	368.205
3385.57	356.2
3386.81	368.196
3388.04	350.192
3389.27	368.188
3390.5	369.184
3391.74	366.18
3392.97	359.175
3394.2	361.171
3395.43	359.167
3396.66	361.163
3397.89	364.159
3399.12	376.155
3400.35	362.15
3401.58	369.146
3402.81	360.142
3404.04	374.138
3405.27	356.134
3406.5	361.13
3407.73	372.125
3408.96	364.121
3410.19	368.117
3411.42	363.113
3412.65	380.109
3413.88	368.105
3415.1	358.1
3416.33	354.096
3417.56	364.092
3418.79	369.088
3420.01	378.084
3421.24	348.08
3422.47	362.075
3423.69	357.071
3424.92	368.067
3426.15	367.063
3427.37	367.059
3428.6	368.055
3429.82	361.05
3431.05	379.046
3432.27	374.042
3433.5	347.038
3434.72	365.034
3435.95	368.03
3437.17	370.025
3438.4	380.021
3439.62	362.017
3440.84	378.013
3442.07	368.009
3443.29	373.005
3444.51	366
3445.74	371.996
3446.96	374.992
3448.18	366.988
3449.4	380.984
3450.63	364.98
3451.85	365.975
3453.07	373.971
3454.29	371.967
3455.51	368.963
3456.73	387.959
3457.95	367.954
3459.17	383.95
3460.4	368.946
3461.61	369.942
3462.84	369.938
3464.05	372.934
3465.27	397.93
3466.49	360.925
3467.71	372.921
3468.93	373.917
3470.15	365.913
3471.37	373.909
3472.59	364.904
3473.8	387.9
3475.02	374.896
3476.24	362.892
3477.46	366.888
3478.68	384.884
3479.89	367.879
3481.11	351.875
3482.33	361.871
3483.54	385.867
3484.76	371.863
3485.97	381.859
3487.19	375.854
3488.41	367.85
3489.62	367.846
3490.84	365.842
3492.05	375.838
3493.27	367.834
3494.48	365.829
3495.7	353.825
3496.91	355.821
3498.12	362.817
3499.34	363.813
3500.55	351.809
3501.76	369.804
3502.98	377.8
3504.19	369.796
3505.4	363.792
3506.62	363.788
3507.83	355.784
3509.04	347.779
3510.25	372.775
3511.47	369.771
3512.68	360.767
3513.89	367.763
3515.1	366.759
3516.31	355.754
3517.52	351.75
3518.73	364.746
3519.94	362.742
3521.15	332.738
3522.36	360.734
3523.57	347.729
3524.78	355.725
3525.99	365.721
3527.2	367.717
3528.41	362.713
3529.62	357.709
3530.82	353.704
3532.03	361.7
3533.24	358.696
3534.45	351.692
3535.66	355.688
3536.86	351.684
3538.07	365.679
3539.28	348.675
3540.49	374.671
3541.69	357.667
3542.9	348.663
3544.1	355.659
3545.31	366.654
3546.52	357.65
3547.72	346.646
3548.93	345.642
3550.13	364.638
3551.34	349.633
3552.54	361.629
3553.75	357.625
3554.95	361.621
3556.16	362.617
3557.36	359.613
3558.56	364.608
3559.77	353.604
3560.97	339.6
3562.17	362.596
3563.38	359.592
3564.58	357.588
3565.78	357.583
3566.99	358.579
3568.19	347.575
3569.39	349.571
3570.59	367.567
3571.79	345.563
3572.99	368.558
3574.2	371.554
3575.4	367.55
3576.6	369.546
3577.8	353.542
3579	343.538
3580.2	371.533
3581.4	355.529
3582.6	339.525
3583.8	369.521
3585	347.517
3586.2	361.513
3587.4	341.508
3588.59	359.504
3589.79	341.5
3590.99	361.496
3592.19	347.492
3593.39	375.488
3594.58	358.483
3595.78	374.479
3596.98	359.475
3598.18	369.471
3599.37	363.467
3600.57	345.463
3601.77	387.458
3602.96	355.454
3604.16	358.45
3605.35	361.446
3606.55	370.442
3607.75	371.438
3608.94	363.433
3610.14	367.429
3611.33	374.425
3612.53	369.421
3613.72	369.417
3614.92	377.413
3616.11	351.408
3617.3	343.404
3618.5	369.4
3619.69	363.396
3620.88	361.392
3622.08	375.388
3623.27	371.383
3624.46	369.379
3625.66	372.375
3626.85	381.371
3628.04	371.367
3629.23	379.362
3630.42	362.358
3631.62	363.354
3632.81	349.35
3634	364.346
3635.19	365.342
3636.38	361.337
3637.57	367.333
3638.76	365.329
3639.95	368.325
3641.14	353.321
3642.33	361.317
3643.52	356.313
3644.71	370.308
3645.9	354.304
3647.09	371.3
3648.28	343.296
3649.47	363.292
3650.65	347.287
3651.84	369.283
3653.03	364.279
3654.22	367.275
3655.41	346.271
3656.59	350.267
3657.78	339.262
3658.97	357.258
3660.15	360.254
3661.34	357.25
3662.53	341.246
3663.71	354.242
3664.9	354.237
3666.09	353.233
3667.27	343.229
3668.46	341.225
3669.64	350.221
3670.83	355.217
3672.01	363.212
3673.2	351.208
3674.38	363.204
3675.56	341.2
3676.75	355.196
3677.93	347.192
3679.12	353.187
3680.3	355.183
3681.48	353.179
3682.67	372.175
3683.85	362.171
3685.03	349.167
3686.21	351.162
3687.4	339.158
3688.58	353.154
3689.76	341.15
3690.94	343.146
3692.12	362.142
3693.3	358.137
3694.49	343.133
3695.67	341.129
3696.85	359.125
3698.03	345.121
3699.21	348.117
3700.39	355.112
3701.57	355.108
3702.75	350.104
3703.93	368.1
3705.11	357.096
3706.28	349.092
3707.46	349.087
3708.64	349.083
3709.82	359.079
3711	353.075
3712.18	351.071
3713.36	356.067
3714.53	353.062
3715.71	367.058
3716.89	351.054
3718.07	364.05
3719.24	361.046
3720.42	351.042
3721.6	362.037
3722.77	359.033
3723.95	363.029
3725.12	360.025
3726.3	355.021
3727.48	357.016
3728.65	347.012
3729.83	348.008
3731	355.004
3732.18	346
3733.35	338.996
3734.53	363.991
3735.7	350.987
3736.87	349.983
3738.05	351.979
3739.22	360.975
3740.39	324.971
3741.57	360.966
3742.74	344.962
3743.91	348.958
3745.09	362.954
3746.26	362.95
3747.43	354.946
3748.6	351.941
3749.77	364.937
3750.95	355.933
3752.12	350.929
3753.29	362.925
3754.46	370.921
3755.63	366.916
3756.8	351.912
3757.97	355.908
3759.14	374.904
3760.31	366.9
3761.48	360.896
3762.65	357.891
3763.82	364.887
3764.99	366.883
3766.16	358.879
3767.33	341.875
3768.5	358.871
3769.67	368.866
3770.83	354.862
3772	347.858
3773.17	370.854
3774.34	349.85
3775.51	348.846
3776.67	357.841
3777.84	368.837
3779.01	344.833
3780.18	358.829
3781.34	359.825
3782.51	367.821
3783.67	371.816
3784.84	380.812
3786.01	354.808
3787.17	366.804
3788.34	360.8
3789.5	357.796
3790.67	359.791
3791.83	350.787
3793	354.783
3794.16	357.779
3795.33	357.775
3796.49	346.771
3797.65	344.766
3798.82	351.762
3799.98	366.758
3801.14	350.754
3802.31	366.75
3803.47	361.745
3804.63	350.741
3805.8	358.737
3806.96	344.733
3808.12	342.729
3809.28	345.725
3810.44	360.72
3811.61	344.716
3812.77	339.712
3813.93	349.708
3815.09	359.704
3816.25	348.7
3817.41	345.695
3818.57	349.691
3819.73	346.687
3820.89	346.683
3822.05	352.679
3823.21	352.675
3824.37	352.67
3825.53	326.666
3826.69	354.662
3827.85	347.658
3829.01	332.654
3830.17	346.65
3831.32	342.645
3832.48	356.641
3833.64	345.637
3834.8	337.633
3835.96	336.629
3837.11	339.625
3838.27	346.62
3839.43	350.616
3840.58	354.612
3841.74	338.608
3842.9	336.604
3844.05	349.6
3845.21	338.595
3846.36	343.591
3847.52	339.587
3848.68	346.583
3849.83	341.579
3850.99	340.575
3852.14	346.57
3853.29	348.566
3854.45	328.562
3855.6	351.558
3856.76	357.554
3857.91	354.55
3859.07	336.545
3860.22	344.541
3861.37	356.537
3862.53	339.533
3863.68	344.529
3864.83	331.525
3865.98	330.52
3867.14	336.516
3868.29	354.512
3869.44	338.508
3870.59	339.504
3871.74	348.5
3872.9	346.495
3874.05	341.491
3875.2	331.487
3876.35	351.483
3877.5	345.479
3878.65	335.475
3879.8	332.47
3880.95	351.466
3882.1	343.462
3883.25	347.458
3884.4	332.454
3885.55	358.45
3886.7	347.445
3887.85	358.441
3889	331.437
3890.14	344.433
3891.29	357.429
3892.44	354.424
3893.59	348.42
3894.74	356.416
3895.89	341.412
3897.03	344.408
3898.18	356.404
3899.33	348.399
3900.47	338.395
3901.62	351.391
3902.77	354.387
3903.91	349.383
3905.06	354.379
3906.21	362.374
3907.35	358.37
3908.5	357.366
3909.64	340.362
3910.79	338.358
3911.93	348.354
3913.08	350.349
3914.22	360.345
3915.37	360.341
3916.51	341.337
3917.66	360.333
3918.8	355.329
3919.94	339.324
3921.09	353.32
3922.23	362.316
3923.37	349.312
3924.52	348.308
3925.66	338.304
3926.8	346.299
3927.94	343.295
3929.09	352.291
3930.23	352.287
3931.37	347.283
3932.51	363.279
3933.65	362.274
3934.79	355.27
3935.93	340.266
3937.08	347.262
3938.22	362.258
3939.36	338.254
3940.5	334.249
3941.64	338.245
3942.78	356.241
3943.92	346.237
3945.06	343.233
3946.2	356.229
3947.33	342.224
3948.47	340.22
3949.61	346.216
3950.75	332.212
3951.89	356.208
3953.03	343.204
3954.17	326.199
3955.3	328.195
3956.44	345.191
3957.58	346.187
3958.72	341.183
3959.85	337.179
3960.99	346.174
3962.13	341.17
3963.26	356.166
3964.4	334.162
3965.54	360.158
3966.67	353.154
3967.81	345.149
3968.94	339.145
3970.08	342.141
3971.21	345.137
3972.35	322.133
3973.48	330.128
3974.62	326.124
3975.75	344.12
3976.89	316.116
3978.02	338.112
3979.16	337.108
3980.29	334.103
3981.42	326.099
3982.56	352.095
3983.69	345.091
3984.82	336.087
3985.96	334.083
3987.09	341.078
3988.22	364.074
3989.35	330.07
3990.49	330.066
3991.62	342.062
3992.75	339.058
3993.88	340.053
3995.01	329.049
3996.14	324.045
3997.27	324.041
3998.4	322.037
3999.54	338.033
