#Acq. time (s)=	25
#Accumulations=	3
#Range (cm-¹)=	100...4000
#Windows=	3
#Autofocus=	Off
#AutoExposure=	Off
#Spike filter=	Multiple accum.
#Delay time (s)=	0
#Binning=	1
#Readout mode=	Signal
#DeNoise=	Off
#ICS correction=	Off
#Dark correction=	Off
#Inst. Process=	Off
#Instrument=	LabRAM HR Evol
#Detector=	Syncerity OE
#Objective=	x100_VIS
#Grating=	600 (500nm)
#ND Filter=	100%
#Laser=	532nm_Edge
#Hole=	150.001
#Range=	Visible
#Project=	Omar
#Sample=	
#Site=	27-04-23
#Title=	roy_mg
#Remark=	
#Date=	27.04.2023 16:40
#Acquired=	27.04.2023 16:40:58
101.48	567
103.316	616.916
105.149	688.833
106.984	697.749
108.817	623.666
110.651	569.582
112.483	584.498
114.315	627.415
116.148	627.331
117.979	604.248
119.811	588.164
121.641	609.081
123.471	622.997
125.302	608.913
127.131	564.83
128.96	588.746
130.79	579.663
132.618	532.579
134.448	549.495
136.275	594.412
138.102	618.328
139.93	606.245
141.757	584.161
143.582	560.078
145.41	548.994
147.235	562.91
149.059	575.827
150.884	575.743
152.71	598.66
154.533	571.576
156.357	576.492
158.182	554.409
160.004	551.325
161.826	571.242
163.648	565.158
165.472	573.075
167.293	570.991
169.114	585.907
170.934	583.824
172.754	559.74
174.576	553.657
176.395	565.573
178.214	568.489
180.033	538.406
181.851	560.322
183.671	564.239
185.489	569.155
187.306	567.071
189.123	585.988
190.939	576.904
192.755	555.821
194.573	563.737
196.389	566.654
198.204	559.57
200.018	591.486
201.833	587.403
203.647	565.319
205.46	588.236
207.274	597.152
209.087	602.068
210.899	598.985
212.714	585.901
214.525	604.818
216.337	616.734
218.148	629.651
219.959	612.567
221.769	572.483
223.58	567.4
225.389	577.316
227.199	577.233
229.008	584.149
230.816	571.065
232.625	579.982
234.433	563.898
236.24	589.815
238.048	565.731
239.855	589.648
241.661	583.564
243.468	601.48
245.273	582.397
247.079	598.313
248.884	585.23
250.689	612.146
252.493	581.062
254.295	601.979
256.099	604.895
257.903	591.812
259.706	602.728
261.509	592.645
263.311	584.561
265.113	609.477
266.915	624.394
268.716	600.31
270.515	622.227
272.315	596.143
274.116	596.059
275.916	602.976
277.715	609.892
279.514	611.809
281.313	593.725
283.11	593.642
284.908	593.558
286.706	589.474
288.503	595.391
290.3	578.307
292.095	581.224
293.891	567.14
295.688	577.056
297.483	580.973
299.277	562.889
301.072	568.806
302.866	556.722
304.661	577.638
306.453	551.555
308.246	564.471
310.039	573.388
311.832	550.304
313.623	556.221
315.415	558.137
317.207	572.053
318.997	570.97
320.788	540.886
322.579	541.803
324.367	514.719
326.157	521.635
327.947	530.552
329.734	510.468
331.524	507.385
333.312	513.301
335.099	502.217
336.887	498.134
338.673	505.05
340.46	487.967
342.247	506.883
344.032	502.8
345.818	455.716
347.602	486.632
349.388	466.549
351.173	480.465
352.956	469.382
354.74	467.298
356.523	480.215
358.307	464.131
360.088	483.047
361.871	454.964
363.652	482.88
365.435	475.797
367.215	465.713
368.997	467.629
370.776	488.546
372.557	481.462
374.336	495.379
376.117	488.295
377.895	472.211
379.675	495.128
381.452	471.044
383.231	482.961
385.008	478.877
386.786	493.794
388.562	477.71
390.338	493.626
392.115	486.543
393.89	472.459
395.667	470.376
397.441	481.292
399.215	491.208
400.991	472.125
402.764	466.041
404.537	479.958
406.312	466.874
408.084	483.791
409.858	472.707
411.63	466.623
413.401	477.54
415.174	472.456
416.944	460.373
418.715	465.289
420.485	475.205
422.256	457.122
424.025	459.038
425.794	448.955
427.565	453.871
429.333	456.788
431.101	450.704
432.868	457.62
434.637	452.537
436.404	456.453
438.171	466.37
439.937	474.286
441.705	470.202
443.47	444.119
445.235	473.035
447	459.952
448.764	487.868
450.53	455.784
452.294	479.701
454.058	479.617
455.821	464.534
457.583	472.45
459.346	494.367
461.11	483.283
462.872	461.199
464.633	494.116
466.394	468.032
468.155	482.949
469.915	468.865
471.675	473.781
473.435	480.698
475.196	485.614
476.955	478.531
478.714	491.447
480.472	486.364
482.23	492.28
483.988	470.196
485.745	489.113
487.502	474.029
489.259	481.946
491.015	476.862
492.771	481.778
494.527	477.695
496.282	459.611
498.037	469.528
499.791	479.444
501.546	477.361
503.3	475.277
505.053	457.193
506.807	445.11
508.56	453.026
510.312	468.943
512.064	459.859
513.816	445.775
515.568	465.692
517.319	457.608
519.07	448.525
520.821	471.441
522.569	466.357
524.319	432.274
526.068	479.19
527.818	462.107
529.567	455.023
531.315	468.94
533.063	462.856
534.811	472.772
536.557	470.689
538.304	484.605
540.051	501.522
541.798	480.438
543.544	492.354
545.29	482.271
547.033	510.187
548.778	484.104
550.523	498.02
552.268	506.937
554.012	502.853
555.754	496.769
557.498	509.686
559.241	520.602
560.984	518.519
562.724	515.435
564.466	514.351
566.208	523.268
567.95	516.184
569.689	526.101
571.43	513.017
573.171	512.934
574.909	533.85
576.649	521.766
578.388	547.683
580.126	526.599
581.864	565.516
583.603	537.432
585.339	559.348
587.077	548.265
588.815	534.181
590.55	524.098
592.287	544.014
594.023	563.93
595.758	553.847
597.494	543.763
599.227	542.68
600.962	536.596
602.697	557.513
604.43	544.429
606.164	546.345
607.896	542.262
609.63	554.178
611.361	555.095
613.094	573.011
614.825	556.927
616.557	523.844
618.287	561.76
620.018	556.677
621.748	541.593
623.479	565.51
625.207	571.426
626.938	564.342
628.666	566.259
630.395	563.175
632.123	589.092
633.852	584.008
635.578	571.924
637.307	580.841
639.033	554.757
640.76	556.674
642.486	604.59
644.211	594.507
645.937	554.423
647.662	591.339
649.388	585.256
651.111	595.172
652.835	585.089
654.56	558.005
656.283	567.921
658.005	585.838
659.729	593.754
661.451	565.671
663.172	587.587
664.895	573.503
666.616	591.42
668.336	585.336
670.059	601.253
671.778	593.169
673.498	571.086
675.219	565.002
676.938	594.918
678.656	589.835
680.374	610.751
682.094	586.668
683.812	588.584
685.529	562.5
687.246	595.417
688.964	583.333
690.68	577.25
692.396	585.166
694.112	562.083
695.827	570.999
697.544	584.915
699.258	578.832
700.973	579.748
702.687	587.665
704.4	583.581
706.115	600.497
707.828	576.414
709.541	579.33
711.253	573.247
712.965	591.163
714.677	592.08
716.388	582.996
718.099	584.912
719.81	591.829
721.522	611.745
723.232	575.662
724.942	564.578
726.651	581.494
728.36	579.411
730.069	588.327
731.777	566.244
733.486	596.16
735.193	583.077
736.901	579.993
738.608	586.909
740.315	579.826
742.021	601.742
743.727	597.659
745.433	576.575
747.139	610.491
748.844	594.408
750.549	627.324
752.253	599.241
753.957	606.157
755.661	586.074
757.365	600.99
759.068	575.906
760.771	594.823
762.474	597.739
764.174	597.656
765.876	600.572
767.577	587.488
769.279	587.405
770.98	588.321
772.68	621.238
774.381	604.154
776.081	596.07
777.779	611.987
779.478	604.903
781.177	594.82
782.876	589.736
784.574	615.653
786.272	599.569
787.968	625.485
789.666	595.402
791.363	613.318
793.06	586.235
794.754	595.151
796.45	614.067
798.146	606.984
799.842	634.9
801.537	594.817
803.23	608.733
804.924	622.65
806.619	616.566
808.311	600.482
810.004	638.399
811.698	588.315
813.391	603.232
815.081	606.148
816.774	584.064
818.466	595.981
820.156	602.897
821.847	602.814
823.538	582.73
825.227	604.646
826.917	621.563
828.605	615.479
830.295	595.396
831.985	598.312
833.672	606.229
835.361	583.145
837.047	614.061
838.736	588.978
840.424	601.894
842.109	605.811
843.797	574.727
845.482	597.643
847.168	569.56
848.853	585.476
850.539	584.393
852.222	579.309
853.908	588.226
855.591	588.142
857.275	578.058
858.958	572.975
860.642	559.891
862.324	554.808
864.007	575.724
865.689	576.641
867.371	572.557
869.052	573.473
870.734	563.39
872.414	574.306
874.096	562.223
875.775	572.139
877.454	540.055
879.135	571.972
880.813	550.888
882.493	558.805
884.171	570.721
885.848	564.637
887.527	550.554
889.204	562.47
890.881	582.387
892.559	563.303
894.235	561.219
895.91	563.136
897.587	536.052
899.262	572.969
900.937	548.885
902.613	551.802
904.287	558.718
905.961	549.634
907.634	578.551
909.309	549.467
910.982	533.384
912.654	543.3
914.326	554.216
916	543.133
917.671	562.049
919.343	549.966
921.013	532.882
922.686	532.799
924.356	529.715
926.026	539.631
927.696	536.548
929.365	520.464
931.034	534.381
932.704	516.297
934.373	531.214
936.041	540.13
937.708	546.046
939.376	521.963
941.043	504.879
942.71	509.796
944.378	522.712
946.044	517.628
947.71	542.545
949.376	500.461
951.041	518.378
952.706	503.294
954.371	512.21
956.035	512.127
957.699	520.043
959.362	550.96
961.026	516.876
962.689	507.793
964.352	519.709
966.014	515.625
967.676	521.542
969.338	508.458
971	513.375
972.661	514.291
974.322	514.207
975.982	518.124
977.642	526.04
979.302	529.957
980.962	511.873
982.621	507.79
984.28	515.706
985.939	517.622
987.598	530.539
989.254	514.455
990.912	518.372
992.569	507.288
994.226	493.204
995.883	518.121
997.54	492.037
999.196	510.954
1000.85	516.87
1002.51	504.786
1004.16	493.703
1005.82	494.619
1007.47	504.536
1009.13	498.452
1010.78	501.369
1012.43	503.285
1014.08	509.201
1015.74	510.118
1017.39	509.034
1019.04	508.951
1020.69	523.867
1022.35	526.783
1024	534.7
1025.65	515.616
1027.3	508.533
1028.95	522.449
1030.6	504.366
1032.25	510.282
1033.9	511.198
1035.55	511.115
1037.19	520.031
1038.84	505.948
1040.49	495.864
1042.14	503.78
1043.79	505.697
1045.43	516.613
1047.08	519.53
1048.73	522.446
1050.37	529.363
1052.02	518.279
1053.66	526.195
1055.31	514.112
1056.95	502.028
1058.6	500.945
1060.24	528.861
1061.88	515.777
1063.53	518.694
1065.17	512.61
1066.81	507.527
1068.46	521.443
1070.1	519.359
1071.74	481.276
1073.38	489.192
1075.02	523.109
1076.66	497.025
1078.3	516.942
1079.94	497.858
1081.58	507.774
1083.22	516.691
1084.86	514.607
1086.5	510.524
1088.14	514.44
1089.78	513.357
1091.42	504.273
1093.06	519.189
1094.69	490.106
1096.33	511.022
1097.97	527.939
1099.6	504.855
1101.24	504.771
1102.87	506.688
1104.51	512.604
1106.15	514.521
1107.78	513.437
1109.41	514.353
1111.05	492.27
1112.68	503.186
1114.32	497.103
1115.95	506.019
1117.58	517.936
1119.21	507.852
1120.85	499.768
1122.48	503.685
1124.11	509.601
1125.74	516.518
1127.37	518.434
1129	498.35
1130.63	504.267
1132.26	507.183
1133.89	496.1
1135.52	473.016
1137.15	523.932
1138.78	505.849
1140.41	501.765
1142.04	501.682
1143.67	509.598
1145.29	517.515
1146.92	493.431
1148.55	529.347
1150.17	509.264
1151.8	501.18
1153.43	515.097
1155.05	513.013
1156.68	506.93
1158.3	509.846
1159.93	507.762
1161.55	508.679
1163.18	504.595
1164.8	518.512
1166.42	516.428
1168.05	527.344
1169.67	487.261
1171.29	515.177
1172.91	514.094
1174.54	518.01
1176.16	511.926
1177.78	522.843
1179.4	510.759
1181.02	522.676
1182.64	539.592
1184.26	527.509
1185.88	506.425
1187.5	524.341
1189.12	529.258
1190.74	525.174
1192.36	548.091
1193.97	528.007
1195.59	528.923
1197.21	527.84
1198.83	534.756
1200.44	522.673
1202.06	533.589
1203.68	525.506
1205.29	514.422
1206.91	523.338
1208.52	513.255
1210.14	540.171
1211.75	532.088
1213.37	538.004
1214.98	516.92
1216.59	551.837
1218.21	537.753
1219.82	509.67
1221.43	541.586
1223.05	524.503
1224.66	526.419
1226.27	520.335
1227.88	533.252
1229.49	527.168
1231.1	514.085
1232.72	518.001
1234.33	530.917
1235.94	519.834
1237.55	552.75
1239.16	550.667
1240.76	534.583
1242.37	543.499
1243.98	535.416
1245.59	549.332
1247.2	530.249
1248.81	520.165
1250.41	532.082
1252.02	528.998
1253.63	523.914
1255.23	539.831
1256.84	532.747
1258.44	540.664
1260.05	540.58
1261.66	522.496
1263.26	546.413
1264.86	532.329
1266.47	536.246
1268.07	556.162
1269.67	559.079
1271.28	547.995
1272.88	552.911
1274.48	556.828
1276.09	539.744
1277.69	549.661
1279.29	539.577
1280.89	577.493
1282.49	558.41
1284.09	546.326
1285.69	541.243
1287.29	562.159
1288.89	540.076
1290.49	561.992
1292.09	556.908
1293.69	575.825
1295.29	549.741
1296.89	555.658
1298.49	565.574
1300.08	564.49
1301.68	583.407
1303.28	572.323
1304.87	571.24
1306.47	565.156
1308.07	555.073
1309.66	552.989
1311.26	539.905
1312.85	595.822
1314.45	575.738
1316.04	583.655
1317.64	568.571
1319.23	567.487
1320.83	587.404
1322.42	577.32
1324.01	574.237
1325.61	588.153
1327.2	598.07
1328.79	572.986
1330.38	596.902
1331.97	591.819
1333.56	586.735
1335.15	560.652
1336.75	579.568
1338.34	586.484
1339.93	570.401
1341.52	597.317
1343.11	568.234
1344.69	560.15
1346.28	570.066
1347.87	577.983
1349.46	582.899
1351.05	575.816
1352.64	572.732
1354.22	585.648
1355.81	576.565
1357.4	567.481
1358.98	573.398
1360.57	573.314
1362.15	584.231
1363.74	561.147
1365.32	574.063
1366.91	573.98
1368.5	577.896
1370.08	591.813
1371.66	547.729
1373.25	575.646
1374.83	596.562
1376.41	572.478
1377.99	562.395
1379.58	579.311
1381.16	581.228
1382.74	589.144
1384.32	575.06
1385.9	578.977
1387.49	568.893
1389.07	554.81
1390.65	586.726
1392.23	579.643
1393.81	589.559
1395.39	590.475
1396.97	589.392
1398.54	574.308
1400.12	587.225
1401.7	570.141
1403.28	572.057
1404.86	601.974
1406.43	591.89
1408.01	580.807
1409.59	579.723
1411.16	603.639
1412.74	591.556
1414.32	596.472
1415.89	564.389
1417.47	580.305
1419.04	583.222
1420.62	595.138
1422.19	606.054
1423.76	601.971
1425.34	589.887
1426.91	611.804
1428.48	606.72
1430.06	583.636
1431.63	592.553
1433.2	598.469
1434.77	590.386
1436.35	595.302
1437.92	578.219
1439.49	592.135
1441.06	599.051
1442.63	600.968
1444.2	594.884
1445.77	581.801
1447.34	597.717
1448.91	586.633
1450.47	596.55
1452.04	582.466
1453.61	602.383
1455.18	603.299
1456.75	574.215
1458.31	582.132
1459.88	593.048
1461.45	592.965
1463.02	610.881
1464.58	577.798
1466.15	607.714
1467.71	602.63
1469.28	583.547
1470.84	578.463
1472.41	611.38
1473.97	581.296
1475.54	592.212
1477.1	585.129
1478.66	598.045
1480.23	586.962
1481.79	583.878
1483.35	593.795
1484.91	591.711
1486.48	597.627
1488.04	617.544
1489.6	592.46
1491.16	587.377
1492.72	627.293
1494.28	605.209
1495.84	608.126
1497.4	626.042
1498.96	600.959
1500.52	607.875
1502.08	605.792
1503.64	600.708
1505.2	611.624
1506.76	609.541
1508.31	610.457
1509.87	603.374
1511.43	604.29
1512.99	643.206
1514.54	624.123
1516.1	605.039
1517.65	645.956
1519.21	620.872
1520.77	613.789
1522.32	623.705
1523.88	636.621
1525.43	629.538
1526.99	622.454
1528.54	611.371
1530.09	620.287
1531.65	626.203
1533.2	620.12
1534.75	622.036
1536.3	661.953
1537.86	629.869
1539.41	628.786
1540.96	627.702
1542.51	644.618
1544.06	656.535
1545.61	640.451
1547.16	637.368
1548.71	631.284
1550.26	632.2
1551.81	633.117
1553.36	660.033
1554.91	676.95
1556.46	663.866
1558.01	653.782
1559.56	630.699
1561.1	636.615
1562.65	641.532
1564.2	664.448
1565.75	633.365
1567.29	640.281
1568.84	640.197
1570.39	670.114
1571.93	640.03
1573.48	631.947
1575.02	630.863
1576.57	636.779
1578.11	641.696
1579.66	630.612
1581.2	647.529
1582.74	620.445
1584.29	649.362
1585.83	621.278
1587.37	648.194
1588.91	645.111
1590.46	632.027
1592	652.944
1593.54	641.86
1595.08	630.776
1596.62	632.693
1598.16	597.609
1599.71	627.526
1601.24	638.442
1602.78	632.359
1604.32	599.275
1605.86	630.191
1607.4	619.108
1608.94	624.024
1610.48	636.941
1612.02	628.857
1613.56	611.773
1615.09	593.69
1616.63	636.606
1618.17	601.523
1619.71	631.439
1621.24	629.355
1622.78	623.272
1624.31	620.188
1625.85	615.105
1627.38	617.021
1628.92	617.938
1630.45	624.854
1631.99	613.77
1633.52	602.687
1635.06	628.603
1636.59	589.52
1638.12	593.436
1639.65	620.352
1641.19	590.269
1642.72	614.185
1644.25	600.102
1645.78	619.018
1647.32	610.902
1648.85	604.84
1650.38	599.756
1651.91	581.581
1653.44	594.041
1654.97	618.312
1656.5	611.144
1658.03	610.303
1659.56	604.656
1661.09	603.775
1662.61	615.758
1664.14	602.192
1665.67	601.994
1667.2	627.715
1668.73	593.769
1670.25	604.227
1671.78	600.41
1673.31	603.395
1674.83	601.572
1676.36	588.32
1677.89	607.112
1679.41	606.765
1680.93	613.301
1682.46	594.244
1683.98	607.584
1685.51	610.42
1687.03	598.126
1688.56	613.216
1690.08	607.371
1691.6	612.815
1693.13	620.578
1694.65	606.375
1696.17	596.077
1697.69	605.99
1699.21	599.81
1700.74	617.198
1702.26	618.352
1703.78	592.354
1705.3	601.885
1706.82	608.389
1708.34	592.946
1709.86	608.349
1711.38	602.123
1712.9	592.927
1714.42	598.101
1715.94	603.936
1717.45	611.162
1718.97	609.215
1720.49	614.103
1722.01	598.855
1723.52	609.837
1725.04	604.849
1726.56	607.153
1728.07	597.244
1729.59	606.045
1731.1	593.442
1732.62	606.543
1734.13	584.466
1735.65	593.674
1737.16	602.709
1738.68	590.036
1740.19	612.344
1741.71	602.048
1743.22	602.87
1744.73	597.309
1746.25	599.257
1747.76	603.483
1749.27	617.464
1750.78	602.32
1752.29	602.859
1753.81	590.829
1755.32	597.119
1756.83	596.046
1758.34	612.41
1759.85	591.071
1761.36	607.378
1762.87	606.715
1764.38	592.903
1765.89	597.981
1767.39	601.388
1768.9	596.925
1770.41	594.715
1771.92	597.773
1773.43	603.25
1774.94	620.476
1776.44	612.268
1777.95	606.984
1779.46	612.144
1780.96	614.077
1782.47	597.439
1783.98	615.32
1785.48	605.916
1786.99	594.99
1788.49	611.286
1789.99	613.722
1791.5	608.886
1793	618.154
1794.51	617.761
1796.01	600.648
1797.51	599.836
1799.02	606.928
1799.49	609.005
1801	599.955
1802.51	610.905
1804.02	621.855
1805.53	608.805
1807.04	590.755
1808.54	584.705
1810.05	592.655
1811.56	617.605
1813.07	628.555
1814.57	622.505
1816.08	613.455
1817.58	617.405
1819.09	622.355
1820.6	602.304
1822.1	616.254
1823.61	610.204
1825.11	596.154
1826.62	629.104
1828.12	613.054
1829.63	607.004
1831.13	609.954
1832.63	621.904
1834.14	610.854
1835.64	607.804
1837.14	587.754
1838.64	610.704
1840.14	611.654
1841.65	587.604
1843.15	621.554
1844.65	606.504
1846.15	615.453
1847.65	613.403
1849.15	627.353
1850.65	612.303
1852.15	607.253
1853.65	597.203
1855.15	602.153
1856.65	605.103
1858.15	587.053
1859.65	625.003
1861.14	594.953
1862.64	621.903
1864.14	613.853
1865.64	594.803
1867.13	611.753
1868.63	630.703
1870.13	622.652
1871.62	618.602
1873.12	606.552
1874.62	618.502
1876.11	602.452
1877.61	598.402
1879.1	606.352
1880.6	600.302
1882.09	619.252
1883.58	620.202
1885.08	622.152
1886.57	605.102
1888.06	592.052
1889.56	608.002
1891.05	609.952
1892.54	607.913
1894.03	625.873
1895.53	601.834
1897.02	605.795
1898.51	614.756
1900	629.717
1901.49	611.678
1902.98	608.639
1904.47	613.6
1905.96	607.56
1907.45	613.521
1908.94	620.482
1910.43	615.443
1911.92	633.404
1913.41	615.365
1914.89	608.326
1916.38	622.287
1917.87	617.248
1919.36	637.208
1920.84	627.169
1922.33	627.13
1923.82	609.091
1925.3	610.052
1926.79	623.013
1928.27	637.974
1929.76	623.935
1931.25	637.895
1932.73	615.856
1934.21	606.817
1935.7	621.778
1937.18	620.739
1938.67	627.7
1940.15	615.661
1941.63	615.622
1943.12	606.582
1944.6	606.543
1946.08	605.504
1947.56	622.465
1949.04	638.426
1950.53	614.387
1952.01	629.348
1953.49	628.309
1954.97	626.27
1956.45	619.23
1957.93	608.191
1959.41	618.152
1960.89	634.113
1962.37	614.074
1963.85	618.035
1965.33	607.996
1966.81	603.957
1968.29	613.917
1969.76	617.878
1971.24	617.839
1972.72	618.8
1974.2	620.761
1975.67	623.722
1977.15	615.683
1978.63	607.644
1980.1	600.604
1981.58	622.565
1983.05	615.526
1984.53	640.487
1986.01	605.448
1987.48	619.409
1988.95	633.37
1990.43	640.331
1991.9	613.291
1993.38	623.252
1994.85	605.213
1996.32	580.174
1997.79	618.135
1999.27	634.096
2000.74	607.057
2002.21	635.018
2003.68	634.979
2005.16	616.939
2006.63	612.9
2008.1	624.861
2009.57	622.822
2011.04	631.783
2012.51	619.744
2013.98	614.705
2015.45	608.666
2016.92	619.626
2018.39	632.587
2019.86	602.548
2021.33	623.509
2022.79	617.47
2024.26	628.431
2025.73	632.392
2027.2	603.353
2028.66	613.313
2030.13	592.274
2031.6	616.235
2033.06	612.196
2034.53	601.157
2036	616.118
2037.46	622.079
2038.93	631.04
2040.39	624
2041.86	615.961
2043.32	631.922
2044.79	623.883
2046.25	612.844
2047.71	611.805
2049.18	613.766
2050.64	631.727
2052.1	615.688
2053.56	629.648
2055.03	617.609
2056.49	636.57
2057.95	622.531
2059.41	624.492
2060.87	634.453
2062.34	613.414
2063.8	635.375
2065.26	629.335
2066.72	623.296
2068.18	633.257
2069.64	611.218
2071.1	623.179
2072.56	605.14
2074.01	629.101
2075.47	629.062
2076.93	607.022
2078.39	623.983
2079.85	609.944
2081.3	625.905
2082.76	608.866
2084.22	608.827
2085.68	604.788
2087.13	620.749
2088.59	619.709
2090.04	615.67
2091.5	604.631
2092.96	602.592
2094.41	612.553
2095.87	611.514
2097.32	625.475
2098.77	638.436
2100.23	600.397
2101.68	624.357
2103.14	613.318
2104.59	615.279
2106.04	610.24
2107.5	614.201
2108.95	620.162
2110.4	640.123
2111.85	600.084
2113.3	584.044
2114.76	624.005
2116.21	621.966
2117.66	624.927
2119.11	617.888
2120.56	615.849
2122.01	625.81
2123.46	615.771
2124.91	613.731
2126.36	619.692
2127.81	607.653
2129.25	609.614
2130.7	600.575
2132.15	603.536
2133.6	600.497
2135.05	604.458
2136.5	612.419
2137.94	617.379
2139.39	622.34
2140.84	613.301
2142.28	599.262
2143.73	617.223
2145.17	591.184
2146.62	613.145
2148.07	591.106
2149.51	622.066
2150.96	617.027
2152.4	626.988
2153.84	624.949
2155.29	601.91
2156.73	598.871
2158.18	602.832
2159.62	617.793
2161.06	602.753
2162.5	612.714
2163.95	622.675
2165.39	613.636
2166.83	615.597
2168.27	613.558
2169.71	627.519
2171.16	613.48
2172.6	623.44
2174.04	618.401
2175.48	629.362
2176.92	600.323
2178.36	610.284
2179.8	604.245
2181.24	600.206
2182.68	627.167
2184.11	615.128
2185.55	603.088
2186.99	630.049
2188.43	598.01
2189.87	608.971
2191.3	635.932
2192.74	601.893
2194.18	605.854
2195.61	625.815
2197.05	606.775
2198.49	606.736
2199.92	610.697
2201.36	622.658
2202.79	622.619
2204.23	617.58
2205.66	605.541
2207.1	619.502
2208.53	629.462
2209.97	619.423
2211.4	608.384
2212.84	624.345
2214.27	605.306
2215.7	615.267
2217.13	601.228
2218.57	627.189
2220	598.149
2221.43	602.11
2222.86	595.071
2224.29	612.032
2225.72	598.993
2227.16	616.954
2228.59	616.915
2230.02	615.876
2231.45	626.837
2232.88	590.797
2234.31	616.758
2235.74	594.719
2237.16	579.68
2238.59	598.641
2240.02	605.602
2241.45	613.563
2242.88	598.524
2244.31	611.484
2245.73	613.445
2247.16	598.406
2248.59	605.367
2250.02	593.328
2251.44	583.289
2252.87	576.25
2254.29	584.211
2255.72	592.171
2257.15	596.132
2258.57	591.093
2260	599.054
2261.42	580.015
2262.85	595.976
2264.27	599.937
2265.69	585.898
2267.12	583.859
2268.54	612.819
2269.96	569.78
2271.39	586.741
2272.81	591.702
2274.23	600.663
2275.65	581.624
2277.08	585.585
2278.5	605.546
2279.92	591.506
2281.34	569.467
2282.76	589.428
2284.18	611.389
2285.6	579.35
2287.02	585.311
2288.44	600.272
2289.86	588.233
2291.28	605.193
2292.7	600.154
2294.12	607.115
2295.54	581.076
2296.95	600.037
2298.37	586.998
2299.79	602.959
2301.21	583.92
2302.62	586.88
2304.04	596.841
2305.46	600.802
2306.88	588.763
2308.29	596.724
2309.71	598.685
2311.12	605.646
2312.54	610.607
2313.95	617.568
2315.37	592.528
2316.78	592.489
2318.2	592.45
2319.61	605.411
2321.03	600.372
2322.44	628.333
2323.85	622.294
2325.27	630.255
2326.68	659.215
2328.09	677.176
2329.5	694.137
2330.92	646.098
2332.33	600.059
2333.74	611.02
2335.15	595.981
2336.56	614.942
2337.97	603.902
2339.38	615.863
2340.79	632.824
2342.2	603.785
2343.61	590.746
2345.02	590.707
2346.43	604.668
2347.84	602.629
2349.25	607.59
2350.66	601.55
2352.07	608.511
2353.48	608.472
2354.88	615.433
2356.29	601.394
2357.7	600.355
2359.11	583.316
2360.51	603.277
2361.92	595.237
2363.32	592.198
2364.73	588.159
2366.14	602.12
2367.54	579.081
2368.95	618.042
2370.35	602.003
2371.76	580.964
2373.16	609.924
2374.57	595.885
2375.97	586.846
2377.37	596.807
2378.78	600.768
2380.18	613.729
2381.58	596.69
2382.99	578.651
2384.39	586.611
2385.79	590.572
2387.19	591.533
2388.59	577.494
2390	589.455
2391.4	570.416
2392.8	596.377
2394.2	592.338
2395.6	588.299
2397	587.259
2398.4	579.22
2399.8	604.181
2401.2	604.142
2402.6	564.103
2404	586.064
2405.4	598.025
2406.79	586.986
2408.19	584.946
2409.59	581.907
2410.99	581.868
2412.39	597.829
2413.78	593.79
2415.18	589.751
2416.57	576.712
2417.97	569.673
2419.37	597.633
2420.76	601.594
2422.16	582.555
2423.55	589.516
2424.95	619.477
2426.35	597.438
2427.74	588.399
2429.13	608.36
2430.53	594.321
2431.92	610.281
2433.32	586.242
2434.71	607.203
2436.1	593.164
2437.49	605.125
2438.89	588.086
2440.28	600.047
2441.67	607.008
2443.06	604.968
2444.46	584.929
2445.85	593.89
2447.24	600.851
2448.63	591.812
2450.02	614.773
2451.41	589.734
2452.8	604.695
2454.19	597.656
2455.58	614.616
2456.97	604.577
2458.36	597.538
2459.75	608.499
2461.14	586.46
2462.52	618.421
2463.91	618.382
2465.3	586.342
2466.69	619.303
2468.08	600.264
2469.46	588.225
2470.85	606.186
2472.24	614.147
2473.62	590.108
2475.01	599.069
2476.39	620.029
2477.78	594.99
2479.17	595.951
2480.55	619.912
2481.94	608.873
2483.32	623.834
2484.71	627.795
2486.09	615.756
2487.47	589.717
2488.86	609.677
2490.24	611.638
2491.62	621.599
2493.01	615.56
2494.39	586.521
2495.77	611.482
2497.15	607.443
2498.53	622.404
2499.92	612.365
2501.3	590.325
2502.68	596.286
2504.06	587.247
2505.44	623.208
2506.82	597.169
2508.2	600.13
2509.58	598.091
2510.96	613.052
2512.34	629.012
2513.72	608.973
2515.1	597.934
2516.48	598.895
2517.86	600.856
2519.23	580.817
2520.61	614.778
2521.99	608.739
2523.37	592.7
2524.74	606.66
2526.12	597.621
2527.5	599.582
2528.88	585.543
2530.25	589.504
2531.63	597.465
2533	592.426
2534.38	590.387
2535.75	614.347
2537.13	614.308
2538.5	596.269
2539.88	599.23
2541.25	588.191
2542.63	598.152
2544	603.113
2545.37	603.073
2546.75	607.034
2548.12	580.995
2549.49	607.956
2550.87	581.917
2552.24	611.878
2553.61	607.839
2554.98	590.8
2556.35	600.761
2557.72	587.721
2559.09	617.682
2560.47	611.643
2561.84	590.604
2563.21	600.565
2564.58	607.526
2565.95	598.487
2567.32	605.448
2568.69	583.408
2570.06	621.369
2571.42	607.33
2572.79	596.291
2574.16	611.252
2575.53	603.213
2576.9	607.174
2578.26	593.135
2579.63	620.096
2581	608.056
2582.37	615.017
2583.73	582.978
2585.1	615.939
2586.47	622.9
2587.83	625.861
2589.2	622.822
2590.56	600.783
2591.93	633.743
2593.29	629.704
2594.66	616.665
2596.02	602.626
2597.39	597.587
2598.75	612.548
2600.11	608.509
2601.48	614.47
2602.84	582.43
2604.2	629.391
2605.57	615.352
2606.93	623.313
2608.29	621.274
2609.65	590.235
2611.02	612.196
2612.38	630.157
2613.74	629.118
2615.1	640.078
2616.46	608.039
2617.82	620
2619.18	615.961
2620.54	631.922
2621.9	606.883
2623.26	633.844
2624.62	620.805
2625.98	621.765
2627.34	623.726
2628.7	623.687
2630.05	604.648
2631.41	618.609
2632.77	619.57
2634.13	621.531
2635.49	619.492
2636.84	633.452
2638.2	619.413
2639.56	603.374
2640.91	607.335
2642.27	647.296
2643.63	631.257
2644.98	627.218
2646.34	621.179
2647.69	618.139
2649.05	629.1
2650.4	641.061
2651.76	623.022
2653.11	616.983
2654.47	620.944
2655.82	611.905
2657.17	614.866
2658.53	606.827
2659.88	621.787
2661.23	604.748
2662.58	631.709
2663.94	611.67
2665.29	628.631
2666.64	612.592
2667.99	620.553
2669.34	619.514
2670.7	630.474
2672.05	641.435
2673.4	640.396
2674.75	598.357
2676.1	638.318
2677.45	605.279
2678.8	623.24
2680.15	632.201
2681.5	622.161
2682.85	621.122
2684.19	635.083
2685.54	631.044
2686.89	620.005
2688.24	620.966
2689.59	619.927
2690.93	631.888
2692.28	618.849
2693.63	616.809
2694.98	625.77
2696.32	613.731
2697.67	621.692
2699.02	613.653
2700.36	608.614
2701.71	619.575
2703.05	625.536
2704.4	605.496
2705.74	617.457
2707.09	617.418
2708.43	620.379
2709.78	615.34
2711.12	613.301
2712.46	593.262
2713.81	625.223
2715.15	628.183
2716.49	622.144
2717.84	631.105
2719.18	610.066
2720.52	637.027
2721.86	631.988
2723.21	618.949
2724.55	615.91
2725.89	620.871
2727.23	642.831
2728.57	618.792
2729.91	628.753
2731.25	623.714
2732.59	658.675
2733.93	620.636
2735.27	630.597
2736.61	625.558
2737.95	627.518
2739.29	620.479
2740.63	622.44
2741.97	638.401
2743.3	607.362
2744.64	603.323
2745.98	628.284
2747.32	628.245
2748.66	636.205
2749.99	632.166
2751.33	610.127
2752.67	625.088
2754	631.049
2755.34	611.01
2756.67	625.971
2758.01	638.932
2759.34	611.893
2760.68	637.853
2762.02	611.814
2763.35	639.775
2764.69	631.736
2766.02	656.697
2767.35	650.658
2768.69	620.619
2770.02	641.579
2771.35	647.54
2772.69	643.501
2774.02	639.462
2775.35	639.423
2776.68	597.384
2778.02	639.345
2779.35	613.306
2780.68	649.267
2782.01	632.227
2783.34	623.188
2784.67	641.149
2786.01	638.11
2787.34	635.071
2788.67	650.032
2790	639.993
2791.33	632.954
2792.66	655.914
2793.98	642.875
2795.31	643.836
2796.64	664.797
2797.97	623.758
2799.3	650.719
2800.63	646.68
2801.96	640.641
2803.28	648.602
2804.61	640.562
2805.94	636.523
2807.27	643.484
2808.59	632.445
2809.92	634.406
2811.24	618.367
2812.57	633.328
2813.9	641.289
2815.22	636.249
2816.55	616.21
2817.87	624.171
2819.2	630.132
2820.52	624.093
2821.85	642.054
2823.17	648.015
2824.5	639.976
2825.82	630.936
2827.14	657.897
2828.47	640.858
2829.79	647.819
2831.11	651.78
2832.43	652.741
2833.76	635.702
2835.08	641.663
2836.4	649.623
2837.72	650.584
2839.04	632.545
2840.36	638.506
2841.68	633.467
2843.01	631.428
2844.33	655.389
2845.65	654.35
2846.97	649.31
2848.29	641.271
2849.61	625.232
2850.92	639.193
2852.24	650.154
2853.56	631.115
2854.88	647.076
2856.2	658.037
2857.52	653.998
2858.84	643.958
2860.15	638.919
2861.47	635.88
2862.79	636.841
2864.1	672.802
2865.42	662.763
2866.74	653.724
2868.05	640.685
2869.37	653.645
2870.69	671.606
2872	618.567
2873.32	648.528
2874.63	629.489
2875.95	639.45
2877.26	631.411
2878.58	657.372
2879.89	638.333
2881.2	654.293
2882.52	646.254
2883.83	632.215
2885.15	630.176
2886.46	649.137
2887.77	646.098
2889.08	622.059
2890.4	642.02
2891.71	644.98
2893.02	657.941
2894.33	649.902
2895.64	625.863
2896.95	647.824
2898.27	615.785
2899.58	639.746
2900.89	649.707
2902.2	651.667
2903.51	639.628
2904.82	639.589
2906.13	659.55
2907.44	654.511
2908.74	666.472
2910.05	652.433
2911.36	652.394
2912.67	644.354
2913.98	664.315
2915.29	660.276
2916.59	671.237
2917.9	679.198
2919.21	666.159
2920.52	663.12
2921.82	654.081
2923.13	652.042
2924.44	619.002
2925.74	650.963
2927.05	643.924
2928.35	668.885
2929.66	668.846
2930.96	660.807
2932.27	654.768
2933.57	650.729
2934.88	642.689
2936.18	650.65
2937.49	638.611
2938.79	664.572
2940.09	646.533
2941.4	638.494
2942.7	657.455
2944	634.416
2945.31	622.376
2946.61	641.337
2947.91	646.298
2949.21	635.259
2950.52	660.22
2951.82	639.181
2953.12	629.22
2954.42	660.84
2955.72	659.714
2957.02	663.189
2958.32	649.505
2959.62	628.457
2960.92	624.804
2962.22	647.13
2963.52	650.11
2964.82	626.766
2966.12	665.806
2967.42	631.882
2968.72	641.4
2970.01	659.974
2971.31	633.999
2972.61	649.663
2973.91	642.652
2975.21	651.22
2976.5	648.783
2977.8	649.209
2979.1	645.649
2980.39	647.208
2981.69	643.291
2982.99	637.856
2984.28	643.336
2985.58	651.532
2986.87	646.486
2988.17	655.594
2989.46	633.123
2990.76	646.432
2992.05	647.761
2993.35	647.845
2994.64	629.966
2995.94	646.984
2997.23	645.44
2998.52	652.479
2999.82	623.407
3001.11	648.701
3002.4	634.987
3003.69	655.945
3004.98	643.929
3006.28	632.073
3007.57	644.064
3008.86	649.696
3010.15	661.153
3011.44	644.45
3012.73	653.305
3014.03	654.603
3015.32	634.887
3016.61	640.057
3017.9	656.681
3019.19	641.335
3020.48	648.866
3021.76	646.486
3023.05	645.096
3024.34	657.728
3025.63	640.793
3026.92	648.816
3028.21	646.409
3029.5	637.778
3030.78	641.661
3032.07	648.236
3033.36	643.493
3034.65	654.868
3035.93	640.599
3037.22	641.43
3038.51	642.589
3039.79	637.083
3041.08	645.065
3042.36	655.546
3043.65	642.365
3044.93	634.827
3046.22	644.913
3047.5	668.413
3048.79	642.008
3050.07	629.555
3051.36	649.165
3052.64	640.518
3053.92	639.42
3055.21	646.185
3056.49	622.831
3057.77	641.631
3059.06	640.913
3060.34	642.468
3061.62	646.808
3062.9	655.239
3064.19	649.483
3065.47	632.735
3066.75	641.561
3068.03	657.07
3069.31	643.941
3070.59	641.083
3071.87	649.818
3073.15	654.794
3074.43	650.324
3075.71	639.643
3076.99	631.154
3078.27	629.277
3079.55	654.63
3080.83	645.871
3082.11	646.173
3082.26	646.424
3083.54	644.417
3084.83	645.411
3086.11	644.404
3087.39	647.398
3088.68	647.392
3089.96	663.385
3091.24	636.379
3092.53	649.373
3093.81	645.366
3095.09	642.36
3096.38	626.353
3097.66	656.347
3098.94	630.341
3100.22	636.334
3101.5	626.328
3102.79	649.322
3104.07	624.315
3105.35	644.309
3106.63	648.302
3107.91	650.296
3109.19	658.29
3110.47	650.283
3111.75	646.277
3113.03	640.271
3114.31	648.264
3115.59	646.258
3116.86	651.251
3118.14	640.245
3119.42	674.239
3120.7	642.232
3121.98	645.226
3123.26	636.219
3124.53	664.213
3125.81	634.207
3127.09	657.2
3128.36	649.194
3129.64	660.188
3130.92	648.181
3132.19	638.175
3133.47	622.169
3134.75	647.162
3136.02	632.156
3137.3	625.149
3138.57	659.143
3139.85	666.137
3141.12	651.13
3142.4	645.124
3143.67	659.118
3144.95	650.111
3146.22	630.105
3147.49	642.098
3148.77	652.092
3150.04	670.086
3151.31	642.079
3152.58	648.073
3153.86	653.067
3155.13	635.06
3156.4	652.054
3157.67	646.047
3158.94	642.041
3160.22	638.035
3161.49	636.028
3162.76	643.022
3164.03	653.016
3165.3	674.009
3166.57	648.003
3167.84	663.996
3169.11	641.99
3170.38	645.984
3171.65	637.977
3172.92	641.971
3174.19	647.964
3175.46	651.958
3176.72	643.952
3177.99	653.945
3179.26	660.939
3180.53	635.933
3181.8	649.926
3183.07	649.92
3184.33	651.913
3185.6	630.907
3186.87	646.901
3188.13	645.894
3189.4	630.888
3190.67	649.882
3191.93	649.875
3193.2	655.869
3194.46	653.862
3195.73	661.856
3196.99	644.85
3198.26	627.843
3199.52	647.837
3200.79	645.831
3202.05	647.824
3203.32	634.818
3204.58	633.811
3205.84	627.805
3207.11	637.799
3208.37	621.792
3209.63	636.786
3210.9	640.78
3212.16	625.773
3213.42	613.767
3214.68	650.76
3215.95	615.754
3217.21	628.748
3218.47	630.741
3219.73	641.735
3220.99	626.729
3222.25	659.722
3223.51	648.716
3224.77	651.709
3226.03	601.703
3227.29	639.697
3228.55	632.69
3229.81	627.684
3231.07	631.677
3232.33	626.671
3233.59	631.665
3234.85	641.658
3236.11	623.652
3237.36	633.646
3238.62	627.639
3239.88	627.633
3241.14	613.626
3242.4	639.62
3243.65	623.614
3244.91	613.607
3246.17	626.601
3247.42	635.595
3248.68	629.588
3249.94	638.582
3251.19	624.575
3252.45	654.569
3253.7	610.563
3254.96	642.556
3256.21	623.55
3257.47	638.544
3258.72	627.537
3259.98	627.531
3261.23	622.524
3262.48	629.518
3263.74	638.512
3264.99	629.505
3266.25	630.499
3267.5	625.493
3268.75	624.486
3270	640.48
3271.26	625.473
3272.51	628.467
3273.76	643.461
3275.01	625.454
3276.26	637.448
3277.52	651.442
3278.77	629.435
3280.02	649.429
3281.27	665.422
3282.52	623.416
3283.77	633.41
3285.02	631.403
3286.27	624.397
3287.52	614.391
3288.77	625.384
3290.02	623.378
3291.27	635.371
3292.52	624.365
3293.76	661.359
3295.01	631.352
3296.26	660.346
3297.51	660.339
3298.76	627.333
3300	639.327
3301.25	640.32
3302.5	650.314
3303.74	625.308
3304.99	641.301
3306.24	649.295
3307.48	637.288
3308.73	626.282
3309.98	645.276
3311.22	623.269
3312.47	637.263
3313.71	646.257
3314.96	637.25
3316.2	615.244
3317.45	642.237
3318.69	657.231
3319.94	634.225
3321.18	635.218
3322.42	615.212
3323.67	633.206
3324.91	631.199
3326.15	633.193
3327.4	604.186
3328.64	631.18
3329.88	623.174
3331.12	631.167
3332.36	629.161
3333.61	631.155
3334.85	645.148
3336.09	638.142
3337.33	624.135
3338.57	628.129
3339.81	629.123
3341.05	638.116
3342.29	630.11
3343.53	632.104
3344.77	613.097
3346.01	632.091
3347.25	626.084
3348.49	639.078
3349.73	631.072
3350.97	627.065
3352.21	644.059
3353.45	636.053
3354.69	634.046
3355.92	616.04
3357.16	612.033
3358.4	601.027
3359.64	605.021
3360.87	632.014
3362.11	617.008
3363.35	629.002
3364.58	610.995
3365.82	598.989
3367.06	618.982
3368.29	622.976
3369.53	608.97
3370.76	592.963
3372	608.957
3373.24	610.951
3374.47	623.944
3375.7	627.938
3376.94	604.931
3378.17	600.925
3379.41	600.919
3380.64	582.912
3381.88	592.906
3383.11	619.9
3384.34	630.893
3385.57	623.887
3386.81	638.88
3388.04	612.874
3389.27	606.868
3390.5	615.861
3391.74	634.855
3392.97	609.849
3394.2	607.842
3395.43	616.836
3396.66	606.829
3397.89	606.823
3399.12	629.817
3400.35	620.81
3401.58	611.804
3402.81	620.797
3404.04	640.791
3405.27	616.785
3406.5	617.778
3407.73	607.772
3408.96	596.766
3410.19	632.759
3411.42	590.753
3412.65	628.746
3413.88	634.74
3415.1	580.734
3416.33	618.727
3417.56	623.721
3418.79	624.715
3420.01	627.708
3421.24	618.702
3422.47	608.695
3423.69	620.689
3424.92	634.683
3426.15	621.676
3427.37	631.67
3428.6	612.664
3429.82	624.657
3431.05	634.651
3432.27	620.644
3433.5	635.638
3434.72	613.632
3435.95	623.625
3437.17	638.619
3438.4	635.613
3439.62	614.606
3440.84	617.6
3442.07	636.593
3443.29	626.587
3444.51	604.581
3445.74	626.574
3446.96	621.568
3448.18	610.562
3449.4	612.555
3450.63	634.549
3451.85	642.542
3453.07	637.536
3454.29	614.53
3455.51	624.523
3456.73	635.517
3457.95	630.51
3459.17	640.504
3460.4	614.498
3461.61	606.491
3462.84	624.485
3464.05	626.479
3465.27	622.472
3466.49	636.466
3467.71	618.46
3468.93	607.453
3470.15	637.447
3471.37	636.44
3472.59	627.434
3473.8	637.428
3475.02	631.421
3476.24	621.415
3477.46	646.409
3478.68	610.402
3479.89	625.396
3481.11	642.389
3482.33	609.383
3483.54	632.377
3484.76	620.37
3485.97	622.364
3487.19	602.357
3488.41	637.351
3489.62	612.345
3490.84	611.338
3492.05	647.332
3493.27	626.326
3494.48	628.319
3495.7	621.313
3496.91	617.306
3498.12	618.3
3499.34	630.294
3500.55	621.287
3501.76	622.281
3502.98	594.275
3504.19	623.268
3505.4	608.262
3506.62	607.255
3507.83	628.249
3509.04	618.243
3510.25	605.236
3511.47	602.23
3512.68	618.224
3513.89	593.217
3515.1	619.211
3516.31	604.204
3517.52	602.198
3518.73	574.192
3519.94	617.185
3521.15	605.179
3522.36	627.173
3523.57	588.166
3524.78	597.16
3525.99	615.153
3527.2	617.147
3528.41	596.141
3529.62	612.134
3530.82	602.128
3532.03	607.122
3533.24	592.115
3534.45	610.109
3535.66	619.102
3536.86	624.096
3538.07	610.09
3539.28	596.083
3540.49	584.077
3541.69	592.07
3542.9	603.064
3544.1	607.058
3545.31	610.051
3546.52	586.045
3547.72	599.039
3548.93	595.032
3550.13	599.026
3551.34	604.02
3552.54	596.013
3553.75	613.007
3554.95	578
3556.16	597.994
3557.36	606.988
3558.56	605.981
3559.77	604.975
3560.97	605.969
3562.17	596.962
3563.38	603.956
3564.58	588.949
3565.78	599.943
3566.99	617.937
3568.19	601.93
3569.39	624.924
3570.59	601.917
3571.79	571.911
3572.99	597.905
3574.2	599.898
3575.4	601.892
3576.6	613.886
3577.8	607.879
3579	599.873
3580.2	595.866
3581.4	608.86
3582.6	610.854
3583.8	617.847
3585	593.841
3586.2	620.835
3587.4	609.828
3588.59	598.822
3589.79	598.815
3590.99	595.809
3592.19	605.803
3593.39	603.796
3594.58	628.79
3595.78	604.784
3596.98	616.777
3598.18	609.771
3599.37	620.764
3600.57	619.758
3601.77	614.752
3602.96	614.745
3604.16	609.739
3605.35	624.733
3606.55	609.726
3607.75	607.72
3608.94	611.713
3610.14	629.707
3611.33	617.701
3612.53	577.694
3613.72	608.688
3614.92	595.682
3616.11	610.675
3617.3	606.669
3618.5	599.662
3619.69	596.656
3620.88	593.65
3622.08	604.643
3623.27	609.637
3624.46	627.63
3625.66	621.624
3626.85	637.618
3628.04	619.611
3629.23	593.605
3630.42	628.599
3631.62	611.592
3632.81	600.586
3634	607.579
3635.19	607.573
3636.38	622.567
3637.57	618.56
3638.76	619.554
3639.95	604.548
3641.14	595.541
3642.33	606.535
3643.52	581.529
3644.71	617.522
3645.9	619.516
3647.09	618.509
3648.28	603.503
3649.47	606.497
3650.65	600.49
3651.84	605.484
3653.03	611.477
3654.22	596.471
3655.41	608.465
3656.59	608.458
3657.78	612.452
3658.97	593.446
3660.15	620.439
3661.34	604.433
3662.53	611.426
3663.71	609.42
3664.9	590.414
3666.09	584.407
3667.27	598.401
3668.46	588.395
3669.64	579.388
3670.83	592.382
3672.01	593.375
3673.2	589.369
3674.38	609.363
3675.56	617.356
3676.75	596.35
3677.93	597.344
3679.12	569.337
3680.3	590.331
3681.48	581.324
3682.67	600.318
3683.85	594.312
3685.03	593.305
3686.21	595.299
3687.4	586.293
3688.58	593.286
3689.76	575.28
3690.94	595.273
3692.12	571.267
3693.3	589.261
3694.49	597.254
3695.67	584.248
3696.85	585.242
3698.03	590.235
3699.21	591.229
3700.39	588.222
3701.57	582.216
3702.75	587.21
3703.93	581.203
3705.11	598.197
3706.28	577.19
3707.46	585.184
3708.64	582.178
3709.82	599.171
3711	573.165
3712.18	586.159
3713.36	586.152
3714.53	575.146
3715.71	589.14
3716.89	595.133
3718.07	592.127
3719.24	596.12
3720.42	589.114
3721.6	596.108
3722.77	581.101
3723.95	591.095
3725.12	589.089
3726.3	581.082
3727.48	590.076
3728.65	609.069
3729.83	605.063
3731	597.057
3732.18	595.05
3733.35	603.044
3734.53	596.037
3735.7	592.031
3736.87	593.025
3738.05	606.018
3739.22	605.012
3740.39	582.006
3741.57	615.999
3742.74	608.993
3743.91	599.986
3745.09	597.98
3746.26	596.974
3747.43	600.967
3748.6	614.961
3749.77	599.955
3750.95	586.948
3752.12	598.942
3753.29	588.935
3754.46	610.929
3755.63	596.923
3756.8	608.916
3757.97	580.91
3759.14	616.904
3760.31	606.897
3761.48	584.891
3762.65	602.884
3763.82	608.878
3764.99	610.872
3766.16	589.865
3767.33	599.859
3768.5	593.853
3769.67	602.846
3770.83	617.84
3772	592.833
3773.17	605.827
3774.34	576.821
3775.51	593.814
3776.67	582.808
3777.84	602.802
3779.01	601.795
3780.18	560.789
3781.34	580.782
3782.51	587.776
3783.67	611.77
3784.84	598.763
3786.01	576.757
3787.17	604.75
3788.34	599.744
3789.5	590.738
3790.67	562.731
3791.83	603.725
3793	600.719
3794.16	576.712
3795.33	580.706
3796.49	580.699
3797.65	596.693
3798.82	580.687
3799.98	572.68
3801.14	595.674
3802.31	589.668
3803.47	589.661
3804.63	574.655
3805.8	575.648
3806.96	576.642
3808.12	576.636
3809.28	574.629
3810.44	582.623
3811.61	587.617
3812.77	578.61
3813.93	594.604
3815.09	563.597
3816.25	596.591
3817.41	590.585
3818.57	582.578
3819.73	577.572
3820.89	577.566
3822.05	560.559
3823.21	566.553
3824.37	572.546
3825.53	574.54
3826.69	546.534
3827.85	572.527
3829.01	575.521
3830.17	578.515
3831.32	574.508
3832.48	582.502
3833.64	574.495
3834.8	562.489
3835.96	570.483
3837.11	573.476
3838.27	555.47
3839.43	559.464
3840.58	563.457
3841.74	564.451
3842.9	562.444
3844.05	588.438
3845.21	572.432
3846.36	584.425
3847.52	566.419
3848.68	572.412
3849.83	562.406
3850.99	554.4
3852.14	561.393
3853.29	572.387
3854.45	580.381
3855.6	567.374
3856.76	563.368
3857.91	573.362
3859.07	574.355
3860.22	568.349
3861.37	578.342
3862.53	556.336
3863.68	574.33
3864.83	581.323
3865.98	548.317
3867.14	578.31
3868.29	562.304
3869.44	568.298
3870.59	585.291
3871.74	574.285
3872.9	581.279
3874.05	573.272
3875.2	582.266
3876.35	578.259
3877.5	572.253
3878.65	586.247
3879.8	568.24
3880.95	563.234
3882.1	574.228
3883.25	572.221
3884.4	575.215
3885.55	572.208
3886.7	563.202
3887.85	579.196
3889	570.189
3890.14	588.183
3891.29	580.177
3892.44	568.17
3893.59	582.164
3894.74	564.157
3895.89	557.151
3897.03	580.145
3898.18	575.138
3899.33	567.132
3900.47	571.126
3901.62	564.119
3902.77	580.113
3903.91	574.106
3905.06	572.1
3906.21	573.094
3907.35	584.087
3908.5	566.081
3909.64	580.075
3910.79	573.068
3911.93	554.062
3913.08	602.055
3914.22	571.049
3915.37	576.043
3916.51	577.036
3917.66	589.03
3918.8	576.023
3919.94	583.017
3921.09	572.011
3922.23	566.004
3923.37	581.998
3924.52	571.992
3925.66	579.985
3926.8	584.979
3927.94	551.973
3929.09	553.966
3930.23	575.96
3931.37	579.953
3932.51	580.947
3933.65	563.941
3934.79	583.934
3935.93	575.928
3937.08	581.922
3938.22	587.915
3939.36	581.909
3940.5	573.902
3941.64	584.896
3942.78	571.89
3943.92	574.883
3945.06	561.877
3946.2	561.87
3947.33	557.864
3948.47	545.858
3949.61	567.851
3950.75	574.845
3951.89	585.839
3953.03	569.832
3954.17	561.826
3955.3	559.819
3956.44	537.813
3957.58	561.807
3958.72	580.8
3959.85	572.794
3960.99	565.788
3962.13	567.781
3963.26	574.775
3964.4	554.768
3965.54	560.762
3966.67	561.756
3967.81	545.749
3968.94	536.743
3970.08	555.737
3971.21	553.73
3972.35	541.724
3973.48	537.717
3974.62	553.711
3975.75	573.705
3976.89	551.698
3978.02	550.692
3979.16	544.686
3980.29	563.679
3981.42	566.673
3982.56	561.666
3983.69	553.66
3984.82	543.654
3985.96	558.647
3987.09	547.641
3988.22	537.635
3989.35	535.628
3990.49	549.622
3991.62	541.615
3992.75	565.609
3993.88	551.603
3995.01	547.596
3996.14	553.59
3997.27	541.583
3998.4	547.577
3999.54	538.571
