#Acq. time (s)=	25
#Accumulations=	3
#Range (cm-¹)=	100...4000
#Windows=	3
#Autofocus=	Off
#AutoExposure=	Off
#Spike filter=	Multiple accum.
#Delay time (s)=	0
#Binning=	1
#Readout mode=	Signal
#DeNoise=	Off
#ICS correction=	Off
#Dark correction=	Off
#Inst. Process=	Off
#Instrument=	LabRAM HR Evol
#Detector=	Syncerity OE
#Objective=	x100_VIS
#Grating=	600 (500nm)
#ND Filter=	50%
#Laser=	532nm_Edge
#Hole=	150.001
#Range=	Visible
#Project=	Omar
#Sample=	
#Site=	27-04-23
#Title=	roy_mg
#Remark=	
#Date=	27.04.2023 16:28
#Acquired=	27.04.2023 16:28:02
101.48	284
103.316	317.983
105.149	357.966
106.984	345.949
108.817	325.933
110.651	298.916
112.483	296.899
114.315	320.882
116.148	325.865
117.979	304.848
119.811	309.832
121.641	315.815
123.471	321.798
125.302	293.781
127.131	285.764
128.96	291.747
130.79	295.73
132.618	279.714
134.448	281.697
136.275	312.68
138.102	325.663
139.93	305.646
141.757	285.629
143.582	281.612
145.41	291.596
147.235	295.579
149.059	292.562
150.884	289.545
152.71	301.528
154.533	299.511
156.357	287.495
158.182	263.478
160.004	293.461
161.826	297.444
163.648	286.427
165.472	289.41
167.293	266.393
169.114	281.377
170.934	290.36
172.754	287.343
174.576	287.326
176.395	285.309
178.214	293.292
180.033	283.275
181.851	282.259
183.671	297.242
185.489	305.225
187.306	291.208
189.123	287.191
190.939	293.174
192.755	281.158
194.573	283.141
196.389	283.124
198.204	307.107
200.018	295.09
201.833	296.073
203.647	302.056
205.46	314.04
207.274	301.023
209.087	315.006
210.899	312.989
212.714	319.972
214.525	318.955
216.337	327.938
218.148	328.922
219.959	312.905
221.769	315.888
223.58	298.871
225.389	296.854
227.199	300.837
229.008	297.82
230.816	290.804
232.625	309.787
234.433	302.77
236.24	292.753
238.048	292.736
239.855	302.719
241.661	300.703
243.468	297.686
245.273	296.669
247.079	320.652
248.884	295.635
250.689	315.618
252.493	305.601
254.295	302.585
256.099	276.568
257.903	298.551
259.706	292.534
261.509	306.517
263.311	309.5
265.113	312.483
266.915	315.467
268.716	300.45
270.515	326.433
272.315	299.416
274.116	315.399
275.916	308.382
277.715	334.366
279.514	315.349
281.313	316.332
283.11	316.315
284.908	304.298
286.706	296.281
288.503	300.264
290.3	310.248
292.095	297.231
293.891	310.214
295.688	304.197
297.483	290.18
299.277	284.163
301.072	296.146
302.866	296.13
304.661	285.113
306.453	295.096
308.246	298.079
310.039	302.062
311.832	292.045
313.623	292.029
315.415	272.012
317.207	297.995
318.997	287.978
320.788	281.961
322.579	279.944
324.367	260.927
326.157	251.911
327.947	266.894
329.734	256.877
331.524	251.86
333.312	253.843
335.099	266.826
336.887	262.81
338.673	243.793
340.46	241.776
342.247	267.759
344.032	259.742
345.818	246.725
347.602	251.708
349.388	244.692
351.173	251.675
352.956	241.658
354.74	257.641
356.523	247.624
358.307	247.607
360.088	249.59
361.871	242.574
363.652	252.557
365.435	251.54
367.215	265.523
368.997	257.506
370.776	262.489
372.557	249.473
374.336	233.456
376.117	246.439
377.895	239.422
379.675	241.405
381.452	260.388
383.231	255.371
385.008	258.355
386.786	251.338
388.562	243.321
390.338	245.304
392.115	267.287
393.89	240.27
395.667	241.253
397.441	247.237
399.215	255.22
400.991	251.203
402.764	260.186
404.537	245.169
406.312	261.152
408.084	241.136
409.858	252.119
411.63	242.102
413.401	249.085
415.174	227.068
416.944	237.051
418.715	247.034
420.485	247.018
422.256	235.001
424.025	237.984
425.794	236.967
427.565	242.95
429.333	242.933
431.101	248.916
432.868	254.9
434.637	230.883
436.404	244.866
438.171	245.849
439.937	235.832
441.705	241.815
443.47	248.799
445.235	239.782
447	244.765
448.764	248.748
450.53	246.731
452.294	239.714
454.058	246.697
455.821	250.681
457.583	244.664
459.346	252.647
461.11	258.63
462.872	245.613
464.633	255.596
466.394	254.579
468.155	246.563
469.915	251.546
471.675	236.529
473.435	246.512
475.196	253.495
476.955	252.478
478.714	261.462
480.472	242.445
482.23	250.428
483.988	255.411
485.745	253.394
487.502	258.377
489.259	244.36
491.015	256.344
492.771	248.327
494.527	242.31
496.282	251.293
498.037	248.276
499.791	238.259
501.546	245.242
503.3	242.226
505.053	243.209
506.807	249.192
508.56	250.175
510.312	248.158
512.064	262.141
513.816	250.125
515.568	231.108
517.319	244.091
519.07	240.074
520.821	242.057
522.569	228.04
524.319	245.023
526.068	258.007
527.818	251.99
529.567	244.973
531.315	249.956
533.063	241.939
534.811	247.922
536.557	248.905
538.304	262.889
540.051	264.872
541.798	251.855
543.544	259.838
545.29	253.821
547.033	261.804
548.778	259.788
550.523	257.771
552.268	262.754
554.012	265.737
555.754	269.72
557.498	257.703
559.241	266.686
560.984	280.67
562.724	267.653
564.466	265.636
566.208	287.619
567.95	278.602
569.689	287.585
571.43	267.568
573.171	265.552
574.909	271.535
576.649	259.518
578.388	277.501
580.126	280.484
581.864	284.467
583.603	273.451
585.339	279.434
587.077	263.417
588.815	267.4
590.55	280.383
592.287	275.366
594.023	299.349
595.758	274.333
597.494	297.316
599.227	289.299
600.962	279.282
602.697	271.265
604.43	289.248
606.164	292.231
607.896	293.215
609.63	303.198
611.361	293.181
613.094	291.164
614.825	293.147
616.557	298.13
618.287	305.114
620.018	293.097
621.748	303.08
623.479	318.063
625.207	293.046
626.938	302.029
628.666	306.012
630.395	278.996
632.123	286.979
633.852	316.962
635.578	320.945
637.307	298.928
639.033	306.911
640.76	310.894
642.486	304.878
644.211	309.861
645.937	305.844
647.662	324.827
649.388	302.81
651.111	308.793
652.835	318.777
654.56	310.76
656.283	320.743
658.005	297.726
659.729	290.709
661.451	306.692
663.172	310.675
664.895	310.659
666.616	316.642
668.336	290.625
670.059	304.608
671.778	308.591
673.498	312.574
675.219	296.557
676.938	323.541
678.656	288.524
680.374	316.507
682.094	300.49
683.812	302.473
685.529	299.456
687.246	298.44
688.964	320.423
690.68	321.406
692.396	309.389
694.112	300.372
695.827	286.355
697.544	303.338
699.258	317.322
700.973	314.305
702.687	314.288
704.4	301.271
706.115	312.254
707.828	320.237
709.541	298.22
711.253	306.204
712.965	302.187
714.677	316.17
716.388	300.153
718.099	306.136
719.81	297.119
721.522	306.103
723.232	306.086
724.942	302.069
726.651	312.052
728.36	307.035
730.069	315.018
731.777	327.001
733.486	304.985
735.193	313.968
736.901	322.951
738.608	303.934
740.315	313.917
742.021	315.9
743.727	319.883
745.433	287.867
747.139	305.85
748.844	313.833
750.549	323.816
752.253	297.799
753.957	305.782
755.661	311.766
757.365	324.749
759.068	324.732
760.771	321.715
762.474	297.698
764.174	292.681
765.876	311.664
767.577	324.648
769.279	320.631
770.98	313.614
772.68	319.597
774.381	320.58
776.081	307.563
777.779	315.546
779.478	321.53
781.177	323.513
782.876	314.496
784.574	323.479
786.272	323.462
787.968	315.445
789.666	325.429
791.363	303.412
793.06	293.395
794.754	313.378
796.45	312.361
798.146	316.344
799.842	307.327
801.537	309.311
803.23	289.294
804.924	320.277
806.619	319.26
808.311	315.243
810.004	334.226
811.698	321.209
813.391	315.193
815.081	315.176
816.774	317.159
818.466	311.142
820.156	303.125
821.847	311.108
823.538	332.092
825.227	318.075
826.917	291.058
828.605	316.041
830.295	323.024
831.985	321.007
833.672	302.99
835.361	317.974
837.047	296.957
838.736	288.94
840.424	317.923
842.109	314.906
843.797	313.889
845.482	320.872
847.168	310.856
848.853	328.839
850.539	306.822
852.222	304.805
853.908	298.788
855.591	300.771
857.275	315.755
858.958	276.738
860.642	297.721
862.324	305.704
864.007	294.687
865.689	312.67
867.371	290.653
869.052	318.637
870.734	304.62
872.414	291.603
874.096	295.586
875.775	300.569
877.454	284.552
879.135	294.535
880.813	300.519
882.493	304.502
884.171	290.485
885.848	278.468
887.527	290.451
889.204	289.434
890.881	329.418
892.559	286.401
894.235	296.384
895.91	296.367
897.587	304.35
899.262	309.333
900.937	284.316
902.613	291.3
904.287	286.283
905.961	305.266
907.634	288.249
909.309	290.232
910.982	282.215
912.654	302.199
914.326	297.182
916	280.165
917.671	285.148
919.343	288.131
921.013	260.114
922.686	276.097
924.356	282.081
926.026	274.064
927.696	276.047
929.365	278.03
931.034	268.013
932.704	271.996
934.373	290.979
936.041	280.963
937.708	289.946
939.376	281.929
941.043	294.912
942.71	266.895
944.378	285.878
946.044	271.862
947.71	285.845
949.376	271.828
951.041	281.811
952.706	284.794
954.371	277.777
956.035	271.76
957.699	277.744
959.362	281.727
961.026	281.71
962.689	281.693
964.352	273.676
966.014	273.659
967.676	284.642
969.338	269.626
971	269.609
972.661	277.592
974.322	285.575
975.982	285.558
977.642	263.541
979.302	283.525
980.962	285.508
982.621	277.491
984.28	263.474
985.939	275.457
987.598	266.44
989.254	271.423
990.912	290.407
992.569	278.39
994.226	280.373
995.883	279.356
997.54	279.339
999.196	283.322
1000.85	273.305
1002.51	279.289
1004.16	273.272
1005.82	265.255
1007.47	285.238
1009.13	284.221
1010.78	279.204
1012.43	269.188
1014.08	285.171
1015.74	275.154
1017.39	279.137
1019.04	269.12
1020.69	272.103
1022.35	271.086
1024	285.07
1025.65	273.053
1027.3	265.036
1028.95	283.019
1030.6	285.002
1032.25	276.985
1033.9	289.968
1035.55	272.952
1037.19	274.935
1038.84	274.918
1040.49	280.901
1042.14	268.884
1043.79	286.867
1045.43	282.85
1047.08	264.834
1048.73	276.817
1050.37	268.8
1052.02	248.783
1053.66	285.766
1055.31	288.749
1056.95	268.733
1058.6	288.716
1060.24	280.699
1061.88	294.682
1063.53	289.665
1065.17	280.648
1066.81	280.631
1068.46	268.615
1070.1	277.598
1071.74	286.581
1073.38	276.564
1075.02	280.547
1076.66	277.53
1078.3	285.513
1079.94	276.497
1081.58	296.48
1083.22	293.463
1084.86	282.446
1086.5	266.429
1088.14	284.412
1089.78	288.396
1091.42	284.379
1093.06	266.362
1094.69	280.345
1096.33	274.328
1097.97	287.311
1099.6	276.294
1101.24	281.278
1102.87	272.261
1104.51	282.244
1106.15	275.227
1107.78	281.21
1109.41	262.193
1111.05	275.177
1112.68	286.16
1114.32	276.143
1115.95	288.126
1117.58	278.109
1119.21	294.092
1120.85	291.075
1122.48	276.059
1124.11	286.042
1125.74	266.025
1127.37	302.008
1129	283.991
1130.63	282.974
1132.26	271.957
1133.89	285.941
1135.52	293.924
1137.15	278.907
1138.78	291.89
1140.41	251.873
1142.04	288.856
1143.67	277.84
1145.29	290.823
1146.92	301.806
1148.55	273.789
1150.17	278.772
1151.8	269.755
1153.43	283.738
1155.05	287.722
1156.68	281.705
1158.3	299.688
1159.93	293.671
1161.55	283.654
1163.18	282.637
1164.8	289.62
1166.42	290.604
1168.05	279.587
1169.67	293.57
1171.29	291.553
1172.91	281.536
1174.54	276.519
1176.16	295.503
1177.78	275.486
1179.4	293.469
1181.02	295.452
1182.64	287.435
1184.26	299.418
1185.88	291.401
1187.5	275.385
1189.12	293.368
1190.74	305.351
1192.36	289.334
1193.97	306.317
1195.59	306.3
1197.21	297.283
1198.83	297.267
1200.44	291.25
1202.06	299.233
1203.68	295.216
1205.29	297.199
1206.91	303.182
1208.52	289.165
1210.14	301.149
1211.75	297.132
1213.37	297.115
1214.98	297.098
1216.59	293.081
1218.21	293.064
1219.82	316.048
1221.43	299.031
1223.05	307.014
1224.66	302.997
1226.27	292.98
1227.88	300.963
1229.49	292.946
1231.1	296.93
1232.72	308.913
1234.33	314.896
1235.94	296.879
1237.55	282.862
1239.16	301.845
1240.76	297.828
1242.37	292.812
1243.98	284.795
1245.59	305.778
1247.2	310.761
1248.81	297.744
1250.41	310.727
1252.02	290.711
1253.63	302.694
1255.23	308.677
1256.84	301.66
1258.44	308.643
1260.05	298.626
1261.66	298.609
1263.26	298.593
1264.86	300.576
1266.47	290.559
1268.07	300.542
1269.67	326.525
1271.28	306.508
1272.88	295.491
1274.48	296.475
1276.09	304.458
1277.69	300.441
1279.29	304.424
1280.89	322.407
1282.49	320.39
1284.09	317.374
1285.69	326.357
1287.29	320.34
1288.89	336.323
1290.49	322.306
1292.09	317.289
1293.69	320.272
1295.29	334.256
1296.89	330.239
1298.49	315.222
1300.08	320.205
1301.68	322.188
1303.28	314.171
1304.87	333.155
1306.47	309.138
1308.07	324.121
1309.66	318.104
1311.26	345.087
1312.85	312.07
1314.45	318.053
1316.04	332.037
1317.64	329.02
1319.23	336.003
1320.83	321.986
1322.42	331.969
1324.01	322.952
1325.61	326.935
1327.2	321.919
1328.79	322.902
1330.38	350.885
1331.97	342.368
1333.56	333.851
1335.15	336.834
1336.75	333.818
1338.34	319.801
1339.93	335.784
1341.52	333.767
1343.11	323.75
1344.69	337.733
1346.28	332.716
1347.87	330.7
1349.46	334.683
1351.05	328.666
1352.64	320.649
1354.22	318.632
1355.81	322.615
1357.4	323.598
1358.98	338.582
1360.57	327.565
1362.15	335.548
1363.74	352.531
1365.32	347.514
1366.91	330.497
1368.5	341.481
1370.08	340.464
1371.66	317.447
1373.25	334.43
1374.83	335.413
1376.41	326.396
1377.99	339.379
1379.58	327.363
1381.16	323.346
1382.74	309.329
1384.32	324.312
1385.9	333.295
1387.49	313.278
1389.07	349.261
1390.65	334.245
1392.23	319.228
1393.81	341.211
1395.39	325.194
1396.97	338.177
1398.54	341.16
1400.12	335.144
1401.7	349.127
1403.28	336.11
1404.86	331.093
1406.43	336.076
1408.01	348.059
1409.59	337.042
1411.16	330.026
1412.74	366.009
1414.32	330.992
1415.89	326.975
1417.47	342.958
1419.04	339.941
1420.62	328.924
1422.19	327.908
1423.76	339.891
1425.34	328.874
1426.91	322.857
1428.48	329.84
1430.06	350.823
1431.63	357.807
1433.2	339.79
1434.77	344.773
1436.35	338.756
1437.92	330.739
1439.49	339.722
1441.06	328.705
1442.63	362.689
1444.2	334.672
1445.77	349.655
1447.34	320.638
1448.91	360.621
1450.47	346.604
1452.04	352.587
1453.61	342.571
1455.18	357.554
1456.75	344.537
1458.31	340.52
1459.88	332.503
1461.45	341.486
1463.02	339.47
1464.58	340.453
1466.15	355.436
1467.71	348.419
1469.28	328.402
1470.84	342.385
1472.41	346.368
1473.97	350.352
1475.54	348.335
1477.1	352.318
1478.66	353.301
1480.23	340.284
1481.79	345.267
1483.35	348.25
1484.91	363.234
1486.48	339.217
1488.04	356.2
1489.6	356.183
1491.16	342.166
1492.72	348.149
1494.28	379.133
1495.84	360.116
1497.4	346.099
1498.96	358.082
1500.52	345.065
1502.08	359.048
1503.64	326.031
1505.2	352.015
1506.76	350.998
1508.31	345.981
1509.87	354.964
1511.43	373.947
1512.99	344.93
1514.54	364.913
1516.1	361.897
1517.65	347.88
1519.21	353.863
1520.77	349.846
1522.32	361.829
1523.88	359.812
1525.43	363.796
1526.99	357.779
1528.54	372.762
1530.09	377.745
1531.65	359.728
1533.2	335.711
1534.75	362.694
1536.3	354.678
1537.86	357.661
1539.41	378.644
1540.96	361.627
1542.51	357.61
1544.06	367.593
1545.61	347.576
1547.16	378.56
1548.71	366.543
1550.26	371.526
1551.81	374.509
1553.36	376.492
1554.91	375.475
1556.46	379.459
1558.01	379.442
1559.56	369.425
1561.1	388.408
1562.65	355.391
1564.2	364.374
1565.75	381.357
1567.29	383.341
1568.84	375.324
1570.39	391.307
1571.93	364.29
1573.48	382.273
1575.02	374.256
1576.57	381.239
1578.11	377.223
1579.66	369.206
1581.2	377.189
1582.74	377.172
1584.29	368.155
1585.83	372.138
1587.37	353.122
1588.91	367.105
1590.46	373.088
1592	369.071
1593.54	363.054
1595.08	375.037
1596.62	373.02
1598.16	368.004
1599.71	368.987
1601.24	362.97
1602.78	370.953
1604.32	342.936
1605.86	374.919
1607.4	351.902
1608.94	359.886
1610.48	368.869
1612.02	376.852
1613.56	376.835
1615.09	376.818
1616.63	350.801
1618.17	386.785
1619.71	348.768
1621.24	350.751
1622.78	352.734
1624.31	370.717
1625.85	368.7
1627.38	348.683
1628.92	350.667
1630.45	352.65
1631.99	324.633
1633.52	354.616
1635.06	356.599
1636.59	351.582
1638.12	358.565
1639.65	332.549
1641.19	362.532
1642.72	349.515
1644.25	343.498
1645.78	344.481
1647.32	360.44
1648.85	342.358
1650.38	340.693
1651.91	352.179
1653.44	341.313
1654.97	361.991
1656.5	353.671
1658.03	358.807
1659.56	334.641
1661.09	354.183
1662.61	356.149
1664.14	348.98
1665.67	345.324
1667.2	370.074
1668.73	349.915
1670.25	340.732
1671.78	360.944
1673.31	335.492
1674.83	357.079
1676.36	355.483
1677.89	351.23
1679.41	343.58
1680.93	347.083
1682.46	358.299
1683.98	346.052
1685.51	342.155
1687.03	356.177
1688.56	359.763
1690.08	367.554
1691.6	351.564
1693.13	360.26
1694.65	342.255
1696.17	351.32
1697.69	351.491
1699.21	351.327
1700.74	348.828
1702.26	343.427
1703.78	356.68
1705.3	352.351
1706.82	352.996
1708.34	349.441
1709.86	340.631
1711.38	349.371
1712.9	351.11
1714.42	348.694
1715.94	352.131
1717.45	350.308
1718.97	343.92
1720.49	363.93
1722.01	345.528
1723.52	358.222
1725.04	353.915
1726.56	340.572
1728.07	359.503
1729.59	345.542
1731.1	349.955
1732.62	349.039
1734.13	337.485
1735.65	349.636
1737.16	349.456
1738.68	361.818
1740.19	354.373
1741.71	346.883
1743.22	346.986
1744.73	339.973
1746.25	343.29
1747.76	341.845
1749.27	349.764
1750.78	356.08
1752.29	347.925
1753.81	353.885
1755.32	347.821
1756.83	351.884
1758.34	337.635
1759.85	342.773
1761.36	353.121
1762.87	351.373
1764.38	343.746
1765.89	353.635
1767.39	356.762
1768.9	365.088
1770.41	358.602
1771.92	353.835
1773.43	345.79
1774.94	343.33
1776.44	357.33
1777.95	346.969
1779.46	350.495
1780.96	348.825
1782.47	360.252
1783.98	361.121
1785.48	354.249
1786.99	355.582
1788.49	362.403
1789.99	358.637
1791.5	366.12
1793	355.422
1794.51	343.845
1796.01	353.149
1797.51	358.413
1799.02	350.076
1799.49	346.251
1801	366.25
1802.51	353.249
1804.02	336.248
1805.53	351.247
1807.04	368.247
1808.54	340.246
1810.05	364.245
1811.56	360.244
1813.07	344.244
1814.57	359.243
1816.08	344.242
1817.58	364.241
1819.09	356.24
1820.6	346.24
1822.1	342.239
1823.61	366.238
1825.11	358.237
1826.62	338.237
1828.12	362.236
1829.63	361.235
1831.13	354.234
1832.63	358.233
1834.14	361.233
1835.64	372.232
1837.14	359.231
1838.64	366.23
1840.14	338.23
1841.65	373.229
1843.15	358.228
1844.65	358.227
1846.15	352.226
1847.65	375.226
1849.15	352.225
1850.65	350.224
1852.15	372.223
1853.65	362.223
1855.15	362.222
1856.65	353.221
1858.15	352.22
1859.65	358.219
1861.14	356.219
1862.64	348.218
1864.14	352.217
1865.64	369.216
1867.13	334.216
1868.63	356.215
1870.13	365.214
1871.62	344.213
1873.12	354.212
1874.62	342.212
1876.11	358.211
1877.61	361.21
1879.1	357.209
1880.6	380.209
1882.09	347.208
1883.58	366.207
1885.08	359.206
1886.57	370.205
1888.06	364.205
1889.56	367.204
1891.05	357.203
1892.54	362.244
1894.03	359.285
1895.53	368.326
1897.02	364.367
1898.51	368.408
1900	374.449
1901.49	362.49
1902.98	352.531
1904.47	377.572
1905.96	362.613
1907.45	362.654
1908.94	369.695
1910.43	359.736
1911.92	354.777
1913.41	361.818
1914.89	374.859
1916.38	375.9
1917.87	369.941
1919.36	364.982
1920.84	381.023
1922.33	381.064
1923.82	368.105
1925.3	375.146
1926.79	376.187
1928.27	376.228
1929.76	375.269
1931.25	377.31
1932.73	365.351
1934.21	376.392
1935.7	365.433
1937.18	357.474
1938.67	359.515
1940.15	370.556
1941.63	390.597
1943.12	388.638
1944.6	387.679
1946.08	367.72
1947.56	380.761
1949.04	381.802
1950.53	369.843
1952.01	381.884
1953.49	383.925
1954.97	375.966
1956.45	368.007
1957.93	382.048
1959.41	368.09
1960.89	371.131
1962.37	359.172
1963.85	376.213
1965.33	385.254
1966.81	362.295
1968.29	380.336
1969.76	375.377
1971.24	370.418
1972.72	382.459
1974.2	391.5
1975.67	381.541
1977.15	378.582
1978.63	384.623
1980.1	372.664
1981.58	372.705
1983.05	358.746
1984.53	354.787
1986.01	368.828
1987.48	367.869
1988.95	390.91
1990.43	378.951
1991.9	356.992
1993.38	375.033
1994.85	377.074
1996.32	373.115
1997.79	377.156
1999.27	379.197
2000.74	378.238
2002.21	376.279
2003.68	349.32
2005.16	390.361
2006.63	368.402
2008.1	367.443
2009.57	379.484
2011.04	392.525
2012.51	365.566
2013.98	379.607
2015.45	376.648
2016.92	384.689
2018.39	384.73
2019.86	357.771
2021.33	385.812
2022.79	371.853
2024.26	384.894
2025.73	364.935
2027.2	378.976
2028.66	384.017
2030.13	373.058
2031.6	381.099
2033.06	396.14
2034.53	378.181
2036	391.222
2037.46	384.263
2038.93	392.304
2040.39	388.345
2041.86	396.386
2043.32	387.427
2044.79	372.468
2046.25	388.509
2047.71	376.55
2049.18	379.591
2050.64	386.632
2052.1	378.673
2053.56	385.714
2055.03	375.755
2056.49	385.796
2057.95	386.837
2059.41	378.878
2060.87	383.919
2062.34	394.96
2063.8	377.001
2065.26	393.042
2066.72	398.083
2068.18	375.124
2069.64	393.165
2071.1	394.206
2072.56	391.247
2074.01	368.288
2075.47	359.329
2076.93	375.37
2078.39	380.411
2079.85	380.452
2081.3	387.493
2082.76	385.534
2084.22	384.575
2085.68	389.616
2087.13	377.657
2088.59	381.698
2090.04	374.739
2091.5	366.78
2092.96	388.821
2094.41	369.862
2095.87	395.903
2097.32	385.944
2098.77	384.985
2100.23	372.026
2101.68	388.067
2103.14	379.108
2104.59	384.149
2106.04	383.19
2107.5	385.231
2108.95	386.272
2110.4	391.313
2111.85	386.354
2113.3	383.395
2114.76	407.436
2116.21	384.477
2117.66	380.518
2119.11	389.559
2120.56	393.6
2122.01	406.641
2123.46	366.682
2124.91	391.723
2126.36	366.764
2127.81	381.806
2129.25	382.846
2130.7	386.888
2132.15	387.929
2133.6	386.97
2135.05	381.011
2136.5	388.052
2137.94	385.093
2139.39	386.134
2140.84	378.175
2142.28	379.216
2143.73	381.257
2145.17	372.298
2146.62	397.339
2148.07	392.38
2149.51	390.421
2150.96	385.462
2152.4	396.503
2153.84	388.544
2155.29	391.585
2156.73	387.626
2158.18	389.667
2159.62	387.708
2161.06	391.749
2162.5	389.79
2163.95	379.831
2165.39	392.872
2166.83	378.913
2168.27	381.954
2169.71	392.995
2171.16	392.036
2172.6	389.077
2174.04	384.118
2175.48	401.159
2176.92	399.2
2178.36	383.241
2179.8	390.282
2181.24	406.323
2182.68	384.364
2184.11	390.405
2185.55	401.446
2186.99	381.487
2188.43	391.528
2189.87	380.569
2191.3	386.61
2192.74	382.651
2194.18	388.692
2195.61	389.733
2197.05	388.774
2198.49	390.815
2199.92	397.856
2201.36	390.897
2202.79	374.938
2204.23	382.979
2205.66	397.02
2207.1	387.061
2208.53	394.102
2209.97	385.143
2211.4	385.184
2212.84	389.225
2214.27	389.266
2215.7	382.307
2217.13	391.348
2218.57	390.389
2220	396.43
2221.43	394.471
2222.86	387.512
2224.29	378.553
2225.72	367.594
2227.16	387.635
2228.59	386.676
2230.02	396.717
2231.45	397.758
2232.88	379.799
2234.31	363.84
2235.74	383.881
2237.16	388.922
2238.59	383.963
2240.02	382.004
2241.45	386.045
2242.88	380.086
2244.31	356.127
2245.73	383.168
2247.16	377.209
2248.59	396.25
2250.02	374.291
2251.44	392.332
2252.87	372.373
2254.29	384.414
2255.72	390.455
2257.15	382.496
2258.57	375.537
2260	397.578
2261.42	375.619
2262.85	370.66
2264.27	384.701
2265.69	373.742
2267.12	382.783
2268.54	393.824
2269.96	384.865
2271.39	389.906
2272.81	383.947
2274.23	354.988
2275.65	385.029
2277.08	390.07
2278.5	397.111
2279.92	387.152
2281.34	381.193
2282.76	359.234
2284.18	383.275
2285.6	377.316
2287.02	389.357
2288.44	380.398
2289.86	373.439
2291.28	393.48
2292.7	391.521
2294.12	381.563
2295.54	406.603
2296.95	388.644
2298.37	391.686
2299.79	385.727
2301.21	400.768
2302.62	385.809
2304.04	407.85
2305.46	396.891
2306.88	375.932
2308.29	382.973
2309.71	391.014
2311.12	415.055
2312.54	390.096
2313.95	391.137
2315.37	399.178
2316.78	378.219
2318.2	408.26
2319.61	394.301
2321.03	393.342
2322.44	384.383
2323.85	399.424
2325.27	404.465
2326.68	425.506
2328.09	442.547
2329.5	429.588
2330.92	407.629
2332.33	416.67
2333.74	400.711
2335.15	400.752
2336.56	399.793
2337.97	394.834
2339.38	392.875
2340.79	383.916
2342.2	384.957
2343.61	394.998
2345.02	409.039
2346.43	389.08
2347.84	384.121
2349.25	389.162
2350.66	402.203
2352.07	401.244
2353.48	408.285
2354.88	389.326
2356.29	386.367
2357.7	394.408
2359.11	406.449
2360.51	378.49
2361.92	397.531
2363.32	379.572
2364.73	402.613
2366.14	381.654
2367.54	399.695
2368.95	400.736
2370.35	401.777
2371.76	393.818
2373.16	407.859
2374.57	395.9
2375.97	399.941
2377.37	378.982
2378.78	401.023
2380.18	388.064
2381.58	378.105
2382.99	370.146
2384.39	388.187
2385.79	404.228
2387.19	392.269
2388.59	396.31
2390	366.351
2391.4	392.392
2392.8	386.433
2394.2	385.474
2395.6	388.515
2397	380.556
2398.4	378.597
2399.8	388.638
2401.2	389.679
2402.6	392.72
2404	409.761
2405.4	384.802
2406.79	393.843
2408.19	390.884
2409.59	405.925
2410.99	384.966
2412.39	396.007
2413.78	398.048
2415.18	388.089
2416.57	389.13
2417.97	383.171
2419.37	388.212
2420.76	403.253
2422.16	398.294
2423.55	391.335
2424.95	402.376
2426.35	372.417
2427.74	393.458
2429.13	385.499
2430.53	406.54
2431.92	393.581
2433.32	403.622
2434.71	401.663
2436.1	385.704
2437.49	399.745
2438.89	406.786
2440.28	393.827
2441.67	405.868
2443.06	401.909
2444.46	391.95
2445.85	413.991
2447.24	408.032
2448.63	398.073
2450.02	411.114
2451.41	410.155
2452.8	388.196
2454.19	400.237
2455.58	392.278
2456.97	414.319
2458.36	404.36
2459.75	402.401
2461.14	418.443
2462.52	419.484
2463.91	402.525
2465.3	405.566
2466.69	407.607
2468.08	400.648
2469.46	415.689
2470.85	411.73
2472.24	413.771
2473.62	409.812
2475.01	411.853
2476.39	402.894
2477.78	405.935
2479.17	392.976
2480.55	418.017
2481.94	430.058
2483.32	421.099
2484.71	417.14
2486.09	419.181
2487.47	425.222
2488.86	425.263
2490.24	419.304
2491.62	408.345
2493.01	416.386
2494.39	415.427
2495.77	403.468
2497.15	403.509
2498.53	419.55
2499.92	417.591
2501.3	408.632
2502.68	422.673
2504.06	407.714
2505.44	411.755
2506.82	407.796
2508.2	404.837
2509.58	400.878
2510.96	426.919
2512.34	411.96
2513.72	412.001
2515.1	410.042
2516.48	406.083
2517.86	402.124
2519.23	426.165
2520.61	413.206
2521.99	426.247
2523.37	413.288
2524.74	402.329
2526.12	406.37
2527.5	380.411
2528.88	411.452
2530.25	412.493
2531.63	414.534
2533	419.575
2534.38	404.616
2535.75	404.657
2537.13	417.698
2538.5	416.739
2539.88	404.78
2541.25	394.821
2542.63	428.862
2544	421.903
2545.37	417.944
2546.75	405.985
2548.12	415.026
2549.49	429.067
2550.87	401.108
2552.24	403.149
2553.61	409.19
2554.98	411.231
2556.35	428.272
2557.72	405.313
2559.09	406.354
2560.47	420.395
2561.84	410.436
2563.21	427.477
2564.58	404.518
2565.95	409.559
2567.32	422.6
2568.69	425.641
2570.06	419.682
2571.42	421.723
2572.79	418.764
2574.16	403.805
2575.53	405.846
2576.9	419.887
2578.26	430.928
2579.63	423.969
2581	424.01
2582.37	424.051
2583.73	404.092
2585.1	414.133
2586.47	414.174
2587.83	421.215
2589.2	416.256
2590.56	428.297
2591.93	415.338
2593.29	435.379
2594.66	441.42
2596.02	419.461
2597.39	430.502
2598.75	414.543
2600.11	438.584
2601.48	416.625
2602.84	431.666
2604.2	412.707
2605.57	434.748
2606.93	441.789
2608.29	422.83
2609.65	413.871
2611.02	441.912
2612.38	396.953
2613.74	427.994
2615.1	442.035
2616.46	425.076
2617.82	434.117
2619.18	436.158
2620.54	426.199
2621.9	429.241
2623.26	425.281
2624.62	430.323
2625.98	429.364
2627.34	435.405
2628.7	437.445
2630.05	425.487
2631.41	447.528
2632.77	415.569
2634.13	419.61
2635.49	432.651
2636.84	432.692
2638.2	427.733
2639.56	448.774
2640.91	441.815
2642.27	419.856
2643.63	429.897
2644.98	451.938
2646.34	427.979
2647.69	443.02
2649.05	427.061
2650.4	430.102
2651.76	434.143
2653.11	426.184
2654.47	428.225
2655.82	443.266
2657.17	438.307
2658.53	447.348
2659.88	440.389
2661.23	440.43
2662.58	433.471
2663.94	424.512
2665.29	449.553
2666.64	430.594
2667.99	455.635
2669.34	430.676
2670.7	437.717
2672.05	434.758
2673.4	438.799
2674.75	445.84
2676.1	428.881
2677.45	446.922
2678.8	452.963
2680.15	453.004
2681.5	441.045
2682.85	440.086
2684.19	427.127
2685.54	438.168
2686.89	444.209
2688.24	433.25
2689.59	422.291
2690.93	417.332
2692.28	433.373
2693.63	444.414
2694.98	433.455
2696.32	451.496
2697.67	439.537
2699.02	435.578
2700.36	459.619
2701.71	444.66
2703.05	439.701
2704.4	438.742
2705.74	433.783
2707.09	439.824
2708.43	434.865
2709.78	443.906
2711.12	441.947
2712.46	429.988
2713.81	435.029
2715.15	452.07
2716.49	432.111
2717.84	453.152
2719.18	440.193
2720.52	446.234
2721.86	446.275
2723.21	438.316
2724.55	452.357
2725.89	427.398
2727.23	449.439
2728.57	449.48
2729.91	424.521
2731.25	445.562
2732.59	445.603
2733.93	439.644
2735.27	442.685
2736.61	457.726
2737.95	442.767
2739.29	448.808
2740.63	458.849
2741.97	453.89
2743.3	436.931
2744.64	447.972
2745.98	469.013
2747.32	471.054
2748.66	439.095
2749.99	468.136
2751.33	476.177
2752.67	465.218
2754	447.259
2755.34	427.3
2756.67	447.341
2758.01	453.382
2759.34	453.423
2760.68	457.464
2762.02	475.505
2763.35	471.546
2764.69	453.587
2766.02	437.628
2767.35	451.669
2768.69	440.71
2770.02	460.751
2771.35	457.792
2772.69	447.833
2774.02	464.874
2775.35	454.915
2776.68	454.956
2778.02	444.997
2779.35	456.039
2780.68	453.08
2782.01	446.121
2783.34	442.161
2784.67	455.203
2786.01	472.244
2787.34	458.285
2788.67	487.326
2790	448.367
2791.33	464.408
2792.66	448.449
2793.98	450.49
2795.31	464.531
2796.64	460.572
2797.97	466.613
2799.3	453.654
2800.63	463.695
2801.96	461.736
2803.28	463.777
2804.61	454.818
2805.94	462.859
2807.27	458.9
2808.59	475.941
2809.92	475.982
2811.24	467.023
2812.57	465.064
2813.9	475.105
2815.22	474.146
2816.55	475.187
2817.87	457.228
2819.2	449.269
2820.52	467.31
2821.85	465.351
2823.17	466.392
2824.5	471.433
2825.82	460.474
2827.14	471.515
2828.47	465.556
2829.79	447.597
2831.11	458.638
2832.43	470.679
2833.76	455.72
2835.08	475.761
2836.4	478.802
2837.72	464.843
2839.04	453.884
2840.36	477.925
2841.68	457.966
2843.01	462.007
2844.33	458.048
2845.65	448.089
2846.97	487.13
2848.29	470.171
2849.61	480.212
2850.92	448.253
2852.24	458.294
2853.56	490.335
2854.88	478.376
2856.2	450.417
2857.52	478.458
2858.84	460.499
2860.15	476.54
2861.47	472.581
2862.79	476.622
2864.1	492.663
2865.42	468.704
2866.74	468.745
2868.05	458.786
2869.37	479.827
2870.69	454.868
2872	460.909
2873.32	454.95
2874.63	467.991
2875.95	485.032
2877.26	469.073
2878.58	462.114
2879.89	465.155
2881.2	476.196
2882.52	461.237
2883.83	477.278
2885.15	476.319
2886.46	487.36
2887.77	470.401
2889.08	478.442
2890.4	483.483
2891.71	471.524
2893.02	483.565
2894.33	479.606
2895.64	458.647
2896.95	475.688
2898.27	470.729
2899.58	468.77
2900.89	479.811
2902.2	471.852
2903.51	471.893
2904.82	484.934
2906.13	473.975
2907.44	479.016
2908.74	482.057
2910.05	500.098
2911.36	470.139
2912.67	489.18
2913.98	487.221
2915.29	470.262
2916.59	482.303
2917.9	479.344
2919.21	482.385
2920.52	474.426
2921.82	478.467
2923.13	476.508
2924.44	477.549
2925.74	477.59
2927.05	478.631
2928.35	474.672
2929.66	486.713
2930.96	486.754
2932.27	476.796
2933.57	487.837
2934.88	484.878
2936.18	486.918
2937.49	491.96
2938.79	504.001
2940.09	467.042
2941.4	479.083
2942.7	473.124
2944	489.165
2945.31	485.206
2946.61	481.247
2947.91	487.288
2949.21	476.329
2950.52	479.37
2951.82	485.411
2953.12	470.534
2954.42	478.66
2955.72	485.786
2957.02	482.025
2958.32	468.328
2959.62	481.14
2960.92	478.434
2962.22	496.567
2963.52	481.139
2964.82	498.857
2966.12	481.169
2967.42	478.599
2968.72	474.993
2970.01	488.087
2971.31	462.783
2972.61	470.594
2973.91	492.463
2975.21	475.204
2976.5	476.694
2977.8	480.92
2979.1	488.861
2980.39	484.98
2981.69	489.113
2982.99	484.45
2984.28	480.633
2985.58	499.368
2986.87	467.047
2988.17	479.277
2989.46	488.388
2990.76	484.554
2992.05	491.407
2993.35	479.662
2994.64	500.013
2995.94	489.286
2997.23	499.832
2998.52	491.828
2999.82	476.851
3001.11	489.583
3002.4	492.495
3003.69	481.19
3004.98	497.499
3006.28	485.422
3007.57	492.19
3008.86	483.007
3010.15	481.418
3011.44	485.239
3012.73	494.642
3014.03	491.227
3015.32	493.919
3016.61	485.898
3017.9	488.798
3019.19	488.778
3020.48	493.748
3021.76	495.547
3023.05	497.561
3024.34	496.798
3025.63	496.993
3026.92	496.849
3028.21	500.248
3029.5	491.995
3030.78	491.515
3032.07	500.672
3033.36	497.822
3034.65	488.124
3035.93	502.403
3037.22	494.525
3038.51	496.041
3039.79	496.257
3041.08	495.136
3042.36	473.924
3043.65	481.257
3044.93	481.356
3046.22	489.868
3047.5	489.154
3048.79	500.36
3050.07	486.905
3051.36	488.916
3052.64	506.034
3053.92	510.204
3055.21	481.978
3056.49	472.403
3057.77	488.799
3059.06	500.665
3060.34	500.994
3061.62	486.623
3062.9	490.926
3064.19	503.67
3065.47	490.194
3066.75	481.713
3068.03	495.438
3069.31	497.662
3070.59	473.693
3071.87	501.68
3073.15	502.599
3074.43	496.565
3075.71	491.292
3076.99	480.717
3078.27	505.429
3079.55	480.648
3080.83	496.995
3082.11	485.357
3082.26	483.496
3083.54	473.526
3084.83	484.556
3086.11	497.585
3087.39	504.615
3088.68	510.644
3089.96	524.674
3091.24	483.703
3092.53	488.733
3093.81	491.762
3095.09	480.792
3096.38	483.822
3097.66	511.851
3098.94	487.881
3100.22	487.91
3101.5	500.94
3102.79	499.969
3104.07	487.999
3105.35	496.028
3106.63	498.058
3107.91	485.087
3109.19	502.117
3110.47	474.147
3111.75	510.176
3113.03	505.206
3114.31	493.235
3115.59	498.265
3116.86	504.294
3118.14	502.324
3119.42	500.353
3120.7	505.383
3121.98	493.413
3123.26	506.442
3124.53	504.472
3125.81	500.501
3127.09	506.531
3128.36	487.56
3129.64	508.59
3130.92	484.619
3132.19	497.649
3133.47	517.678
3134.75	516.708
3136.02	499.738
3137.3	507.767
3138.57	496.797
3139.85	510.826
3141.12	517.856
3142.4	504.885
3143.67	498.915
3144.95	510.944
3146.22	503.974
3147.49	497.004
3148.77	502.033
3150.04	507.063
3151.31	518.092
3152.58	499.122
3153.86	509.151
3155.13	502.181
3156.4	510.21
3157.67	479.24
3158.94	509.27
3160.22	509.299
3161.49	501.329
3162.76	505.358
3164.03	501.388
3165.3	509.417
3166.57	508.447
3167.84	492.476
3169.11	508.506
3170.38	507.535
3171.65	513.565
3172.92	496.595
3174.19	513.624
3175.46	495.654
3176.72	507.683
3177.99	495.713
3179.26	499.742
3180.53	513.772
3181.8	508.801
3183.07	486.831
3184.33	507.861
3185.6	513.89
3186.87	509.92
3188.13	488.949
3189.4	514.979
3190.67	504.008
3191.93	519.038
3193.2	506.067
3194.46	505.097
3195.73	517.127
3196.99	498.156
3198.26	501.186
3199.52	526.215
3200.79	510.245
3202.05	498.274
3203.32	503.304
3204.58	507.333
3205.84	521.363
3207.11	484.392
3208.37	511.422
3209.63	499.452
3210.9	482.481
3212.16	513.511
3213.42	517.54
3214.68	501.57
3215.95	509.599
3217.21	496.629
3218.47	484.658
3219.73	501.688
3220.99	508.718
3222.25	493.747
3223.51	500.777
3224.77	502.806
3226.03	513.836
3227.29	496.865
3228.55	492.895
3229.81	503.924
3231.07	507.954
3232.33	504.984
3233.59	513.013
3234.85	500.043
3236.11	504.072
3237.36	487.102
3238.62	492.131
3239.88	501.161
3241.14	505.19
3242.4	483.22
3243.65	489.249
3244.91	497.279
3246.17	493.309
3247.42	504.338
3248.68	491.368
3249.94	478.397
3251.19	501.427
3252.45	511.456
3253.7	487.486
3254.96	504.515
3256.21	505.545
3257.47	499.575
3258.72	491.604
3259.98	519.634
3261.23	492.663
3262.48	504.693
3263.74	523.722
3264.99	509.752
3266.25	495.781
3267.5	491.811
3268.75	491.841
3270	499.87
3271.26	503.9
3272.51	512.929
3273.76	503.959
3275.01	503.988
3276.26	506.018
3277.52	488.047
3278.77	507.077
3280.02	482.107
3281.27	498.136
3282.52	493.166
3283.77	504.195
3285.02	508.225
3286.27	503.254
3287.52	514.284
3288.77	499.313
3290.02	502.343
3291.27	520.372
3292.52	494.402
3293.76	490.432
3295.01	499.461
3296.26	522.491
3297.51	500.52
3298.76	508.55
3300	505.579
3301.25	505.609
3302.5	517.638
3303.74	502.668
3304.99	510.698
3306.24	509.727
3307.48	500.757
3308.73	519.786
3309.98	507.816
3311.22	510.845
3312.47	514.875
3313.71	495.904
3314.96	516.934
3316.2	526.964
3317.45	526.993
3318.69	490.023
3319.94	521.052
3321.18	525.082
3322.42	497.111
3323.67	515.141
3324.91	507.17
3326.15	495.2
3327.4	506.229
3328.64	520.259
3329.88	520.289
3331.12	499.318
3332.36	508.348
3333.61	516.377
3334.85	484.407
3336.09	505.436
3337.33	504.466
3338.57	504.495
3339.81	526.525
3341.05	501.555
3342.29	521.584
3343.53	505.614
3344.77	482.643
3346.01	511.673
3347.25	484.702
3348.49	513.732
3349.73	517.761
3350.97	504.791
3352.21	489.82
3353.45	501.85
3354.69	487.88
3355.92	493.909
3357.16	500.939
3358.4	506.968
3359.64	504.998
3360.87	489.027
3362.11	498.057
3363.35	498.086
3364.58	484.116
3365.82	496.146
3367.06	514.175
3368.29	489.205
3369.53	493.234
3370.76	481.264
3372	499.293
3373.24	502.323
3374.47	517.352
3375.7	494.382
3376.94	514.411
3378.17	490.441
3379.41	504.471
3380.64	482.5
3381.88	479.53
3383.11	510.559
3384.34	498.589
3385.57	510.618
3386.81	502.648
3388.04	511.677
3389.27	508.707
3390.5	497.737
3391.74	508.766
3392.97	507.796
3394.2	490.825
3395.43	495.855
3396.66	493.884
3397.89	495.914
3399.12	496.943
3400.35	504.973
3401.58	493.003
3402.81	494.032
3404.04	497.062
3405.27	499.091
3406.5	493.121
3407.73	506.15
3408.96	501.18
3410.19	497.209
3411.42	497.239
3412.65	522.268
3413.88	511.298
3415.1	503.328
3416.33	490.357
3417.56	503.387
3418.79	512.416
3420.01	501.446
3421.24	525.475
3422.47	513.505
3423.69	517.534
3424.92	503.564
3426.15	513.594
3427.37	513.623
3428.6	502.653
3429.82	502.682
3431.05	499.712
3432.27	481.741
3433.5	515.771
3434.72	522.8
3435.95	509.83
3437.17	521.859
3438.4	505.889
3439.62	520.919
3440.84	503.948
3442.07	528.978
3443.29	513.007
3444.51	520.037
3445.74	536.066
3446.96	518.096
3448.18	534.125
3449.4	511.155
3450.63	517.185
3451.85	526.214
3453.07	503.244
3454.29	505.273
3455.51	494.303
3456.73	519.332
3457.95	516.362
3459.17	519.391
3460.4	524.421
3461.61	513.451
3462.84	509.48
3464.05	519.51
3465.27	530.539
3466.49	529.569
3467.71	507.598
3468.93	523.628
3470.15	520.657
3471.37	496.687
3472.59	502.717
3473.8	528.746
3475.02	504.776
3476.24	510.805
3477.46	531.835
3478.68	529.864
3479.89	506.894
3481.11	523.923
3482.33	510.953
3483.54	517.983
3484.76	532.012
3485.97	491.042
3487.19	526.071
3488.41	493.101
3489.62	517.13
3490.84	512.16
3492.05	525.189
3493.27	503.219
3494.48	520.248
3495.7	515.278
3496.91	513.308
3498.12	515.337
3499.34	508.367
3500.55	501.396
3501.76	512.426
3502.98	516.455
3504.19	517.485
3505.4	508.514
3506.62	510.544
3507.83	508.574
3509.04	495.603
3510.25	510.633
3511.47	507.662
3512.68	499.692
3513.89	522.721
3515.1	501.751
3516.31	497.78
3517.52	498.81
3518.73	500.839
3519.94	512.869
3521.15	485.899
3522.36	503.928
3523.57	509.958
3524.78	509.987
3525.99	501.017
3527.2	502.046
3528.41	498.076
3529.62	509.105
3530.82	505.135
3532.03	496.165
3533.24	514.194
3534.45	519.224
3535.66	505.253
3536.86	497.283
3538.07	501.312
3539.28	510.342
3540.49	502.371
3541.69	518.401
3542.9	493.431
3544.1	500.46
3545.31	485.49
3546.52	510.519
3547.72	504.549
3548.93	514.578
3550.13	502.608
3551.34	508.637
3552.54	504.667
3553.75	490.696
3554.95	502.726
3556.16	511.756
3557.36	497.785
3558.56	502.815
3559.77	501.844
3560.97	495.874
3562.17	512.903
3563.38	503.933
3564.58	490.962
3565.78	504.992
3566.99	502.022
3568.19	523.051
3569.39	507.081
3570.59	512.11
3571.79	502.14
3572.99	520.169
3574.2	509.199
3575.4	505.228
3576.6	497.258
3577.8	505.288
3579	507.317
3580.2	504.347
3581.4	507.376
3582.6	506.406
3583.8	488.435
3585	509.465
3586.2	516.494
3587.4	516.524
3588.59	525.553
3589.79	502.583
3590.99	524.613
3592.19	510.642
3593.39	501.672
3594.58	518.701
3595.78	513.731
3596.98	522.76
3598.18	515.79
3599.37	518.819
3600.57	506.849
3601.77	523.879
3602.96	525.908
3604.16	533.938
3605.35	513.967
3606.55	528.997
3607.75	506.026
3608.94	521.056
3610.14	523.085
3611.33	504.115
3612.53	519.145
3613.72	521.174
3614.92	513.204
3616.11	533.233
3617.3	509.263
3618.5	502.292
3619.69	518.322
3620.88	505.351
3622.08	538.381
3623.27	524.411
3624.46	512.44
3625.66	532.47
3626.85	509.499
3628.04	521.529
3629.23	510.558
3630.42	524.588
3631.62	523.617
3632.81	509.647
3634	530.676
3635.19	502.706
3636.38	520.736
3637.57	510.765
3638.76	501.795
3639.95	519.824
3641.14	527.854
3642.33	508.883
3643.52	539.913
3644.71	512.942
3645.9	525.972
3647.09	531.002
3648.28	521.031
3649.47	512.061
3650.65	516.09
3651.84	510.12
3653.03	513.149
3654.22	518.179
3655.41	502.208
3656.59	516.238
3657.78	507.268
3658.97	511.297
3660.15	501.327
3661.34	494.356
3662.53	492.386
3663.71	522.415
3664.9	501.445
3666.09	500.474
3667.27	502.504
3668.46	524.533
3669.64	522.563
3670.83	511.593
3672.01	504.622
3673.2	498.652
3674.38	495.681
3675.56	508.711
3676.75	495.74
3677.93	483.77
3679.12	485.799
3680.3	491.829
3681.48	502.859
3682.67	501.888
3683.85	489.918
3685.03	505.947
3686.21	501.977
3687.4	511.006
3688.58	502.036
3689.76	525.065
3690.94	506.095
3692.12	498.125
3693.3	504.154
3694.49	514.184
3695.67	484.213
3696.85	497.243
3698.03	512.272
3699.21	509.302
3700.39	488.331
3701.57	500.361
3702.75	477.39
3703.93	510.42
3705.11	500.45
3706.28	485.479
3707.46	489.509
3708.64	525.538
3709.82	491.568
3711	506.597
3712.18	484.627
3713.36	497.656
3714.53	503.686
3715.71	504.716
3716.89	509.745
3718.07	506.775
3719.24	514.804
3720.42	505.834
3721.6	482.863
3722.77	508.893
3723.95	514.922
3725.12	514.952
3726.3	508.982
3727.48	517.011
3728.65	521.041
3729.83	523.07
3731	513.1
3732.18	497.129
3733.35	526.159
3734.53	497.188
3735.7	505.218
3736.87	529.247
3738.05	515.277
3739.22	515.307
3740.39	499.336
3741.57	506.366
3742.74	512.395
3743.91	525.425
3745.09	513.454
3746.26	498.484
3747.43	514.513
3748.6	531.543
3749.77	499.573
3750.95	522.602
3752.12	509.632
3753.29	508.661
3754.46	505.691
3755.63	508.72
3756.8	521.75
3757.97	512.779
3759.14	518.809
3760.31	506.839
3761.48	513.868
3762.65	517.898
3763.82	532.927
3764.99	503.957
3766.16	515.986
3767.33	520.016
3768.5	542.045
3769.67	517.075
3770.83	530.104
3772	522.134
3773.17	506.164
3774.34	513.193
3775.51	507.223
3776.67	525.252
3777.84	532.282
3779.01	524.311
3780.18	507.341
3781.34	510.37
3782.51	529.4
3783.67	508.43
3784.84	530.459
3786.01	504.489
3787.17	509.518
3788.34	504.548
3789.5	530.577
3790.67	505.607
3791.83	522.636
3793	507.666
3794.16	511.695
3795.33	526.725
3796.49	501.755
3797.65	510.784
3798.82	512.814
3799.98	508.843
3801.14	500.873
3802.31	520.902
3803.47	508.932
3804.63	508.961
3805.8	520.991
3806.96	513.021
3808.12	498.05
3809.28	518.08
3810.44	505.109
3811.61	499.139
3812.77	520.168
3813.93	521.198
3815.09	511.227
3816.25	495.257
3817.41	517.286
3818.57	517.316
3819.73	500.346
3820.89	487.375
3822.05	517.405
3823.21	527.434
3824.37	504.464
3825.53	513.493
3826.69	497.523
3827.85	489.552
3829.01	495.582
3830.17	498.612
3831.32	479.641
3832.48	509.671
3833.64	506.7
3834.8	483.73
3835.96	485.759
3837.11	492.789
3838.27	503.818
3839.43	503.848
3840.58	501.878
3841.74	509.907
3842.9	519.937
3844.05	483.966
3845.21	514.996
3846.36	490.025
3847.52	496.055
3848.68	508.084
3849.83	515.114
3850.99	516.143
3852.14	503.173
3853.29	499.203
3854.45	507.232
3855.6	499.262
3856.76	485.291
3857.91	506.321
3859.07	510.35
3860.22	505.38
3861.37	504.409
3862.53	492.439
3863.68	489.469
3864.83	502.498
3865.98	501.528
3867.14	510.557
3868.29	514.587
3869.44	511.616
3870.59	514.646
3871.74	500.675
3872.9	509.705
3874.05	497.735
3875.2	518.764
3876.35	497.794
3877.5	494.823
3878.65	511.853
3879.8	506.882
3880.95	514.912
3882.1	504.941
3883.25	515.971
3884.4	512
3885.55	508.03
3886.7	513.06
3887.85	494.089
3889	524.119
3890.14	511.148
3891.29	510.178
3892.44	494.207
3893.59	511.237
3894.74	498.266
3895.89	506.296
3897.03	500.326
3898.18	520.355
3899.33	513.385
3900.47	517.414
3901.62	501.444
3902.77	503.473
3903.91	511.503
3905.06	508.532
3906.21	509.562
3907.35	514.592
3908.5	502.621
3909.64	492.651
3910.79	514.68
3911.93	521.71
3913.08	523.739
3914.22	513.769
3915.37	518.798
3916.51	507.828
3917.66	529.858
3918.8	519.887
3919.94	521.917
3921.09	506.946
3922.23	514.976
3923.37	522.005
3924.52	513.035
3925.66	508.064
3926.8	503.094
3927.94	518.123
3929.09	519.153
3930.23	522.183
3931.37	523.212
3932.51	511.242
3933.65	507.271
3934.79	515.301
3935.93	512.33
3937.08	503.36
3938.22	505.389
3939.36	497.419
3940.5	506.449
3941.64	524.478
3942.78	511.508
3943.92	504.537
3945.06	507.567
3946.2	503.596
3947.33	518.626
3948.47	514.655
3949.61	502.685
3950.75	518.714
3951.89	482.744
3953.03	505.774
3954.17	505.803
3955.3	518.833
3956.44	502.862
3957.58	504.892
3958.72	503.921
3959.85	500.951
3960.99	520.98
3962.13	499.01
3963.26	505.04
3964.4	506.069
3965.54	488.099
3966.67	504.128
3967.81	525.158
3968.94	517.187
3970.08	498.217
3971.21	502.246
3972.35	483.276
3973.48	505.306
3974.62	504.335
3975.75	499.365
3976.89	505.394
3978.02	499.424
3979.16	499.453
3980.29	498.483
3981.42	501.512
3982.56	491.542
3983.69	498.572
3984.82	502.601
3985.96	488.631
3987.09	515.66
3988.22	502.69
3989.35	521.719
3990.49	508.749
3991.62	505.778
3992.75	494.808
3993.88	507.837
3995.01	479.867
3996.14	512.897
3997.27	501.926
3998.4	499.956
3999.54	503.985
