#Acq. time (s)=	5
#Accumulations=	5
#Range (cm-¹)=	100...3000
#Windows=	3
#Autofocus=	Off
#AutoExposure=	Off
#Spike filter=	Multiple accum.
#Delay time (s)=	0
#Binning=	1
#Readout mode=	Signal
#DeNoise=	Off
#ICS correction=	Off
#Dark correction=	Off
#Inst. Process=	Off
#Instrument=	LabRAM HR Evol
#Detector=	Syncerity OE
#Objective=	x100_VIS_LWD
#Grating=	600 (500nm)
#ND Filter=	100%
#Laser=	633nm_Edge
#Hole=	100.021
#Range=	Visible
#Project=	Omar
#Sample=	chi
#Site=	f
#Title=	nsno
#Remark=	
#Date=	12.09.2023 17:22
#Acquired=	12.09.2023 17:22:41
101.026	2398
102.309	2374
103.592	2353.5
104.875	2365
106.158	2314
107.441	2299.5
108.723	2257.5
110.005	2259
111.289	2222.5
112.571	2234.5
113.852	2212
115.134	2171.5
116.415	2187.5
117.696	2146.5
118.976	2153.5
120.257	2132
121.537	2100
122.817	2078
124.097	2102
125.377	2083
126.656	2099.5
127.936	2071
129.215	2066.5
130.493	2034.5
131.772	2039
133.049	2022.5
134.327	2026.5
135.605	1981.5
136.883	1964
138.161	1942
139.438	1941
140.715	1929
141.992	1927.5
143.269	1920.5
144.545	1886
145.82	1881
147.096	1847
148.372	1872.5
149.648	1818
150.924	1810.5
152.199	1801.5
153.472	1772
154.747	1767.5
156.022	1765
157.296	1734.5
158.571	1731
159.843	1730
161.117	1723.5
162.391	1697
163.664	1665
164.937	1687.5
166.209	1674
167.482	1687.5
168.754	1666.5
170.025	1667.5
171.297	1650.5
172.569	1660.5
173.841	1642.5
175.111	1644.5
176.383	1627.5
177.654	1640.5
178.923	1632
180.194	1625.5
181.464	1608
182.733	1617
184.003	1605.5
185.273	1604.5
186.542	1598.5
187.811	1615.5
189.079	1593
190.348	1607
191.617	1611.5
192.884	1586.5
194.152	1612.5
195.419	1610.5
196.687	1596
197.955	1610
199.221	1607
200.489	1625
201.755	1606.5
203.022	1597.5
204.287	1615.5
205.554	1627
206.818	1618.5
208.085	1623.5
209.349	1627.5
210.615	1637.5
211.879	1636.5
213.144	1629
214.408	1637
215.673	1648.5
216.936	1648.5
218.201	1618
219.464	1620.5
220.728	1635
221.99	1630
223.253	1625
224.516	1647.5
225.778	1649.5
227.041	1633
228.303	1629.5
229.564	1638
230.826	1669
232.087	1621.5
233.348	1651
234.61	1669
235.87	1651.5
237.13	1653.5
238.391	1667
239.651	1680.5
240.91	1662.5
242.171	1665.5
243.43	1675.5
244.689	1702.5
245.949	1695
247.207	1701.5
248.465	1658
249.723	1667
250.983	1674.5
252.24	1680.5
253.498	1684
254.755	1716.5
256.013	1702
257.27	1708
258.526	1694
259.783	1691
261.039	1683.5
262.296	1665.5
263.552	1714.5
264.808	1692.5
266.063	1670
267.318	1680
268.573	1682
269.828	1662
271.084	1721.5
272.338	1691
273.592	1698
274.846	1676.5
276.1	1695
277.353	1679.5
278.607	1688
279.86	1697.5
281.113	1690.5
282.365	1715
283.619	1692
284.872	1699.5
286.124	1710
287.376	1698.5
288.627	1722.5
289.879	1715
291.13	1726.5
292.381	1726.5
293.632	1724
294.883	1732
296.133	1735.5
297.384	1757.5
298.634	1740.5
299.883	1757
301.133	1737.5
302.381	1752
303.63	1742.5
304.879	1747.5
306.128	1740.5
307.377	1737
308.625	1734.5
309.874	1750
311.122	1762.5
312.37	1764.5
313.617	1740
314.863	1740.5
316.111	1742.5
317.358	1744
318.604	1720
319.851	1740.5
321.098	1722
322.342	1713
323.588	1703.5
324.834	1705
326.08	1698
327.325	1707
328.569	1679.5
329.814	1682
331.059	1688.5
332.304	1681
333.548	1694.5
334.791	1675.5
336.035	1702
337.279	1689
338.521	1666
339.765	1660.5
341.008	1669
342.251	1675.5
343.492	1661
344.735	1672
345.977	1670.5
347.218	1672
348.46	1676
349.702	1652.5
350.942	1684.5
352.184	1646.5
353.425	1648
354.665	1667.5
355.905	1670.5
357.145	1673
358.385	1670.5
359.625	1674.5
360.864	1655.5
362.104	1702.5
363.342	1685.5
364.581	1671
365.819	1673.5
367.058	1651.5
368.296	1674
369.534	1665
370.771	1670.5
372.01	1663
373.246	1630.5
374.484	1660.5
375.72	1674.5
376.958	1685.5
378.194	1679.5
379.431	1657
380.666	1634.5
381.903	1663.5
383.138	1664.5
384.374	1653
385.609	1654.5
386.845	1655
388.079	1674.5
389.313	1646.5
390.548	1651
391.782	1648.5
393.016	1673.5
394.25	1650
395.483	1664.5
396.718	1640.5
397.95	1644
399.183	1642.5
400.416	1660
401.648	1673.5
402.88	1651
404.113	1679
405.345	1662
406.576	1682
407.807	1679.5
409.04	1682
410.27	1692.5
411.501	1694
412.731	1687.5
413.963	1704
415.193	1697.5
416.422	1690
417.652	1730
418.883	1703
420.112	1710.5
421.341	1710.5
422.569	1724.5
423.798	1708.5
425.028	1746
426.256	1735
427.484	1739.5
428.711	1730
429.939	1710
431.166	1749
432.394	1744.5
433.622	1738
434.849	1739.5
436.075	1747
437.302	1736
438.528	1721
439.754	1733
440.98	1745.5
442.205	1758.5
443.431	1753.5
444.656	1739.5
445.881	1731
447.106	1728.5
448.33	1761.5
449.555	1768.5
450.779	1762.5
452.003	1748
453.227	1733.5
454.45	1761
455.674	1728
456.897	1731.5
458.12	1735.5
459.343	1759
460.566	1720
461.788	1734
463.01	1736.5
464.232	1739.5
465.454	1748
466.676	1743.5
467.897	1735.5
469.119	1733.5
470.34	1747.5
471.559	1748
472.78	1762
474.001	1736
475.221	1713
476.441	1731.5
477.661	1729
478.879	1737.5
480.099	1791
481.318	1756.5
482.537	1743
483.756	1755.5
484.974	1769
486.192	1774
487.411	1746
488.629	1800.5
489.847	1784
491.063	1793
492.281	1784.5
493.498	1783.5
494.714	1794
495.931	1769
497.148	1799.5
498.365	1822
499.58	1782.5
500.796	1803.5
502.012	1807.5
503.226	1831.5
504.442	1785
505.657	1811
506.871	1789
508.086	1802
509.3	1791
510.515	1801
511.729	1778
512.942	1818
514.156	1788
515.369	1787
516.582	1797.5
517.796	1770.5
519.008	1799.5
520.221	1786
521.433	1795.5
522.645	1776
523.857	1794.5
525.069	1756.5
526.28	1808
527.492	1776
528.702	1790
529.914	1780.5
531.124	1804.5
532.335	1769.5
533.545	1795
534.756	1765
535.965	1769
537.175	1768
538.384	1747
539.593	1768
540.803	1765.5
542.011	1770.5
543.221	1747.5
544.429	1764
545.636	1756.5
546.845	1757
548.052	1759
549.261	1779.5
550.468	1760
551.675	1769.5
552.883	1757
554.089	1773.5
555.295	1789
556.503	1760
557.709	1743.5
558.914	1759
560.12	1757.5
561.326	1769
562.531	1783
563.736	1768.5
564.941	1788
566.147	1784
567.351	1789.5
568.555	1789
569.759	1767
570.964	1723
572.168	1775.5
573.371	1771.5
574.574	1773
575.777	1754
576.981	1787
578.184	1768
579.386	1767
580.588	1774.5
581.79	1769.5
582.992	1805.5
584.194	1786
585.395	1763.5
586.598	1791.5
587.799	1783.5
589	1762
590.201	1762.5
591.401	1795.5
592.601	1785
593.801	1769
595.001	1777
596.201	1770
597.401	1806.5
598.6	1807.5
599.799	1787
600.998	1784
602.197	1784
603.395	1813.5
604.594	1812
605.792	1801
606.99	1805.5
608.188	1803.5
609.386	1834
610.583	1798.5
611.78	1840
612.977	1829.5
614.174	1831
615.371	1842
616.566	1837.5
617.762	1825.5
618.958	1826
620.154	1815
621.35	1837.5
622.546	1835
623.741	1824
624.935	1838.5
626.13	1837
627.325	1830
628.519	1850.5
629.714	1865.5
630.908	1866.5
632.101	1854.5
633.295	1866
634.488	1884
635.682	1865
636.874	1870.5
638.067	1855.5
639.26	1845
640.453	1887.5
641.644	1878
642.836	1863.5
644.028	1856
645.219	1894
646.411	1878
647.602	1853.5
648.792	1881.5
649.984	1861.5
651.175	1871
652.364	1857.5
653.555	1852.5
654.745	1880.5
655.934	1862.5
657.124	1861.5
658.314	1876.5
659.503	1838.5
660.692	1830
661.88	1845.5
663.07	1868.5
664.257	1856
665.446	1859
666.635	1863.5
667.822	1855.5
669.01	1862
670.197	1874
671.384	1858
672.571	1852.5
673.758	1835
674.944	1807
676.131	1838
677.317	1825.5
678.502	1817
679.689	1812
680.874	1853.5
682.06	1849.5
683.245	1831.5
684.431	1824
685.615	1796.5
686.799	1821.5
687.984	1828
689.168	1817
690.353	1814
691.536	1791.5
692.719	1808.5
693.904	1813
695.086	1808
696.269	1805
697.453	1833
698.635	1816.5
699.817	1819.5
701	1807
702.182	1799.5
703.364	1819.5
704.545	1814
705.727	1807
706.908	1838.5
708.089	1846.5
709.27	1792
710.451	1819
711.632	1808.5
712.812	1851
713.991	1831.5
715.172	1819
716.352	1825
717.531	1830.5
718.71	1845
719.889	1819.5
721.068	1828.5
722.248	1811.5
723.426	1821.5
724.604	1815.5
725.782	1826
726.96	1839.5
728.138	1831.5
729.315	1787.5
730.492	1868.5
731.669	1820
732.846	1847.5
734.024	1812.5
735.201	1839.5
736.377	1815.5
737.553	1833
738.729	1822
739.905	1819.5
741.081	1860
742.256	1813.5
743.431	1829
744.606	1829
745.781	1823.5
746.956	1827.5
748.13	1830
749.303	1831
750.477	1809
751.651	1818.5
752.825	1818.5
753.999	1825.5
755.172	1811
756.345	1815
757.518	1825
758.691	1790
759.864	1836.5
761.035	1798.5
762.207	1817
763.379	1788
764.551	1793
765.723	1800.5
766.894	1825.5
768.064	1825.5
769.236	1786.5
770.407	1798
771.577	1799.5
772.748	1822.5
773.917	1789.5
775.088	1811
776.258	1821.5
777.427	1810.5
778.596	1811.5
779.765	1810
780.935	1799.5
782.104	1811.5
783.272	1803
784.44	1816.5
785.609	1809.5
786.776	1812
787.944	1801
789.113	1786.5
790.279	1801
791.447	1806
792.613	1815
793.78	1794.5
794.948	1831.5
796.113	1803
797.28	1800.5
798.445	1811.5
799.612	1792
800.778	1822
801.943	1826.5
803.109	1822
804.273	1835.5
805.439	1825.5
806.603	1829.5
807.768	1832
808.932	1840.5
810.096	1820
811.26	1861.5
812.424	1821.5
813.587	1837.5
814.751	1872
815.914	1873
817.078	1866
818.24	1879
819.402	1872.5
820.565	1885.5
821.727	1883.5
822.889	1879
824.051	1887
825.212	1856
826.374	1895
827.535	1885.5
828.697	1876.5
829.857	1864.5
831.018	1870
832.179	1888
833.339	1862.5
834.499	1880.5
835.659	1868
836.819	1875
837.978	1896.5
839.137	1862.5
840.297	1863.5
841.456	1894
842.614	1857
843.772	1867
844.932	1892.5
846.09	1868
847.247	1879.5
848.405	1881
849.562	1863.5
850.721	1892
851.878	1869.5
853.034	1903
854.191	1876
855.348	1866
856.504	1886.5
857.661	1894
858.817	1894
859.973	1902
861.129	1874.5
862.284	1902.5
863.439	1868
864.594	1878
865.749	1858
866.904	1875
868.058	1869.5
869.212	1852.5
870.367	1858
871.522	1848
872.676	1844.5
873.829	1827
874.983	1848.5
876.136	1837.5
877.289	1831.5
878.442	1818.5
879.593	1822.5
880.746	1843
881.898	1817
883.05	1816.5
884.202	1818
885.354	1809.5
886.506	1820
887.657	1811.5
888.808	1803
889.96	1803
891.11	1826.5
892.261	1787
893.41	1804.5
894.561	1806
895.711	1784
896.861	1786
898.011	1809
899.161	1806
900.309	1769.5
901.458	1806
902.607	1796.5
903.756	1784.5
904.904	1783
906.052	1784
907.201	1770
908.349	1767.5
909.496	1774.5
910.644	1762
911.791	1769.5
912.939	1761.5
914.085	1759
915.232	1800.5
916.379	1808
917.525	1789.5
918.671	1791
919.818	1762
920.963	1784.5
922.109	1791
923.255	1783.5
924.399	1782.5
925.545	1777
926.689	1753
927.834	1784
928.979	1773.5
930.123	1798.5
931.268	1790
932.411	1764.5
933.555	1789.5
934.698	1809.5
935.842	1782
936.985	1775
938.128	1784
939.271	1786.5
940.414	1766.5
941.556	1798
942.699	1768
943.84	1801
944.983	1770
946.124	1791.5
947.266	1784.5
948.407	1795
949.547	1801.5
950.689	1812.5
951.829	1779.5
952.971	1813
954.111	1786.5
955.25	1772.5
956.391	1782.5
957.531	1803.5
958.67	1798.5
959.81	1781.5
960.949	1811.5
962.088	1797
963.227	1798.5
964.366	1808.5
965.504	1804
966.643	1815
967.781	1822
968.919	1790
970.056	1827
971.195	1824.5
972.332	1822
973.469	1820.5
974.605	1787
975.743	1796.5
976.88	1800.5
978.016	1807
979.152	1798.5
980.288	1772.5
981.423	1803.5
982.56	1828
983.696	1805
984.831	1799
985.966	1796.5
987.101	1805.5
988.235	1797.5
989.37	1804
990.504	1792.5
991.638	1821
992.773	1831
993.907	1810
995.041	1820
996.174	1811
997.307	1836.5
998.44	1859.5
999.573	1878
1000.71	1835.5
1001.84	1842.5
1002.97	1833
1004.1	1786
1005.24	1810
1006.37	1780.5
1007.5	1804
1008.63	1823.5
1009.76	1788.5
1010.89	1793.5
1012.02	1810
1013.15	1774
1014.28	1761.5
1015.41	1772
1016.54	1776
1017.67	1793
1018.8	1788
1019.93	1802
1021.06	1797
1022.19	1818
1023.32	1810.5
1024.45	1810.5
1025.58	1819
1026.71	1799
1027.84	1817
1028.96	1820.5
1030.09	1800
1031.22	1802.5
1032.35	1814
1033.47	1787.5
1034.6	1808.5
1035.73	1797
1036.86	1802.5
1037.98	1825.5
1039.11	1798
1040.23	1794.5
1041.36	1808.5
1042.49	1802.5
1043.61	1809.5
1044.74	1835.5
1045.86	1797
1046.99	1818
1048.11	1798
1049.24	1824
1050.36	1826.5
1051.49	1809
1052.61	1836
1053.74	1806
1054.86	1807.5
1055.98	1818.5
1057.11	1809
1058.23	1805.5
1059.35	1784
1060.48	1808
1061.6	1784.5
1062.72	1830.5
1063.84	1807.5
1064.97	1820
1066.09	1803
1067.21	1803
1068.33	1781.5
1069.45	1820.5
1070.57	1796.5
1071.7	1794.5
1072.82	1819
1073.94	1784
1075.06	1807
1076.18	1793
1077.3	1803.5
1078.42	1787
1079.54	1801
1080.66	1804.5
1081.78	1764.5
1082.9	1791.5
1084.02	1772.5
1085.14	1778.5
1086.25	1814
1087.37	1806
1088.49	1780
1089.61	1766
1090.73	1767
1091.84	1771.5
1092.96	1773.5
1094.08	1755
1095.2	1765.5
1096.31	1769
1097.43	1727
1098.55	1774
1099.66	1774
1100.78	1771.5
1101.9	1779.5
1103.01	1755
1104.13	1778
1105.25	1771.5
1106.36	1761.5
1107.48	1753.5
1108.59	1763.5
1109.71	1750.5
1110.82	1778
1111.93	1795
1113.05	1761.5
1114.16	1777
1115.28	1776.5
1116.39	1768.5
1117.51	1771.5
1118.62	1744.5
1119.73	1760
1120.85	1770.5
1121.96	1778
1123.07	1776
1124.18	1772
1125.3	1774
1126.41	1752
1127.52	1764.5
1128.63	1762.5
1129.74	1753.5
1130.85	1785.5
1131.97	1783.5
1133.08	1796
1134.19	1818
1135.3	1785
1136.41	1811.5
1137.52	1802.5
1138.63	1789
1139.74	1803.5
1140.85	1837.5
1141.96	1830.5
1143.07	1801
1144.18	1814
1145.29	1823.5
1146.4	1822
1147.51	1828.5
1148.61	1843
1149.72	1818
1150.83	1826
1151.94	1863
1153.05	1842
1154.15	1869
1155.26	1865
1156.37	1863
1157.48	1891
1158.58	1908
1159.69	1889.5
1160.8	1882.5
1161.9	1891
1163.01	1907
1164.11	1898
1165.22	1899.5
1166.33	1892
1167.43	1899.5
1168.54	1940
1169.64	1904
1170.75	1899
1171.85	1907.5
1172.96	1910
1174.06	1878.5
1175.17	1915.5
1176.27	1884
1177.37	1854.5
1178.48	1874.5
1179.58	1869
1180.68	1860.5
1181.79	1838.5
1182.89	1872
1183.99	1862.5
1185.1	1826.5
1186.2	1828.5
1187.3	1842.5
1188.4	1832.5
1189.5	1828
1190.61	1847
1191.71	1832.5
1192.81	1826
1193.91	1837
1195.01	1849.5
1196.11	1834.95
1197.21	1831.2
1198.31	1831.36
1199.42	1843.14
1200.51	1821.93
1201.61	1820.98
1202.72	1855.33
1203.81	1813.1
1204.91	1817.24
1206.01	1783.52
1207.11	1807.2
1208.21	1799.45
1209.31	1833.15
1210.41	1804.26
1211.51	1809.94
1212.61	1808.43
1213.7	1810.97
1214.8	1809.55
1215.9	1807.39
1217	1779.51
1218.09	1807.88
1219.19	1804.34
1220.29	1811.36
1221.38	1801.39
1222.48	1809.44
1223.58	1787.43
1224.67	1791.34
1225.77	1805.5
1226.87	1790.09
1227.96	1805.59
1229.06	1800.78
1230.15	1803.64
1231.25	1799.76
1232.34	1780.82
1233.44	1797.75
1234.53	1809.54
1235.63	1797.28
1236.72	1794.28
1237.81	1800.95
1238.91	1790.23
1240	1796.79
1241.1	1798.49
1242.19	1803.09
1243.28	1796.82
1244.38	1804.74
1245.47	1807.13
1246.56	1806.28
1247.65	1783.42
1248.75	1815.63
1249.84	1787.61
1250.93	1797.91
1252.02	1795.02
1253.11	1794.95
1254.21	1799.33
1255.3	1822.66
1256.39	1807.06
1257.48	1805.69
1258.57	1834.67
1259.66	1826.61
1260.75	1819.05
1261.84	1822.88
1262.93	1813.97
1264.02	1816.31
1265.11	1797.88
1266.2	1823
1267.29	1823.59
1268.38	1818.74
1269.47	1818.17
1270.56	1805.39
1271.65	1826.02
1272.73	1815.89
1273.82	1820.95
1274.91	1837.33
1276	1839.72
1277.09	1816.56
1278.17	1828.33
1279.26	1839.51
1280.35	1821.08
1281.43	1827.77
1282.52	1832.04
1283.61	1847.66
1284.69	1833.08
1285.78	1828.71
1286.87	1833.79
1287.95	1842.67
1289.04	1844.57
1290.13	1839.4
1291.21	1826.9
1292.3	1828.53
1293.38	1825.53
1294.47	1828.19
1295.55	1849.47
1296.64	1809.11
1297.72	1836.68
1298.8	1826.39
1299.89	1829.53
1300.97	1851.77
1302.06	1850.55
1303.14	1841.23
1304.22	1821.62
1305.31	1786.61
1306.39	1808.05
1307.34	1800.5
1308.43	1813
1309.52	1789.5
1310.6	1828.5
1311.69	1787
1312.78	1805.5
1313.87	1808
1314.96	1778.5
1316.04	1771.5
1317.13	1802
1318.21	1749.5
1319.3	1783
1320.39	1769.5
1321.47	1772.5
1322.56	1765
1323.65	1755.5
1324.73	1763.5
1325.82	1788
1326.9	1762.5
1327.99	1767.5
1329.07	1771.5
1330.16	1768
1331.24	1791
1332.32	1759.5
1333.41	1780
1334.49	1763
1335.58	1769.5
1336.66	1780.5
1337.74	1775.5
1338.83	1755
1339.91	1744.5
1340.99	1731.5
1342.08	1734.5
1343.16	1753
1344.24	1777
1345.32	1769
1346.41	1753
1347.49	1738
1348.57	1714
1349.65	1725
1350.73	1744.5
1351.81	1743
1352.9	1754
1353.98	1711.5
1355.06	1751.5
1356.14	1724.5
1357.22	1766
1358.3	1724.5
1359.38	1721
1360.46	1726.5
1361.54	1732.5
1362.62	1743
1363.7	1714.5
1364.78	1730
1365.85	1734.5
1366.93	1711.5
1368.01	1702
1369.09	1709.5
1370.17	1700.5
1371.25	1729.5
1372.33	1673
1373.4	1725.5
1374.48	1696
1375.56	1674
1376.64	1684
1377.71	1706
1378.79	1690.5
1379.87	1691.5
1380.94	1696.5
1382.02	1708.5
1383.1	1696.5
1384.17	1683
1385.25	1669
1386.32	1668
1387.4	1674
1388.47	1696
1389.55	1679
1390.63	1665
1391.7	1689
1392.77	1685
1393.85	1683.5
1394.92	1672
1396	1657.5
1397.07	1694
1398.15	1675
1399.22	1692.5
1400.29	1702.5
1401.37	1693
1402.44	1680.5
1403.51	1682.5
1404.59	1683.5
1405.66	1675
1406.73	1705
1407.8	1703.5
1408.87	1679
1409.95	1700
1411.02	1720.5
1412.09	1690
1413.16	1716
1414.23	1693
1415.3	1675
1416.38	1693
1417.45	1704
1418.52	1683
1419.59	1677
1420.66	1681
1421.73	1672.5
1422.8	1682.5
1423.87	1679.5
1424.94	1688.5
1426.01	1690
1427.08	1660
1428.15	1673.5
1429.21	1697.5
1430.28	1694
1431.35	1707
1432.42	1668
1433.49	1722
1434.56	1716.5
1435.63	1685.5
1436.69	1679.5
1437.76	1684
1438.83	1678
1439.89	1712
1440.96	1705
1442.03	1707.5
1443.1	1698.5
1444.16	1692
1445.23	1680
1446.3	1718.5
1447.36	1699
1448.43	1716
1449.49	1693
1450.56	1672
1451.62	1696.5
1452.69	1722.5
1453.75	1715
1454.82	1723
1455.88	1730
1456.95	1720.5
1458.01	1687.5
1459.08	1695
1460.14	1706.5
1461.2	1732.5
1462.27	1721
1463.33	1716
1464.4	1705
1465.46	1733.5
1466.52	1697.5
1467.58	1711.5
1468.65	1690
1469.71	1723.5
1470.77	1730
1471.83	1708.5
1472.9	1718.5
1473.96	1696
1475.02	1732
1476.08	1742.5
1477.14	1731
1478.2	1731
1479.27	1706.5
1480.33	1746.5
1481.39	1733
1482.45	1755
1483.51	1734.5
1484.57	1724.5
1485.63	1749.5
1486.69	1725.5
1487.75	1721.5
1488.81	1760.5
1489.87	1748.5
1490.93	1731
1491.99	1757
1493.04	1713
1494.1	1744.5
1495.16	1745.5
1496.22	1749
1497.28	1728
1498.34	1764
1499.39	1702.5
1500.45	1737
1501.51	1745.5
1502.57	1751.5
1503.62	1730.5
1504.68	1760
1505.74	1748
1506.79	1725
1507.85	1763.5
1508.91	1745
1509.96	1741
1511.02	1746.5
1512.07	1744
1513.13	1758.5
1514.19	1754.5
1515.24	1791
1516.3	1766.5
1517.35	1774
1518.41	1761
1519.46	1733.5
1520.52	1766.5
1521.57	1730
1522.62	1758
1523.68	1766.5
1524.73	1733.5
1525.79	1771.5
1526.84	1760.5
1527.89	1771
1528.95	1771
1530	1765.5
1531.05	1757
1532.1	1769.5
1533.16	1766
1534.21	1753
1535.26	1789.5
1536.31	1758
1537.37	1772
1538.42	1749
1539.47	1756
1540.52	1762
1541.57	1752.5
1542.62	1753.5
1543.67	1722.5
1544.72	1750.5
1545.78	1749
1546.83	1744
1547.88	1740
1548.93	1766
1549.98	1753
1551.03	1778
1552.07	1747.5
1553.12	1746
1554.17	1734
1555.22	1761.5
1556.27	1780
1557.32	1758.5
1558.37	1776
1559.42	1735.5
1560.47	1733
1561.51	1732
1562.56	1768.5
1563.61	1763.5
1564.66	1752
1565.7	1759
1566.75	1760
1567.8	1774.5
1568.85	1777.5
1569.89	1782
1570.94	1750.5
1571.98	1773.5
1573.03	1764.5
1574.08	1762
1575.12	1765.5
1576.17	1763
1577.21	1756.5
1578.26	1731
1579.31	1728.5
1580.35	1744
1581.4	1764
1582.44	1759.5
1583.49	1766
1584.53	1784
1585.57	1772.5
1586.62	1770
1587.66	1762.5
1588.71	1768.5
1589.75	1753.5
1590.79	1762.5
1591.84	1763
1592.88	1725.5
1593.92	1780.5
1594.97	1788.5
1596.01	1773.5
1597.05	1766
1598.09	1768
1599.14	1780.5
1600.18	1765
1601.22	1742
1602.26	1746
1603.3	1739.5
1604.34	1716.5
1605.38	1737
1606.43	1707.5
1607.47	1685
1608.51	1682.5
1609.55	1656
1610.59	1637.5
1611.63	1626
1612.67	1591.5
1613.71	1582
1614.75	1584.5
1615.79	1561
1616.83	1588
1617.87	1558
1618.91	1543
1619.94	1526
1620.98	1516
1622.02	1498
1623.06	1506.5
1624.1	1492
1625.14	1496.5
1626.17	1491
1627.21	1475.5
1628.25	1465
1629.29	1463.5
1630.32	1432
1631.36	1428.5
1632.4	1442
1633.43	1417.5
1634.47	1424.5
1635.51	1380.5
1636.54	1385.5
1637.58	1363.5
1638.62	1408
1639.65	1367
1640.69	1354.5
1641.72	1351
1642.76	1335
1643.79	1302
1644.83	1323
1645.86	1309.5
1646.9	1320
1647.93	1312
1648.97	1292.5
1650	1321
1651.04	1298
1652.07	1279.5
1653.1	1282.5
1654.14	1289
1655.17	1254
1656.2	1246
1657.24	1263
1658.27	1237.5
1659.3	1250.5
1660.34	1234.5
1661.37	1218
1662.4	1218.5
1663.43	1220
1664.46	1249
1665.5	1198
1666.53	1172
1667.56	1212
1668.59	1196.5
1669.62	1180.5
1670.65	1202.5
1671.68	1168
1672.71	1163
1673.74	1157
1674.77	1168
1675.8	1155.5
1676.83	1171
1677.86	1146
1678.89	1157.5
1679.92	1145.5
1680.95	1156
1681.98	1166.5
1683.01	1127
1684.04	1127
1685.07	1125
1686.1	1128.5
1687.13	1135.5
1688.15	1107.5
1689.18	1117
1690.21	1115.5
1691.24	1093.5
1692.27	1097.5
1693.29	1111.5
1694.32	1104
1695.35	1090.5
1696.37	1106
1697.4	1102.5
1698.43	1102
1699.45	1077
1700.48	1102
1701.51	1072
1702.53	1082.5
1703.56	1075.5
1704.58	1083
1705.61	1068
1706.64	1056.5
1707.66	1085
1708.69	1070.5
1709.71	1066.5
1710.73	1074.5
1711.76	1059.5
1712.78	1064.5
1713.81	1031
1714.83	1038
1715.86	1076
1716.88	1043
1717.9	1048
1718.93	1035.5
1719.95	1065
1720.97	1060
1722	1040.5
1723.02	1031.5
1724.04	1037
1725.06	1023.5
1726.09	1033
1727.11	1005.5
1728.13	1031
1729.15	1038.5
1730.17	1034.5
1731.2	1029.5
1732.22	1036
1733.24	1017.5
1734.26	1033.5
1735.28	1011
1736.3	996.5
1737.32	999.5
1738.34	1009.5
1739.36	1023
1740.38	1015.5
1741.4	1008
1742.42	995
1743.44	1006.5
1744.46	996
1745.48	1013
1746.5	984.5
1747.52	1001.5
1748.54	976.5
1749.56	989
1750.57	982
1751.59	988
1752.61	1009
1753.63	976.5
1754.65	988
1755.66	993
1756.68	986
1757.7	978
1758.72	968.5
1759.73	965
1760.75	958
1761.77	963
1762.78	966
1763.8	963.5
1764.82	951.5
1765.83	969
1766.85	950.5
1767.86	953
1768.88	952.5
1769.9	954
1770.91	944
1771.93	935.5
1772.94	936
1773.96	936.5
1774.97	947
1775.99	956.5
1777	927
1778.01	937
1779.03	947.5
1780.04	943
1781.06	917.5
1782.07	921
1783.08	925.5
1784.1	916.5
1785.11	925.5
1786.12	920.5
1787.14	903.5
1788.15	918
1789.16	900
1790.17	912
1791.18	918
1792.2	915
1793.21	917
1794.22	912.5
1795.23	901.5
1796.24	874.5
1797.26	894.5
1798.27	909
1799.28	901
1800.29	907
1801.3	870
1802.31	884
1803.32	879
1804.33	913.5
1805.34	903
1806.35	877.5
1807.36	905
1808.37	898.5
1809.38	881.5
1810.39	895
1811.4	878.5
1812.4	893
1813.41	867.5
1814.42	874.5
1815.43	857.5
1816.44	870
1817.45	885.5
1818.45	861.5
1819.46	867.5
1820.47	865
1821.48	867
1822.49	856.5
1823.49	858
1824.5	868.5
1825.51	854
1826.51	861
1827.52	842
1828.53	845.5
1829.53	853
1830.54	853
1831.54	861.5
1832.55	848
1833.56	846
1834.56	856.5
1835.57	840.5
1836.57	836.5
1837.58	837.5
1838.58	833
1839.59	841
1840.59	851
1841.59	821.5
1842.6	855.5
1843.6	823.5
1844.61	816.5
1845.61	835.5
1846.61	821.5
1847.62	814
1848.62	826.5
1849.62	822
1850.63	814.5
1851.63	816
1852.63	806.5
1853.64	812.5
1854.64	825
1855.64	806.5
1856.64	798
1857.64	805.5
1858.65	797.5
1859.65	818.5
1860.65	822.5
1861.65	789
1862.65	805.5
1863.65	818
1864.65	814
1865.65	803.5
1866.65	815
1867.65	792
1868.65	786.5
1869.65	791
1870.65	813
1871.65	808.5
1872.65	796.5
1873.65	799.5
1874.65	814
1875.65	799
1876.65	773.5
1877.65	781
1878.65	797
1879.65	790
1880.65	767.5
1881.64	768.5
1882.64	765
1883.64	802.5
1884.64	774
1885.63	778
1886.63	771.5
1887.63	793
1888.63	778
1889.62	796
1890.62	761.5
1891.62	765
1892.61	774.5
1893.61	777.5
1894.61	774
1895.6	788
1896.6	766.5
1897.59	756
1898.59	774.5
1899.58	766
1900.58	779.5
1901.57	757.5
1902.57	768.5
1903.56	748.5
1904.56	780.5
1905.55	762
1906.55	757
1907.54	775.5
1908.54	752
1909.53	772.5
1910.52	743
1911.52	753.5
1912.51	774
1913.5	754
1914.5	758.5
1915.49	753.5
1916.48	752
1917.48	763.5
1918.47	758
1919.46	768
1920.45	755
1921.44	735
1922.44	738
1923.43	763.5
1924.42	724.5
1925.41	752
1926.4	741
1927.39	749.5
1928.38	752.5
1929.38	742
1930.37	740
1931.36	736.5
1932.35	742.5
1933.34	742.5
1934.33	741.5
1935.32	754
1936.31	736
1937.3	725
1938.29	757
1939.28	747
1940.26	717.5
1941.25	733.5
1942.24	730
1943.23	757.5
1944.22	734.5
1945.21	704.5
1946.2	715
1947.18	743
1948.17	727
1949.16	708.5
1950.15	719.5
1951.13	728
1952.12	716.5
1953.11	726.5
1954.1	714
1955.08	724
1956.07	711
1957.06	725.5
1958.04	709
1959.03	712
1960.01	701
1961	712
1961.99	724.5
1962.97	722
1963.96	720.5
1964.94	708
1965.93	708.5
1966.91	708
1967.9	696
1968.88	699.5
1969.87	690.5
1970.85	708.5
1971.84	701.5
1972.82	696
1973.81	677
1974.79	688.5
1975.77	685.5
1976.76	707.5
1977.74	697
1978.72	706.5
1979.71	692
1980.69	691.5
1981.67	714
1982.65	691
1983.64	707
1984.62	707.5
1985.6	683
1986.58	710.5
1987.56	710.5
1988.55	698.5
1989.53	691.5
1990.51	697
1991.49	668
1992.47	696
1993.45	700.5
1994.43	696.5
1995.41	682.5
1996.39	677
1997.37	702
1998.36	685
1999.34	681.5
2000.31	678
2001.29	681.5
2002.27	682.5
2003.25	691
2004.23	677
2005.21	694
2006.19	678
2007.17	670
2008.15	675.5
2009.13	677
2010.11	663
2011.08	669
2012.06	662
2013.04	673
2014.02	677
2015	667
2015.97	670
2016.95	663.5
2017.93	662
2018.91	672.5
2019.88	681
2020.86	670
2021.83	662.5
2022.81	679
2023.79	663.5
2024.76	668.5
2025.74	654
2026.72	659.5
2027.69	649
2028.67	658
2029.64	641.5
2030.62	654.5
2031.59	660
2032.57	655.5
2033.54	667.5
2034.52	646
2035.49	659
2036.47	655
2037.44	664
2038.41	664.5
2039.39	649
2040.36	650
2041.34	639.5
2042.31	646
2043.28	630
2044.26	657
2045.23	653
2046.2	644.5
2047.17	656.5
2048.15	636
2049.12	659
2050.09	649.5
2051.06	645
2052.04	637.5
2053.01	652.5
2053.98	656.5
2054.95	627
2055.92	651.5
2056.89	634
2057.86	635
2058.84	649.5
2059.81	626
2060.78	623
2061.75	650
2062.72	631.5
2063.69	630
2064.66	634
2065.63	633.5
2066.6	637
2067.57	639.5
2068.54	632.5
2069.51	631.5
2070.48	639
2071.44	630.5
2072.41	644.5
2073.38	633
2074.35	642.5
2075.32	631
2076.29	627.5
2077.26	626
2078.22	622
2079.19	618
2080.16	636.5
2081.13	621
2082.09	635
2083.06	634
2084.03	618
2085	625
2085.96	606
2086.93	628
2087.9	621.5
2088.86	627
2089.83	638
2090.79	624
2091.76	634.5
2092.73	621.5
2093.69	623
2094.66	627
2095.62	628
2096.59	632.5
2097.55	619.5
2098.52	639
2099.48	635
2100.45	633.5
2101.41	644
2102.38	639.5
2103.34	645.5
2104.3	658
2105.27	649
2106.23	657.5
2107.19	658
2108.16	675.5
2109.12	663.5
2110.08	664.5
2111.05	662.5
2112.01	681
2112.97	686.5
2113.94	696
2114.9	684
2115.86	707
2116.82	706.5
2117.78	702.5
2118.75	750
2119.71	756
2120.67	747
2121.63	766.5
2122.59	769
2123.55	778.5
2124.51	787
2125.47	813
2126.43	821.5
2127.4	815.5
2128.36	816.5
2129.32	823.5
2130.28	836.5
2131.24	835
2132.2	852.5
2133.16	832
2134.11	877
2135.07	887
2136.03	886.5
2136.99	886
2137.95	885.5
2138.91	913
2139.87	883
2140.83	896
2141.78	901.5
2142.74	888
2143.7	885.5
2144.66	915.5
2145.62	906.272
2146.57	914.448
2147.53	925.959
2148.49	923.631
2149.45	914.934
2150.4	927.438
2151.36	941.096
2152.32	929.757
2153.27	923.914
2154.23	927.999
2155.19	932.783
2156.14	964.124
2157.1	926.032
2158.05	940.063
2159.01	950.669
2159.96	937.845
2160.92	938.189
2161.88	943.337
2162.83	952.326
2163.78	958.757
2164.74	966.299
2165.69	953.757
2166.65	954.349
2167.6	956.073
2168.56	951.918
2169.51	941.879
2170.47	933.951
2171.42	943.02
2172.37	928.904
2173.33	922.95
2174.28	907.205
2175.23	905.91
2176.19	889.199
2177.14	885.392
2178.09	866.95
2179.04	864.163
2180	841.379
2180.95	834.286
2181.9	832.139
2182.85	829.375
2183.81	793.074
2184.76	778.778
2185.71	771.406
2186.66	752.223
2187.61	741.333
2188.56	740.002
2189.51	709.222
2190.46	708.11
2191.42	694.265
2192.37	687.211
2193.32	672.351
2194.27	673.455
2195.22	656.202
2196.17	661.407
2197.12	642.129
2198.07	630.75
2199.02	619.841
2199.97	617.656
2200.92	608.575
2201.86	605.496
2202.81	593.711
2203.76	589.461
2204.71	596.554
2205.66	572.601
2206.61	566.755
2207.56	559.159
2208.5	557.855
2209.45	566.713
2210.4	564.173
2211.35	557.946
2212.3	555.043
2213.24	554.024
2214.19	551.593
2215.14	545.565
2216.08	536.966
2217.03	537.533
2217.98	543.069
2218.92	547.673
2219.87	546.107
2220.82	538.586
2221.76	545.294
2222.71	543.115
2223.65	538.213
2224.6	534.032
2225.55	528.868
2226.49	536.962
2227.44	539.931
2228.38	534.278
2229.33	539.508
2230.27	538.756
2231.22	531.417
2232.16	533.218
2233.11	537.489
2234.05	535.992
2234.99	532.386
2235.94	529.787
2236.88	534.054
2237.83	527.726
2238.77	527.628
2239.71	537.608
2240.66	539.875
2241.6	538.631
2242.06	537.5
2243.01	534
2243.96	550
2244.91	554
2245.85	553
2246.8	563
2247.75	534
2248.7	560
2249.64	553
2250.59	537
2251.54	552
2252.48	557.5
2253.43	533.5
2254.38	551
2255.32	524.5
2256.27	524
2257.21	523
2258.16	524
2259.1	523
2260.05	523
2260.99	523
2261.94	530
2262.89	510
2263.83	514
2264.77	515.5
2265.72	522.5
2266.66	486
2267.61	506.5
2268.55	499
2269.5	504
2270.44	504.5
2271.38	516.5
2272.33	505
2273.27	488
2274.21	501
2275.16	508.5
2276.1	513.5
2277.04	495.5
2277.98	502
2278.93	486
2279.87	495
2280.81	490.5
2281.75	494
2282.7	489
2283.64	500.5
2284.58	496.5
2285.52	495
2286.46	481.5
2287.4	476
2288.34	496.5
2289.29	498.5
2290.23	505.5
2291.17	496
2292.11	492.5
2293.05	480.5
2293.99	488
2294.93	495
2295.87	498
2296.81	488
2297.75	478.5
2298.69	489
2299.63	483.5
2300.57	485.5
2301.51	468
2302.44	498
2303.38	481
2304.32	490
2305.26	487.5
2306.2	479.5
2307.14	473.5
2308.08	470
2309.01	479
2309.95	471
2310.89	487.5
2311.83	462.5
2312.77	466
2313.7	473
2314.64	465
2315.58	474
2316.51	482
2317.45	449
2318.39	480
2319.32	469
2320.26	463.5
2321.2	460.5
2322.13	474.5
2323.07	467
2324	471
2324.94	468
2325.88	472
2326.81	461.5
2327.75	462
2328.68	456.5
2329.62	463
2330.55	464
2331.49	469
2332.42	465.5
2333.35	480.5
2334.29	467
2335.22	468.5
2336.16	463
2337.09	466
2338.02	479.5
2338.96	466
2339.89	454
2340.82	440
2341.76	456
2342.69	455
2343.62	458
2344.56	469
2345.49	462
2346.42	455
2347.35	458
2348.29	454
2349.22	451
2350.15	448
2351.08	450
2352.01	459
2352.94	456.5
2353.88	460.5
2354.81	452.5
2355.74	468.5
2356.67	459
2357.6	467.5
2358.53	460.5
2359.46	449.5
2360.39	448.5
2361.32	443
2362.25	463
2363.18	448
2364.11	448
2365.04	442
2365.97	445.5
2366.9	453.5
2367.83	464
2368.76	454.5
2369.69	453
2370.62	458.5
2371.55	453
2372.47	454
2373.4	462
2374.33	447.5
2375.26	457.5
2376.19	450.5
2377.11	451
2378.04	460.5
2378.97	463
2379.9	438.5
2380.83	444
2381.75	438
2382.68	453
2383.61	440
2384.53	442.5
2385.46	459.5
2386.39	439
2387.31	441
2388.24	450.5
2389.17	433
2390.09	451
2391.02	440.5
2391.94	429
2392.87	441.5
2393.79	437
2394.72	436.5
2395.64	435
2396.57	436.5
2397.49	438.5
2398.42	426
2399.34	448.5
2400.27	445.5
2401.19	437.5
2402.12	433.5
2403.04	425.5
2403.96	441.5
2404.89	431.5
2405.81	446
2406.74	451.5
2407.66	436.5
2408.58	444
2409.51	437
2410.43	445
2411.35	427
2412.27	430
2413.2	433
2414.12	422
2415.04	436
2415.96	434.5
2416.89	436.5
2417.81	429
2418.73	432.5
2419.65	442.5
2420.57	434
2421.49	418
2422.41	426.5
2423.34	409
2424.26	408
2425.18	449
2426.1	429
2427.02	411
2427.94	428
2428.86	415
2429.78	423.5
2430.7	409
2431.62	426
2432.54	415
2433.46	411
2434.38	410.5
2435.3	416.5
2436.22	440
2437.13	414.5
2438.05	428.5
2438.97	413
2439.89	416
2440.81	427
2441.73	417.5
2442.65	429
2443.56	419
2444.48	422.5
2445.4	426
2446.32	414
2447.24	414.5
2448.15	415
2449.07	409
2449.99	413
2450.9	426
2451.82	411.5
2452.74	422.5
2453.65	404
2454.57	415.5
2455.49	403.5
2456.4	420.5
2457.32	410
2458.23	407
2459.15	402.5
2460.07	405.5
2460.98	405
2461.9	412
2462.81	413
2463.73	413
2464.64	416
2465.56	410
2466.47	410
2467.39	411
2468.3	420
2469.21	418
2470.13	400
2471.04	404.5
2471.96	412.5
2472.87	404
2473.78	406
2474.7	397.5
2475.61	402.5
2476.52	408
2477.44	403
2478.35	399.5
2479.26	411
2480.17	406
2481.09	405
2482	412.5
2482.91	403.5
2483.82	390
2484.74	409.5
2485.65	397.5
2486.56	404.5
2487.47	408
2488.38	398.5
2489.29	397.5
2490.21	382
2491.12	406
2492.03	397.5
2492.94	401
2493.85	408
2494.76	387
2495.67	411.5
2496.58	388
2497.49	406.5
2498.4	402.5
2499.31	391
2500.22	398
2501.13	407
2502.04	397.5
2502.95	399
2503.86	402
2504.76	397
2505.67	397
2506.58	386
2507.49	399.5
2508.4	396
2509.31	402
2510.22	401.5
2511.12	396
2512.03	386
2512.94	389.5
2513.85	394.5
2514.76	404
2515.66	405
2516.57	384
2517.48	396.5
2518.38	385
2519.29	390
2520.2	376
2521.1	385
2522.01	385.5
2522.92	389
2523.82	390
2524.73	386
2525.64	374
2526.54	393
2527.45	390.5
2528.35	381
2529.26	396
2530.16	404.5
2531.07	394.5
2531.97	383.5
2532.88	391.5
2533.78	382.5
2534.69	391.5
2535.59	376.5
2536.5	382.5
2537.4	375
2538.31	372
2539.21	374.5
2540.11	388
2541.02	382
2541.92	378.5
2542.82	380.5
2543.73	383
2544.63	378
2545.53	390
2546.44	374.5
2547.34	375
2548.24	377
2549.14	388.5
2550.05	373.5
2550.95	385
2551.85	375.5
2552.75	365.5
2553.65	360
2554.56	387
2555.46	376
2556.36	376
2557.26	373.5
2558.16	369
2559.06	367.5
2559.96	369
2560.86	374.5
2561.76	361.5
2562.67	369
2563.57	362.5
2564.47	373
2565.37	383
2566.27	378
2567.17	381.5
2568.06	376.5
2568.96	376.5
2569.86	373.5
2570.76	367
2571.66	367
2572.56	360
2573.46	367.5
2574.36	364
2575.26	363
2576.16	381
2577.05	372.5
2577.95	368
2578.85	367
2579.75	350
2580.65	368.5
2581.54	348.5
2582.44	364
2583.34	362
2584.24	360
2585.13	381.5
2586.03	358
2586.93	368.5
2587.83	365.5
2588.72	366
2589.62	375.5
2590.51	356.5
2591.41	362
2592.31	357
2593.2	364.5
2594.1	355.5
2594.99	363.5
2595.89	347.5
2596.79	370
2597.68	357
2598.58	355.5
2599.47	354.5
2600.37	351.5
2601.26	363
2602.16	347
2603.05	360
2603.94	354.5
2604.84	349.5
2605.73	369.5
2606.63	355
2607.52	359
2608.42	354.5
2609.31	350.5
2610.2	349.5
2611.1	347
2611.99	343
2612.88	358
2613.78	352
2614.67	350.5
2615.56	346
2616.45	357.5
2617.35	357
2618.24	351.5
2619.13	348
2620.02	347
2620.91	349
2621.81	326
2622.7	343
2623.59	346.5
2624.48	340
2625.37	352
2626.26	339
2627.15	349.5
2628.04	359
2628.94	341.5
2629.83	342.5
2630.72	345
2631.61	333
2632.5	341.5
2633.39	342
2634.28	340
2635.17	353
2636.06	342.5
2636.95	344
2637.84	335.5
2638.73	333
2639.61	336.5
2640.5	339.5
2641.39	336.5
2642.28	357
2643.17	335.5
2644.06	338
2644.95	335.5
2645.84	344.5
2646.72	330
2647.61	329
2648.5	330.5
2649.39	338
2650.28	344.5
2651.16	337.5
2652.05	335
2652.94	337.5
2653.82	339.5
2654.71	332
2655.6	333
2656.49	331
2657.37	328
2658.26	331
2659.14	328
2660.03	346
2660.92	339.5
2661.8	330.5
2662.69	336
2663.57	332
2664.46	344
2665.35	325.5
2666.23	326
2667.12	332.5
2668	333.5
2668.89	329
2669.77	335.5
2670.66	329.5
2671.54	344.5
2672.42	330
2673.31	325.5
2674.19	322.5
2675.08	330
2675.96	326
2676.84	328.5
2677.73	309.5
2678.61	327
2679.49	334.5
2680.38	322
2681.26	320
2682.14	318.5
2683.03	332
2683.91	315
2684.79	329
2685.68	327.5
2686.56	317.5
2687.44	321
2688.32	325
2689.2	323
2690.09	322.5
2690.97	324
2691.85	315.5
2692.73	310
2693.61	321.5
2694.49	332.5
2695.37	320.5
2696.25	314.5
2697.14	325.5
2698.02	322.5
2698.9	326
2699.78	325
2700.66	328
2701.54	321
2702.42	307
2703.3	311.5
2704.18	325.5
2705.06	316.5
2705.94	325
2706.82	305
2707.7	324
2708.57	328.5
2709.45	301.5
2710.33	309.5
2711.21	328.5
2712.09	309
2712.97	316.5
2713.85	321.5
2714.72	317
2715.6	311.5
2716.48	324.5
2717.36	313
2718.24	323.5
2719.11	315
2719.99	314.5
2720.87	319
2721.75	315
2722.62	311
2723.5	324.5
2724.38	314
2725.25	315.5
2726.13	317
2727.01	312
2727.88	303
2728.76	321
2729.63	313
2730.51	298
2731.39	301.5
2732.26	308
2733.14	314
2734.01	312.5
2734.89	307.5
2735.76	300
2736.64	309
2737.51	305
2738.39	305
2739.26	298
2740.14	306
2741.01	299
2741.89	297
2742.76	307
2743.63	315
2744.51	306.5
2745.38	308
2746.26	308.5
2747.13	300.5
2748	310.5
2748.88	297.5
2749.75	295.5
2750.62	309
2751.5	300.5
2752.37	291
2753.24	307
2754.11	304.5
2754.99	290.5
2755.86	289
2756.73	290
2757.6	292
2758.47	309
2759.35	294
2760.22	295
2761.09	302.5
2761.96	296
2762.83	302.5
2763.7	300.5
2764.57	294.5
2765.44	307.5
2766.32	304.5
2767.19	298.5
2768.06	292
2768.93	299.5
2769.8	292
2770.67	293.5
2771.54	291.5
2772.41	302.5
2773.28	299
2774.15	293
2775.02	292
2775.89	275
2776.75	291
2777.62	304
2778.49	294
2779.36	283
2780.23	289
2781.1	288.5
2781.97	273
2782.84	292.5
2783.7	288.5
2784.57	286
2785.44	286.5
2786.31	297.5
2787.18	280
2788.04	282
2788.91	285
2789.78	287.5
2790.64	287.5
2791.51	282.5
2792.38	267
2793.24	287
2794.11	289
2794.98	288
2795.85	287
2796.71	279.5
2797.58	294
2798.44	296
2799.31	288
2800.18	293.5
2801.04	280.5
2801.91	283
2802.77	290
2803.64	288
2804.5	286
2805.37	284
2806.23	286
2807.1	278
2807.96	268
2808.83	284.5
2809.69	283.5
2810.55	277
2811.42	279
2812.28	289
2813.15	284.5
2814.01	281
2814.88	271
2815.74	285.5
2816.6	274
2817.46	274.5
2818.33	293
2819.19	279.5
2820.05	285.5
2820.92	280
2821.78	277
2822.64	276
2823.51	275.5
2824.37	289
2825.23	272.5
2826.09	274
2826.95	275
2827.81	287.5
2828.68	276
2829.54	277.5
2830.4	275.5
2831.26	276
2832.12	287.5
2832.98	283.5
2833.84	280
2834.71	280
2835.57	277.5
2836.43	274.5
2837.29	292
2838.15	277
2839.01	280
2839.87	281
2840.73	273.5
2841.59	270
2842.45	284.5
2843.31	274
2844.17	276.5
2845.02	287.5
2845.88	280
2846.74	286
2847.6	288.5
2848.46	303
2849.32	299
2850.18	291
2851.04	290
2851.9	297.5
2852.75	289
2853.61	295.5
2854.47	292
2855.33	283
2856.19	281
2857.04	296.5
2857.9	291.5
2858.76	289.5
2859.61	297.5
2860.47	284
2861.33	285
2862.19	298.5
2863.04	288
2863.9	282
2864.76	293.5
2865.61	294
2866.47	297
2867.32	293
2868.18	280.5
2869.04	297.5
2869.89	282
2870.75	294.5
2871.6	286
2872.46	299
2873.31	292
2874.17	291.5
2875.02	283.5
2875.88	300
2876.73	283.5
2877.59	287.5
2878.44	299.5
2879.3	288
2880.15	297
2881	302
2881.86	293.5
2882.71	288
2883.57	284
2884.42	297
2885.27	295
2886.13	293
2886.98	302
2887.83	289
2888.69	289
2889.54	286
2890.39	279
2891.24	284.5
2892.1	297
2892.95	296
2893.8	298
2894.65	290
2895.51	307.5
2896.36	298.5
2897.21	294
2898.06	290
2898.91	293
2899.76	298.5
2900.62	302.5
2901.47	309.5
2902.32	305
2903.17	304
2904.02	311
2904.87	297.5
2905.72	304.5
2906.57	303.5
2907.42	300.5
2908.27	311
2909.12	300.5
2909.97	319.5
2910.82	307.5
2911.67	307
2912.52	299
2913.37	300
2914.22	314.5
2915.07	303
2915.92	322.5
2916.77	306.5
2917.62	303
2918.47	308.5
2919.31	299
2920.16	305.5
2921.01	293
2921.86	308
2922.71	303
2923.55	304
2924.4	305
2925.25	307.5
2926.1	305.5
2926.94	307
2927.79	306.5
2928.64	316.5
2929.49	312
2930.33	312
2931.18	300.5
2932.03	316
2932.87	315
2933.72	314.5
2934.57	315.5
2935.41	302
2936.26	313.5
2937.11	300
2937.95	301
2938.8	308
2939.64	308
2940.49	304
2941.33	311.5
2942.18	315.5
2943.02	305.5
2943.87	299
2944.71	294.5
2945.56	294.5
2946.4	303.5
2947.25	280
2948.09	288
2948.94	286.5
2949.78	276
2950.63	274.5
2951.47	279
2952.31	273
2953.16	274.5
2954	274.5
2954.84	276
2955.69	268
2956.53	274.5
2957.37	264
2958.22	264
2959.06	266.5
2959.9	262
2960.75	260.5
2961.59	265
2962.43	260.5
2963.27	270
2964.11	269.5
2964.96	255
2965.8	266
2966.64	265.5
2967.48	262
2968.32	263.5
2969.16	265.5
2970.01	255.5
2970.85	259
2971.69	255
2972.53	265
2973.37	245.5
2974.21	261
2975.05	257
2975.89	259
2976.73	244
2977.57	247
2978.41	250
2979.25	249
2980.09	241
2980.93	246
2981.77	252
2982.61	246
2983.45	244
2984.29	233
2985.13	247.5
2985.97	242
2986.81	244
2987.65	238
2988.49	233
2989.32	243
2990.16	241
2991	234.5
2991.84	243.5
2992.68	242
2993.51	230.5
2994.35	241.5
2995.19	233.5
2996.03	225.5
2996.86	220.5
2997.7	219.5
2998.54	232
2999.38	223.5
