#Acq. time (s)=	5
#Accumulations=	5
#Range (cm-¹)=	100...3000
#Windows=	3
#Autofocus=	Off
#AutoExposure=	Off
#Spike filter=	Multiple accum.
#Delay time (s)=	0
#Binning=	1
#Readout mode=	Signal
#DeNoise=	Off
#ICS correction=	Off
#Dark correction=	Off
#Inst. Process=	Off
#Instrument=	LabRAM HR Evol
#Detector=	Syncerity OE
#Objective=	x100_VIS_LWD
#Grating=	600 (500nm)
#ND Filter=	100%
#Laser=	633nm_Edge
#Hole=	100.021
#Range=	Visible
#Project=	Omar
#Sample=	chi
#Site=	f
#Title=	nsno
#Remark=	
#Date=	12.09.2023 16:50
#Acquired=	12.09.2023 16:50:42
101.026	4425
102.309	4400
103.592	4371.5
104.875	4283.5
106.158	4301
107.441	4271
108.723	4220
110.005	4184
111.289	4166
112.571	4124.5
113.852	4112.5
115.134	4043.5
116.415	4036
117.696	4051
118.976	3987.5
120.257	3922.5
121.537	3976
122.817	3896
124.097	3907
125.377	3918.5
126.656	3835.5
127.936	3841
129.215	3808
130.493	3787
131.772	3767
133.049	3714
134.327	3723.5
135.605	3723
136.883	3688.5
138.161	3659
139.438	3573.5
140.715	3563.5
141.992	3598.5
143.269	3538.5
144.545	3531
145.82	3480
147.096	3458.5
148.372	3425.5
149.648	3462.5
150.924	3377.5
152.199	3382.5
153.472	3336
154.747	3316
156.022	3345
157.296	3327.5
158.571	3284
159.843	3308.5
161.117	3219
162.391	3196.5
163.664	3203
164.937	3209.5
166.209	3227
167.482	3198.5
168.754	3156
170.025	3147
171.297	3150
172.569	3152
173.841	3104
175.111	3071
176.383	3078
177.654	3048.5
178.923	3047.5
180.194	3052.5
181.464	3045
182.733	3055
184.003	3099.5
185.273	3032.5
186.542	3040.5
187.811	3043
189.079	3014.5
190.348	3070
191.617	3056
192.884	3052.5
194.152	3072
195.419	3097
196.687	3023.5
197.955	3079
199.221	3064.5
200.489	3108
201.755	3083
203.022	3131
204.287	3103
205.554	3149
206.818	3108.5
208.085	3084.5
209.349	3067
210.615	3121.5
211.879	3139
213.144	3102.5
214.408	3108
215.673	3103.5
216.936	3108
218.201	3106
219.464	3134.5
220.728	3101.5
221.99	3145.5
223.253	3094
224.516	3101
225.778	3086
227.041	3089.5
228.303	3103.5
229.564	3117.5
230.826	3116.5
232.087	3114
233.348	3140
234.61	3136
235.87	3162
237.13	3156.5
238.391	3133.5
239.651	3150.5
240.91	3169
242.171	3166
243.43	3172.5
244.689	3165.5
245.949	3207.5
247.207	3192
248.465	3180.5
249.723	3218.5
250.983	3245.5
252.24	3221.5
253.498	3234.5
254.755	3211.5
256.013	3222
257.27	3157
258.526	3249.5
259.783	3216
261.039	3210
262.296	3209
263.552	3226.5
264.808	3227.5
266.063	3198.5
267.318	3210.5
268.573	3166.5
269.828	3227.5
271.084	3237.5
272.338	3195
273.592	3180.5
274.846	3199
276.1	3218
277.353	3230.5
278.607	3187
279.86	3224
281.113	3258.5
282.365	3261
283.619	3267
284.872	3246
286.124	3257
287.376	3287.5
288.627	3256.5
289.879	3284
291.13	3286
292.381	3283
293.632	3270
294.883	3315.5
296.133	3323
297.384	3351
298.634	3316
299.883	3337.5
301.133	3362
302.381	3361
303.63	3344
304.879	3303
306.128	3338.5
307.377	3334.5
308.625	3367
309.874	3372.5
311.122	3332.5
312.37	3303.5
313.617	3327
314.863	3321.5
316.111	3302
317.358	3310
318.604	3315.5
319.851	3298.5
321.098	3304
322.342	3277
323.588	3233
324.834	3235.5
326.08	3262.5
327.325	3257.5
328.569	3238
329.814	3217
331.059	3256.5
332.304	3236
333.548	3218.5
334.791	3190.5
336.035	3170
337.279	3186
338.521	3190
339.765	3194.5
341.008	3187
342.251	3180.5
343.492	3136
344.735	3208.5
345.977	3192
347.218	3176.5
348.46	3215.5
349.702	3212
350.942	3180
352.184	3189
353.425	3148.5
354.665	3183.5
355.905	3193
357.145	3219
358.385	3188
359.625	3169
360.864	3187.5
362.104	3204
363.342	3215
364.581	3230.5
365.819	3161
367.058	3198.5
368.296	3204.5
369.534	3189
370.771	3182.5
372.01	3170.5
373.246	3170.5
374.484	3223.5
375.72	3180.5
376.958	3175
378.194	3184.5
379.431	3181
380.666	3160
381.903	3157.5
383.138	3194
384.374	3201
385.609	3129.5
386.845	3133.5
388.079	3146.5
389.313	3178.5
390.548	3132.5
391.782	3132.5
393.016	3158.5
394.25	3119
395.483	3167.5
396.718	3200
397.95	3132
399.183	3150.5
400.416	3134.5
401.648	3151.5
402.88	3182
404.113	3173
405.345	3175.5
406.576	3210
407.807	3217
409.04	3230
410.27	3189
411.501	3225
412.731	3196
413.963	3232
415.193	3210.5
416.422	3253.5
417.652	3258
418.883	3247.5
420.112	3246.5
421.341	3253
422.569	3263.5
423.798	3248.5
425.028	3252.5
426.256	3288
427.484	3309.5
428.711	3274.5
429.939	3309
431.166	3295.5
432.394	3284.5
433.622	3268
434.849	3292.5
436.075	3301.5
437.302	3310
438.528	3312
439.754	3310
440.98	3307
442.205	3293
443.431	3275
444.656	3287.5
445.881	3285
447.106	3265
448.33	3281.5
449.555	3247
450.779	3280
452.003	3329.5
453.227	3305
454.45	3280
455.674	3319.5
456.897	3239.5
458.12	3275
459.343	3286
460.566	3269
461.788	3260
463.01	3293.5
464.232	3256.5
465.454	3272
466.676	3320.5
467.897	3291
469.119	3254.5
470.34	3287
471.559	3315.5
472.78	3301
474.001	3274.5
475.221	3249
476.441	3291
477.661	3280.5
478.879	3311
480.099	3288
481.318	3336.5
482.537	3324
483.756	3323.5
484.974	3290
486.192	3324
487.411	3306.5
488.629	3321
489.847	3323
491.063	3394
492.281	3321
493.498	3323.5
494.714	3325
495.931	3351
497.148	3351
498.365	3383.5
499.58	3351.5
500.796	3354.5
502.012	3385
503.226	3371.5
504.442	3342.5
505.657	3377
506.871	3398
508.086	3386.5
509.3	3427
510.515	3375
511.729	3382.5
512.942	3354.5
514.156	3395.5
515.369	3403
516.582	3380
517.796	3353.5
519.008	3345
520.221	3389.5
521.433	3390
522.645	3353.5
523.857	3346.5
525.069	3417.5
526.28	3369
527.492	3374
528.702	3386.5
529.914	3375
531.124	3363.5
532.335	3404
533.545	3329
534.756	3381
535.965	3365
537.175	3365.5
538.384	3364
539.593	3328.5
540.803	3386
542.011	3330
543.221	3371.5
544.429	3358
545.636	3380
546.845	3342.5
548.052	3382.5
549.261	3371
550.468	3331.5
551.675	3380.5
552.883	3366.5
554.089	3351.5
555.295	3373.5
556.503	3388.5
557.709	3358
558.914	3361.5
560.12	3376.5
561.326	3384.5
562.531	3373.5
563.736	3388
564.941	3405
566.147	3386
567.351	3426.5
568.555	3368.5
569.759	3401
570.964	3397.5
572.168	3426.5
573.371	3428.5
574.574	3362
575.777	3386
576.981	3414
578.184	3399
579.386	3414
580.588	3428
581.79	3434
582.992	3389
584.194	3384
585.395	3394.5
586.598	3409
587.799	3386.5
589	3416
590.201	3370.5
591.401	3429.5
592.601	3447.5
593.801	3416
595.001	3443
596.201	3430.5
597.401	3406.5
598.6	3443
599.799	3419
600.998	3403
602.197	3423.5
603.395	3397.5
604.594	3430.5
605.792	3457
606.99	3441.5
608.188	3498.5
609.386	3444
610.583	3457.5
611.78	3486.5
612.977	3484
614.174	3457.5
615.371	3484
616.566	3450
617.762	3474
618.958	3484.5
620.154	3474
621.35	3519.5
622.546	3494
623.741	3469
624.935	3475.5
626.13	3509.5
627.325	3518
628.519	3517.5
629.714	3547
630.908	3558.5
632.101	3547.5
633.295	3575
634.488	3545.5
635.682	3561
636.874	3568.5
638.067	3562.5
639.26	3585
640.453	3551.5
641.644	3579.5
642.836	3585
644.028	3501
645.219	3582
646.411	3568
647.602	3571
648.792	3556.5
649.984	3580
651.175	3572.5
652.364	3522.5
653.555	3552
654.745	3542.5
655.934	3569
657.124	3533
658.314	3515
659.503	3504
660.692	3509.5
661.88	3550.5
663.07	3499
664.257	3528.5
665.446	3509.5
666.635	3535.5
667.822	3523
669.01	3504.5
670.197	3521
671.384	3480
672.571	3523
673.758	3485.5
674.944	3525.5
676.131	3441
677.317	3475.5
678.502	3486
679.689	3464.5
680.874	3476.5
682.06	3473.5
683.245	3476.5
684.431	3459
685.615	3488.5
686.799	3434
687.984	3464
689.168	3447.5
690.353	3467
691.536	3452
692.719	3484
693.904	3405
695.086	3446.5
696.269	3429.5
697.453	3370.5
698.635	3403
699.817	3399
701	3425.5
702.182	3427.5
703.364	3416
704.545	3427
705.727	3451.5
706.908	3439.5
708.089	3436
709.27	3428
710.451	3460
711.632	3412
712.812	3443
713.991	3430.5
715.172	3446.5
716.352	3450
717.531	3416
718.71	3487.5
719.889	3454
721.068	3446.5
722.248	3448
723.426	3474
724.604	3465
725.782	3399
726.96	3494
728.138	3487
729.315	3398
730.492	3435.5
731.669	3442.5
732.846	3459.5
734.024	3491.5
735.201	3494.5
736.377	3504
737.553	3427
738.729	3425.5
739.905	3472
741.081	3467
742.256	3413.5
743.431	3479.5
744.606	3465.5
745.781	3468
746.956	3408.5
748.13	3431
749.303	3450.5
750.477	3447
751.651	3483.5
752.825	3436
753.999	3470
755.172	3458.5
756.345	3424.5
757.518	3458.5
758.691	3449
759.864	3447.5
761.035	3405
762.207	3441.5
763.379	3433
764.551	3436.5
765.723	3416
766.894	3425.5
768.064	3420.5
769.236	3444.5
770.407	3446
771.577	3409.5
772.748	3414
773.917	3420.5
775.088	3424
776.258	3419.5
777.427	3414
778.596	3409.5
779.765	3413
780.935	3418
782.104	3442
783.272	3391
784.44	3427.5
785.609	3406
786.776	3415.5
787.944	3409.5
789.113	3421
790.279	3398.5
791.447	3401.5
792.613	3406
793.78	3430.5
794.948	3417.5
796.113	3438.5
797.28	3452
798.445	3434
799.612	3429.5
800.778	3438
801.943	3456.5
803.109	3458.5
804.273	3458
805.439	3470.5
806.603	3422
807.768	3450
808.932	3429.5
810.096	3476
811.26	3453
812.424	3420.5
813.587	3488.5
814.751	3433.5
815.914	3552
817.078	3422
818.24	3522.5
819.402	3494.5
820.565	3481.5
821.727	3468
822.889	3511
824.051	3498
825.212	3495
826.374	3486.5
827.535	3545
828.697	3483
829.857	3463
831.018	3488.5
832.179	3515.5
833.339	3517.5
834.499	3541.5
835.659	3536
836.819	3508
837.978	3520
839.137	3509
840.297	3524
841.456	3513
842.614	3525.5
843.772	3499.5
844.932	3516
846.09	3519
847.247	3516
848.405	3511.5
849.562	3517
850.721	3524.5
851.878	3528
853.034	3530.5
854.191	3584.5
855.348	3534
856.504	3567
857.661	3538.5
858.817	3579.5
859.973	3554
861.129	3520.5
862.284	3527.5
863.439	3567.5
864.594	3530.5
865.749	3551
866.904	3533
868.058	3533
869.212	3517
870.367	3505.5
871.522	3515.5
872.676	3515
873.829	3485
874.983	3448
876.136	3495.5
877.289	3482
878.442	3490
879.593	3425
880.746	3454
881.898	3420.5
883.05	3438.5
884.202	3436
885.354	3443
886.506	3441.5
887.657	3454.5
888.808	3409
889.96	3452.5
891.11	3441
892.261	3452
893.41	3433
894.561	3393.5
895.711	3405
896.861	3395
898.011	3395.5
899.161	3381.5
900.309	3413
901.458	3410.5
902.607	3363
903.756	3410.5
904.904	3387.5
906.052	3381.5
907.201	3410
908.349	3383.5
909.496	3340.5
910.644	3376
911.791	3372
912.939	3369
914.085	3363
915.232	3386
916.379	3375.5
917.525	3350
918.671	3342.5
919.818	3380
920.963	3378
922.109	3376
923.255	3334
924.399	3330.5
925.545	3346
926.689	3364
927.834	3321.5
928.979	3347.5
930.123	3375
931.268	3375
932.411	3358.5
933.555	3384
934.698	3360.5
935.842	3353.5
936.985	3359.5
938.128	3398
939.271	3366.5
940.414	3338
941.556	3358
942.699	3376.5
943.84	3319.5
944.983	3396
946.124	3367.5
947.266	3383
948.407	3369.5
949.547	3399
950.689	3411.5
951.829	3416
952.971	3395
954.111	3416
955.25	3400
956.391	3434
957.531	3395.5
958.67	3358
959.81	3396
960.949	3396.5
962.088	3397.5
963.227	3418
964.366	3427
965.504	3420.5
966.643	3407
967.781	3421.5
968.919	3412
970.056	3421
971.195	3400
972.332	3367.5
973.469	3446
974.605	3384
975.743	3399.5
976.88	3382.5
978.016	3378.5
979.152	3400.5
980.288	3383
981.423	3456.5
982.56	3379.5
983.696	3414
984.831	3384.5
985.966	3405
987.101	3370
988.235	3408.5
989.37	3392.5
990.504	3397.5
991.638	3427
992.773	3410.5
993.907	3427
995.041	3450.5
996.174	3457.5
997.307	3496.5
998.44	3506
999.573	3519.5
1000.71	3531.5
1001.84	3489.5
1002.97	3444.5
1004.1	3460
1005.24	3388
1006.37	3348
1007.5	3359.5
1008.63	3403.5
1009.76	3367
1010.89	3356
1012.02	3368.5
1013.15	3378.5
1014.28	3383
1015.41	3352
1016.54	3334
1017.67	3349
1018.8	3365.5
1019.93	3345.5
1021.06	3329.5
1022.19	3378.5
1023.32	3395.5
1024.45	3390.5
1025.58	3371.5
1026.71	3379.5
1027.84	3397.5
1028.96	3360
1030.09	3382.5
1031.22	3383
1032.35	3374.5
1033.47	3391.5
1034.6	3386.5
1035.73	3397
1036.86	3370.5
1037.98	3364.5
1039.11	3373
1040.23	3396.5
1041.36	3366.5
1042.49	3426
1043.61	3405.5
1044.74	3411
1045.86	3409
1046.99	3423
1048.11	3455.5
1049.24	3409.5
1050.36	3397.5
1051.49	3392.5
1052.61	3398.5
1053.74	3384
1054.86	3415
1055.98	3407.5
1057.11	3408.5
1058.23	3385
1059.35	3426
1060.48	3436
1061.6	3380.5
1062.72	3390
1063.84	3414.5
1064.97	3385
1066.09	3409
1067.21	3392
1068.33	3388
1069.45	3404.5
1070.57	3424
1071.7	3435.5
1072.82	3413
1073.94	3411.5
1075.06	3409.5
1076.18	3417
1077.3	3434.5
1078.42	3406
1079.54	3421.5
1080.66	3380
1081.78	3419
1082.9	3381.5
1084.02	3369
1085.14	3361.5
1086.25	3345.5
1087.37	3412.5
1088.49	3336.5
1089.61	3382.5
1090.73	3343.5
1091.84	3382
1092.96	3367.5
1094.08	3366.5
1095.2	3351.5
1096.31	3341
1097.43	3321
1098.55	3356
1099.66	3318
1100.78	3359.5
1101.9	3367
1103.01	3327.5
1104.13	3310.5
1105.25	3338
1106.36	3292
1107.48	3320
1108.59	3288.5
1109.71	3320.5
1110.82	3313
1111.93	3332
1113.05	3373.5
1114.16	3336
1115.28	3331
1116.39	3345.5
1117.51	3352
1118.62	3300.5
1119.73	3315.5
1120.85	3338
1121.96	3320
1123.07	3332.5
1124.18	3352.5
1125.3	3349.5
1126.41	3345.5
1127.52	3347.5
1128.63	3348
1129.74	3301
1130.85	3336.5
1131.97	3323.5
1133.08	3364.5
1134.19	3355
1135.3	3378
1136.41	3342.5
1137.52	3306.5
1138.63	3367.5
1139.74	3367.5
1140.85	3359.5
1141.96	3385.5
1143.07	3425.5
1144.18	3423.5
1145.29	3372
1146.4	3362.5
1147.51	3435
1148.61	3428
1149.72	3435
1150.83	3423.5
1151.94	3462
1153.05	3448.5
1154.15	3460.5
1155.26	3505
1156.37	3475.5
1157.48	3527.5
1158.58	3470
1159.69	3531
1160.8	3530.5
1161.9	3528.5
1163.01	3536.5
1164.11	3529.5
1165.22	3574.5
1166.33	3563
1167.43	3598.5
1168.54	3596
1169.64	3572.5
1170.75	3559.5
1171.85	3528
1172.96	3574
1174.06	3576
1175.17	3564.5
1176.27	3502
1177.37	3523
1178.48	3547.5
1179.58	3540.5
1180.68	3497
1181.79	3497.5
1182.89	3525
1183.99	3477
1185.1	3452.5
1186.2	3485
1187.3	3513.5
1188.4	3473
1189.5	3444.5
1190.61	3470
1191.71	3505.5
1192.81	3485
1193.91	3480.5
1195.01	3471
1196.11	3516.33
1197.21	3479.61
1198.31	3486.82
1199.42	3449.79
1200.51	3433.16
1201.61	3411.87
1202.72	3436.17
1203.81	3402.31
1204.91	3424.49
1206.01	3435.51
1207.11	3397.28
1208.21	3411.54
1209.31	3368.67
1210.41	3401.82
1211.51	3396.28
1212.61	3355.16
1213.7	3339.57
1214.8	3351.2
1215.9	3332.75
1217	3329.71
1218.09	3345.39
1219.19	3339.45
1220.29	3345.76
1221.38	3309.75
1222.48	3268.09
1223.58	3269.52
1224.67	3288.54
1225.77	3272.66
1226.87	3291.57
1227.96	3278.86
1229.06	3257.83
1230.15	3245.41
1231.25	3275.31
1232.34	3283.96
1233.44	3236.81
1234.53	3242.55
1235.63	3240.74
1236.72	3230.16
1237.81	3240.29
1238.91	3265.45
1240	3252.73
1241.1	3198.46
1242.19	3201.48
1243.28	3212.76
1244.38	3212.81
1245.47	3196.84
1246.56	3203.93
1247.65	3215.4
1248.75	3178.25
1249.84	3212.14
1250.93	3202.94
1252.02	3188.3
1253.11	3194.52
1254.21	3176.58
1255.3	3174.38
1256.39	3196
1257.48	3191.59
1258.57	3192.04
1259.66	3175.86
1260.75	3182.86
1261.84	3174.03
1262.93	3167.66
1264.02	3144.79
1265.11	3169.54
1266.2	3141.96
1267.29	3156.06
1268.38	3190.63
1269.47	3169.45
1270.56	3175.51
1271.65	3159.13
1272.73	3127.22
1273.82	3134.98
1274.91	3144.15
1276	3135.51
1277.09	3133.01
1278.17	3118.91
1279.26	3109.75
1280.35	3114.42
1281.43	3077.9
1282.52	3097.29
1283.61	3082.16
1284.69	3097.05
1285.78	3079.49
1286.87	3062.53
1287.95	3075.29
1289.04	3086.99
1290.13	3096.38
1291.21	3061.6
1292.3	3073.65
1293.38	3042.3
1294.47	3058.32
1295.55	3076.57
1296.64	3046.42
1297.72	3047
1298.8	3017.71
1299.89	3043.85
1300.97	3013.51
1302.06	2989.93
1303.14	2965.51
1304.22	2974.96
1305.31	2967.87
1306.39	2950.19
1307.34	2947
1308.43	2951.5
1309.52	2966
1310.6	2973.5
1311.69	2930
1312.78	2990.5
1313.87	2942.5
1314.96	2957.5
1316.04	2923
1317.13	2936.5
1318.21	2940.5
1319.3	2979.5
1320.39	2942.5
1321.47	2945.5
1322.56	2896.5
1323.65	2917.5
1324.73	2936.5
1325.82	2920
1326.9	2905.5
1327.99	2918
1329.07	2942
1330.16	2921.5
1331.24	2900.5
1332.32	2950
1333.41	2913
1334.49	2890.5
1335.58	2889.5
1336.66	2909
1337.74	2888.5
1338.83	2900
1339.91	2871.5
1340.99	2895.5
1342.08	2851
1343.16	2839
1344.24	2849.5
1345.32	2880.5
1346.41	2828
1347.49	2823.5
1348.57	2835.5
1349.65	2812.5
1350.73	2829.5
1351.81	2806.5
1352.9	2831.5
1353.98	2842.5
1355.06	2837.5
1356.14	2822.5
1357.22	2811.5
1358.3	2824.5
1359.38	2794.5
1360.46	2771
1361.54	2776
1362.62	2786
1363.7	2800.5
1364.78	2811.5
1365.85	2777
1366.93	2773
1368.01	2754
1369.09	2764.5
1370.17	2744.5
1371.25	2774
1372.33	2761
1373.4	2741.5
1374.48	2759.5
1375.56	2734
1376.64	2762.5
1377.71	2775.5
1378.79	2775.5
1379.87	2752
1380.94	2777.5
1382.02	2742.5
1383.1	2708
1384.17	2755.5
1385.25	2757.5
1386.32	2738.5
1387.4	2784
1388.47	2770
1389.55	2722.5
1390.63	2727
1391.7	2749.5
1392.77	2703
1393.85	2741
1394.92	2724
1396	2714.5
1397.07	2703.5
1398.15	2692.5
1399.22	2738
1400.29	2718.5
1401.37	2713
1402.44	2706.5
1403.51	2720.5
1404.59	2696
1405.66	2712
1406.73	2703
1407.8	2721
1408.87	2716
1409.95	2726.5
1411.02	2709.5
1412.09	2686
1413.16	2731.5
1414.23	2691
1415.3	2726
1416.38	2700
1417.45	2720
1418.52	2698.5
1419.59	2709
1420.66	2701
1421.73	2708
1422.8	2720
1423.87	2719.5
1424.94	2749.5
1426.01	2743
1427.08	2735
1428.15	2729.5
1429.21	2721
1430.28	2712
1431.35	2710.5
1432.42	2740
1433.49	2749.5
1434.56	2772
1435.63	2756
1436.69	2747.5
1437.76	2767.5
1438.83	2792.5
1439.89	2728.5
1440.96	2752.5
1442.03	2762
1443.1	2771
1444.16	2767.5
1445.23	2795
1446.3	2768.5
1447.36	2761
1448.43	2760
1449.49	2742.5
1450.56	2733
1451.62	2764.5
1452.69	2783
1453.75	2750.5
1454.82	2757
1455.88	2758
1456.95	2770.5
1458.01	2724
1459.08	2772.5
1460.14	2764.5
1461.2	2775
1462.27	2780.5
1463.33	2787
1464.4	2757.5
1465.46	2763
1466.52	2764.5
1467.58	2762
1468.65	2800
1469.71	2772.5
1470.77	2756.5
1471.83	2805
1472.9	2751.5
1473.96	2763
1475.02	2723.5
1476.08	2759
1477.14	2805.5
1478.2	2778.5
1479.27	2749
1480.33	2807
1481.39	2747.5
1482.45	2766.5
1483.51	2755
1484.57	2714
1485.63	2744
1486.69	2740.5
1487.75	2764.5
1488.81	2718.5
1489.87	2745
1490.93	2686.5
1491.99	2704
1493.04	2706.5
1494.1	2674.5
1495.16	2699.5
1496.22	2660.5
1497.28	2680.5
1498.34	2672.5
1499.39	2715
1500.45	2723
1501.51	2671
1502.57	2697.5
1503.62	2657
1504.68	2719
1505.74	2647.5
1506.79	2668.5
1507.85	2655
1508.91	2642.5
1509.96	2699
1511.02	2687
1512.07	2641
1513.13	2670.5
1514.19	2649
1515.24	2638
1516.3	2652.5
1517.35	2639.5
1518.41	2648.5
1519.46	2684
1520.52	2648
1521.57	2662
1522.62	2672
1523.68	2676
1524.73	2676
1525.79	2680
1526.84	2640
1527.89	2671
1528.95	2674.5
1530	2645.5
1531.05	2651
1532.1	2647
1533.16	2665.5
1534.21	2686
1535.26	2647
1536.31	2659
1537.37	2637.5
1538.42	2687
1539.47	2648.5
1540.52	2637
1541.57	2641
1542.62	2640.5
1543.67	2652.5
1544.72	2646.5
1545.78	2643
1546.83	2627
1547.88	2608.5
1548.93	2647
1549.98	2635.5
1551.03	2619.5
1552.07	2626
1553.12	2656
1554.17	2645.5
1555.22	2617.5
1556.27	2640.5
1557.32	2652.5
1558.37	2617
1559.42	2627
1560.47	2645
1561.51	2622
1562.56	2628
1563.61	2614.5
1564.66	2628
1565.7	2626
1566.75	2643
1567.8	2596
1568.85	2597
1569.89	2650
1570.94	2607
1571.98	2611
1573.03	2628
1574.08	2622
1575.12	2624
1576.17	2615.5
1577.21	2577
1578.26	2599
1579.31	2627
1580.35	2630
1581.4	2592
1582.44	2620
1583.49	2596.5
1584.53	2590.5
1585.57	2584
1586.62	2613
1587.66	2626
1588.71	2622.5
1589.75	2628
1590.79	2636.5
1591.84	2611
1592.88	2592
1593.92	2600.5
1594.97	2579
1596.01	2612.5
1597.05	2578.5
1598.09	2587.5
1599.14	2571
1600.18	2536
1601.22	2525.5
1602.26	2512.5
1603.3	2525.5
1604.34	2502.5
1605.38	2479
1606.43	2456
1607.47	2457.5
1608.51	2420.5
1609.55	2405
1610.59	2378
1611.63	2373
1612.67	2346
1613.71	2352.5
1614.75	2345.5
1615.79	2320
1616.83	2280
1617.87	2299.5
1618.91	2271.5
1619.94	2260.5
1620.98	2264
1622.02	2208.5
1623.06	2172.5
1624.1	2180
1625.14	2185
1626.17	2158.5
1627.21	2155.5
1628.25	2132.5
1629.29	2159
1630.32	2146.5
1631.36	2117.5
1632.4	2103
1633.43	2090
1634.47	2045.5
1635.51	2045
1636.54	2030.5
1637.58	2014
1638.62	2038.5
1639.65	2016.5
1640.69	2012.5
1641.72	1988.5
1642.76	1973.5
1643.79	1953
1644.83	1946
1645.86	1940
1646.9	1929.5
1647.93	1904.5
1648.97	1914
1650	1895
1651.04	1889.5
1652.07	1907
1653.1	1870.5
1654.14	1866.5
1655.17	1843
1656.2	1858.5
1657.24	1838.5
1658.27	1836.5
1659.3	1826
1660.34	1792
1661.37	1802
1662.4	1809.5
1663.43	1773
1664.46	1786
1665.5	1778.5
1666.53	1756
1667.56	1769.5
1668.59	1776.5
1669.62	1771.5
1670.65	1747
1671.68	1739
1672.71	1726.5
1673.74	1743.5
1674.77	1698
1675.8	1720.5
1676.83	1691
1677.86	1707.5
1678.89	1698
1679.92	1708
1680.95	1665
1681.98	1666
1683.01	1706
1684.04	1685.5
1685.07	1671
1686.1	1669
1687.13	1644
1688.15	1660.5
1689.18	1655.5
1690.21	1644.5
1691.24	1657
1692.27	1628.5
1693.29	1623
1694.32	1602
1695.35	1622.5
1696.37	1631
1697.4	1605.5
1698.43	1603
1699.45	1594
1700.48	1582
1701.51	1616
1702.53	1613
1703.56	1594.5
1704.58	1603
1705.61	1578.5
1706.64	1584.5
1707.66	1596.5
1708.69	1543
1709.71	1561
1710.73	1569
1711.76	1566.5
1712.78	1523.5
1713.81	1569.5
1714.83	1560
1715.86	1572
1716.88	1553
1717.9	1547.5
1718.93	1555.5
1719.95	1502
1720.97	1514
1722	1538
1723.02	1524
1724.04	1523.5
1725.06	1488.5
1726.09	1515
1727.11	1506.5
1728.13	1507
1729.15	1509.5
1730.17	1505
1731.2	1492
1732.22	1491.5
1733.24	1484.5
1734.26	1492
1735.28	1462
1736.3	1502
1737.32	1476
1738.34	1477
1739.36	1462.5
1740.38	1479
1741.4	1464
1742.42	1471.5
1743.44	1466
1744.46	1457.5
1745.48	1451
1746.5	1455.5
1747.52	1465
1748.54	1430
1749.56	1467.5
1750.57	1444.5
1751.59	1426
1752.61	1433.5
1753.63	1397.5
1754.65	1429.5
1755.66	1428.5
1756.68	1437
1757.7	1406
1758.72	1432
1759.73	1421.5
1760.75	1424.5
1761.77	1427.5
1762.78	1398.5
1763.8	1388
1764.82	1415
1765.83	1383.5
1766.85	1415.5
1767.86	1407.5
1768.88	1382
1769.9	1393
1770.91	1336
1771.93	1362
1772.94	1368.5
1773.96	1350
1774.97	1364
1775.99	1360
1777	1369
1778.01	1383.5
1779.03	1359.5
1780.04	1342
1781.06	1363.5
1782.07	1350.5
1783.08	1358.5
1784.1	1369.5
1785.11	1345
1786.12	1377
1787.14	1332
1788.15	1359.5
1789.16	1353.5
1790.17	1349
1791.18	1339.5
1792.2	1341.5
1793.21	1313
1794.22	1322
1795.23	1316.5
1796.24	1309.5
1797.26	1306
1798.27	1328.5
1799.28	1305.5
1800.29	1309.5
1801.3	1289.5
1802.31	1333
1803.32	1308.5
1804.33	1301
1805.34	1309
1806.35	1317
1807.36	1293
1808.37	1327.5
1809.38	1287
1810.39	1288.5
1811.4	1292
1812.4	1300
1813.41	1278.5
1814.42	1259
1815.43	1275
1816.44	1277
1817.45	1262.5
1818.45	1283.5
1819.46	1278
1820.47	1245
1821.48	1268.5
1822.49	1271.5
1823.49	1265
1824.5	1276
1825.51	1253.5
1826.51	1281
1827.52	1258.5
1828.53	1244
1829.53	1251
1830.54	1253
1831.54	1262.5
1832.55	1221.5
1833.56	1244
1834.56	1232.5
1835.57	1237
1836.57	1226.5
1837.58	1232.5
1838.58	1247
1839.59	1218
1840.59	1214
1841.59	1204.5
1842.6	1231
1843.6	1218
1844.61	1214
1845.61	1215.5
1846.61	1208
1847.62	1184
1848.62	1206.5
1849.62	1192.5
1850.63	1176
1851.63	1213
1852.63	1221
1853.64	1175.5
1854.64	1195.5
1855.64	1190
1856.64	1186
1857.64	1155
1858.65	1195
1859.65	1180
1860.65	1187.5
1861.65	1207
1862.65	1180
1863.65	1165
1864.65	1168.5
1865.65	1152
1866.65	1169.5
1867.65	1173
1868.65	1182
1869.65	1192
1870.65	1166
1871.65	1159.5
1872.65	1170
1873.65	1171
1874.65	1165.5
1875.65	1149
1876.65	1147
1877.65	1166
1878.65	1152
1879.65	1145.5
1880.65	1122
1881.64	1145
1882.64	1126
1883.64	1149.5
1884.64	1127
1885.63	1142.5
1886.63	1145
1887.63	1140.5
1888.63	1149
1889.62	1110
1890.62	1128.5
1891.62	1129.5
1892.61	1119
1893.61	1123
1894.61	1140.5
1895.6	1129.5
1896.6	1113.5
1897.59	1118
1898.59	1115
1899.58	1108
1900.58	1121.5
1901.57	1126
1902.57	1110
1903.56	1131
1904.56	1105.5
1905.55	1110.5
1906.55	1091.5
1907.54	1100.5
1908.54	1124
1909.53	1107.5
1910.52	1115
1911.52	1106.5
1912.51	1122
1913.5	1104.5
1914.5	1101
1915.49	1081
1916.48	1086
1917.48	1075.5
1918.47	1099.5
1919.46	1084
1920.45	1099
1921.44	1094
1922.44	1070.5
1923.43	1063
1924.42	1100
1925.41	1084.5
1926.4	1090
1927.39	1086
1928.38	1073
1929.38	1092
1930.37	1083
1931.36	1075.5
1932.35	1079.5
1933.34	1073
1934.33	1070
1935.32	1064
1936.31	1078
1937.3	1069.5
1938.29	1051
1939.28	1056.5
1940.26	1074.5
1941.25	1063
1942.24	1057.5
1943.23	1067
1944.22	1067.5
1945.21	1084
1946.2	1067
1947.18	1033.5
1948.17	1062.5
1949.16	1059.5
1950.15	1052
1951.13	1044
1952.12	1051
1953.11	1053.5
1954.1	1064
1955.08	1036
1956.07	1042.5
1957.06	1040.5
1958.04	1038.5
1959.03	1040
1960.01	1039
1961	1048.5
1961.99	1048
1962.97	1042
1963.96	1026.5
1964.94	980
1965.93	1011
1966.91	1022.5
1967.9	1030.5
1968.88	1009
1969.87	1011
1970.85	1036.5
1971.84	1017.5
1972.82	1012
1973.81	1016
1974.79	993
1975.77	1015
1976.76	1009
1977.74	992
1978.72	1002
1979.71	1004
1980.69	998.5
1981.67	1007.5
1982.65	995.5
1983.64	1027
1984.62	1020.5
1985.6	993
1986.58	999.5
1987.56	1010
1988.55	996
1989.53	996
1990.51	988
1991.49	990.5
1992.47	974.5
1993.45	984.5
1994.43	975
1995.41	984
1996.39	979
1997.37	978
1998.36	988
1999.34	971.5
2000.31	974.5
2001.29	972
2002.27	960
2003.25	964
2004.23	991.5
2005.21	980
2006.19	979
2007.17	971.5
2008.15	970.5
2009.13	966
2010.11	965
2011.08	962.5
2012.06	970.5
2013.04	961.5
2014.02	960.5
2015	954
2015.97	958.5
2016.95	964
2017.93	978
2018.91	951
2019.88	954
2020.86	938
2021.83	961
2022.81	930
2023.79	950.5
2024.76	935.5
2025.74	942
2026.72	946
2027.69	937.5
2028.67	934
2029.64	937.5
2030.62	932.5
2031.59	949
2032.57	922
2033.54	919.5
2034.52	932
2035.49	928.5
2036.47	927.5
2037.44	905
2038.41	919
2039.39	932.5
2040.36	919
2041.34	936.5
2042.31	933
2043.28	921
2044.26	923
2045.23	937.5
2046.2	926
2047.17	917
2048.15	932.5
2049.12	901.5
2050.09	904.5
2051.06	918.5
2052.04	903
2053.01	913
2053.98	917.5
2054.95	918
2055.92	901
2056.89	921.5
2057.86	884
2058.84	899
2059.81	894
2060.78	879.5
2061.75	886
2062.72	913.5
2063.69	891.5
2064.66	897.5
2065.63	890
2066.6	894
2067.57	896
2068.54	890
2069.51	890
2070.48	878.5
2071.44	902
2072.41	878.5
2073.38	883
2074.35	868
2075.32	868.5
2076.29	883.5
2077.26	864.5
2078.22	880
2079.19	879.5
2080.16	852
2081.13	854
2082.09	871.5
2083.06	857.5
2084.03	884
2085	869.5
2085.96	867
2086.93	872.5
2087.9	869
2088.86	851
2089.83	871.5
2090.79	843.5
2091.76	870.5
2092.73	865
2093.69	854.5
2094.66	863
2095.62	869
2096.59	868
2097.55	868
2098.52	856
2099.48	853.5
2100.45	844.5
2101.41	865.5
2102.38	862
2103.34	865
2104.3	867.5
2105.27	859.5
2106.23	865.5
2107.19	856.5
2108.16	861
2109.12	877.5
2110.08	855
2111.05	881.5
2112.01	887.5
2112.97	881
2113.94	883.5
2114.9	882.5
2115.86	898
2116.82	885
2117.78	920
2118.75	928
2119.71	906
2120.67	923.5
2121.63	922
2122.59	902.5
2123.55	933
2124.51	926
2125.47	954
2126.43	932
2127.4	915.5
2128.36	951.5
2129.32	908.5
2130.28	942.5
2131.24	937.5
2132.2	932
2133.16	930.5
2134.11	926
2135.07	934.5
2136.03	890.5
2136.99	909
2137.95	892.5
2138.91	879.5
2139.87	890
2140.83	890
2141.78	883.5
2142.74	867
2143.7	872.5
2144.66	853
2145.62	846.583
2146.57	857.77
2147.53	846.491
2148.49	824.492
2149.45	807.22
2150.4	822.631
2151.36	798.383
2152.32	798.043
2153.27	809.559
2154.23	805.079
2155.19	808.928
2156.14	786.032
2157.1	798.959
2158.05	793.293
2159.01	782.926
2159.96	787.174
2160.92	770.245
2161.88	778.63
2162.83	773.215
2163.78	767.19
2164.74	763.014
2165.69	753.48
2166.65	761.831
2167.6	765.43
2168.56	764.846
2169.51	758.676
2170.47	753.469
2171.42	755.597
2172.37	742.483
2173.33	739.529
2174.28	740.409
2175.23	748.085
2176.19	745.17
2177.14	723.933
2178.09	727.53
2179.04	728.406
2180	733.385
2180.95	734.007
2181.9	725.429
2182.85	723.799
2183.81	723.149
2184.76	721.659
2185.71	726.933
2186.66	711.864
2187.61	714.286
2188.56	714.459
2189.51	703.587
2190.46	713.575
2191.42	712.115
2192.37	705.378
2193.32	710.505
2194.27	709.063
2195.22	711.799
2196.17	704.168
2197.12	690.332
2198.07	695.614
2199.02	688.38
2199.97	700.568
2200.92	691.002
2201.86	697.598
2202.81	692.073
2203.76	689.147
2204.71	692.274
2205.66	680.683
2206.61	693.051
2207.56	686.261
2208.5	693.296
2209.45	693.118
2210.4	691.902
2211.35	679.069
2212.3	667.798
2213.24	681.878
2214.19	673.63
2215.14	679.452
2216.08	684.595
2217.03	676.068
2217.98	677.375
2218.92	674.352
2219.87	668.758
2220.82	672.954
2221.76	668.161
2222.71	645.017
2223.65	656.309
2224.6	661.245
2225.55	657.892
2226.49	664.35
2227.44	650.303
2228.38	644.786
2229.33	650.861
2230.27	655.113
2231.22	653.438
2232.16	654.218
2233.11	645.451
2234.05	638.773
2234.99	647.381
2235.94	654.806
2236.88	655.736
2237.83	653.467
2238.77	649.153
2239.71	648.468
2240.66	644.268
2241.6	643.059
2242.06	644.5
2243.01	660
2243.96	649
2244.91	644
2245.85	661
2246.8	645.5
2247.75	652.5
2248.7	652
2249.64	669.5
2250.59	639.5
2251.54	645
2252.48	635.5
2253.43	653
2254.38	637
2255.32	641
2256.27	629
2257.21	618
2258.16	624
2259.1	635
2260.05	619.5
2260.99	622.5
2261.94	637
2262.89	612.5
2263.83	613.5
2264.77	623
2265.72	614.5
2266.66	614
2267.61	616
2268.55	601
2269.5	579.5
2270.44	611
2271.38	621
2272.33	593
2273.27	594
2274.21	605.5
2275.16	600
2276.1	595
2277.04	596
2277.98	608.5
2278.93	610
2279.87	592.5
2280.81	597
2281.75	604.5
2282.7	592
2283.64	581
2284.58	609.5
2285.52	593.5
2286.46	603
2287.4	589
2288.34	600.5
2289.29	587
2290.23	596
2291.17	591
2292.11	573
2293.05	582.5
2293.99	582
2294.93	587
2295.87	583.5
2296.81	584
2297.75	597.5
2298.69	586.5
2299.63	575.5
2300.57	585.5
2301.51	561
2302.44	566.5
2303.38	570
2304.32	574.5
2305.26	579
2306.2	586.5
2307.14	571
2308.08	586.5
2309.01	559
2309.95	579
2310.89	562
2311.83	562
2312.77	555
2313.7	576
2314.64	560.5
2315.58	556
2316.51	553
2317.45	571.5
2318.39	578.5
2319.32	573.5
2320.26	550
2321.2	557
2322.13	572.5
2323.07	573
2324	561
2324.94	555.5
2325.88	562.5
2326.81	559
2327.75	560
2328.68	561.5
2329.62	545
2330.55	571
2331.49	569.5
2332.42	554
2333.35	546.5
2334.29	558.5
2335.22	549
2336.16	560.5
2337.09	554
2338.02	554.5
2338.96	550.5
2339.89	565
2340.82	556
2341.76	541
2342.69	538
2343.62	543.5
2344.56	556
2345.49	554.5
2346.42	557
2347.35	540.5
2348.29	535
2349.22	551.5
2350.15	547
2351.08	547.5
2352.01	548.5
2352.94	556.5
2353.88	534
2354.81	549
2355.74	538.5
2356.67	539
2357.6	547
2358.53	547.5
2359.46	543
2360.39	545
2361.32	539.5
2362.25	545
2363.18	532
2364.11	527
2365.04	540
2365.97	546
2366.9	545.5
2367.83	534.5
2368.76	546.5
2369.69	532
2370.62	530
2371.55	518
2372.47	543
2373.4	540
2374.33	520.5
2375.26	545.5
2376.19	535
2377.11	540.5
2378.04	536
2378.97	539.5
2379.9	535.5
2380.83	531
2381.75	531.5
2382.68	538.5
2383.61	521.5
2384.53	508
2385.46	502
2386.39	510.5
2387.31	523
2388.24	514
2389.17	512
2390.09	517.5
2391.02	533.5
2391.94	528
2392.87	530
2393.79	534.5
2394.72	529
2395.64	514
2396.57	504
2397.49	506.5
2398.42	509.5
2399.34	509
2400.27	518.5
2401.19	523.5
2402.12	525
2403.04	485.5
2403.96	511.5
2404.89	496.5
2405.81	500
2406.74	527
2407.66	505.5
2408.58	520.5
2409.51	501.5
2410.43	512
2411.35	498
2412.27	512
2413.2	507
2414.12	511
2415.04	500.5
2415.96	515.5
2416.89	494
2417.81	492
2418.73	508.5
2419.65	509
2420.57	499
2421.49	497.5
2422.41	501
2423.34	487
2424.26	505
2425.18	506
2426.1	499.5
2427.02	495
2427.94	488.5
2428.86	488
2429.78	494.5
2430.7	494
2431.62	498
2432.54	489.5
2433.46	498
2434.38	490
2435.3	497.5
2436.22	499
2437.13	485
2438.05	494
2438.97	486
2439.89	487
2440.81	497
2441.73	492
2442.65	475
2443.56	469
2444.48	492
2445.4	480.5
2446.32	477
2447.24	483
2448.15	491.5
2449.07	477
2449.99	476
2450.9	485.5
2451.82	494
2452.74	494.5
2453.65	483.5
2454.57	486.5
2455.49	476
2456.4	477
2457.32	481
2458.23	491.5
2459.15	472
2460.07	485.5
2460.98	478
2461.9	469.5
2462.81	471.5
2463.73	478.5
2464.64	477.5
2465.56	476
2466.47	456
2467.39	480.5
2468.3	473
2469.21	481.5
2470.13	480
2471.04	474.5
2471.96	462.5
2472.87	454.5
2473.78	462
2474.7	474.5
2475.61	472
2476.52	459
2477.44	473
2478.35	471
2479.26	449
2480.17	463
2481.09	464.5
2482	477
2482.91	460
2483.82	467
2484.74	459
2485.65	457
2486.56	465
2487.47	463
2488.38	465
2489.29	467.5
2490.21	462.5
2491.12	453
2492.03	449.5
2492.94	465
2493.85	455
2494.76	448
2495.67	456
2496.58	469
2497.49	441
2498.4	457
2499.31	451.5
2500.22	455.5
2501.13	456
2502.04	448
2502.95	449
2503.86	435
2504.76	437.5
2505.67	458
2506.58	448
2507.49	440.5
2508.4	457
2509.31	455
2510.22	440
2511.12	444
2512.03	450
2512.94	444.5
2513.85	447.5
2514.76	433
2515.66	446
2516.57	458
2517.48	443
2518.38	455
2519.29	445
2520.2	452
2521.1	444
2522.01	437
2522.92	442.5
2523.82	430
2524.73	430
2525.64	437.5
2526.54	430.5
2527.45	428
2528.35	441
2529.26	439
2530.16	435
2531.07	427.5
2531.97	445
2532.88	432
2533.78	435
2534.69	430
2535.59	434
2536.5	424
2537.4	437
2538.31	430
2539.21	435.5
2540.11	408
2541.02	424.5
2541.92	417
2542.82	436.5
2543.73	425
2544.63	432.5
2545.53	415
2546.44	431
2547.34	430
2548.24	427
2549.14	405.5
2550.05	420.5
2550.95	420.5
2551.85	423
2552.75	427
2553.65	429
2554.56	429.5
2555.46	430
2556.36	419
2557.26	424
2558.16	423.5
2559.06	419.5
2559.96	416.5
2560.86	424
2561.76	418.5
2562.67	414
2563.57	413.5
2564.47	409
2565.37	416.5
2566.27	412.5
2567.17	423
2568.06	404.5
2568.96	415
2569.86	404
2570.76	422.5
2571.66	404.5
2572.56	413.5
2573.46	415.5
2574.36	397
2575.26	415.5
2576.16	409
2577.05	415
2577.95	413.5
2578.85	415
2579.75	392
2580.65	405.5
2581.54	408.5
2582.44	415
2583.34	407
2584.24	400
2585.13	406.5
2586.03	414
2586.93	396.5
2587.83	401.5
2588.72	393
2589.62	393
2590.51	399
2591.41	399
2592.31	403.5
2593.2	392
2594.1	396
2594.99	407.5
2595.89	404
2596.79	396
2597.68	401.5
2598.58	386
2599.47	410
2600.37	385
2601.26	408
2602.16	389
2603.05	393
2603.94	392
2604.84	398.5
2605.73	393
2606.63	389
2607.52	398.5
2608.42	392.5
2609.31	395
2610.2	379.5
2611.1	391
2611.99	398.5
2612.88	378
2613.78	384
2614.67	385.5
2615.56	389
2616.45	387
2617.35	400
2618.24	374
2619.13	389
2620.02	387
2620.91	394
2621.81	394
2622.7	381
2623.59	379
2624.48	384.5
2625.37	374
2626.26	390
2627.15	377.5
2628.04	398.5
2628.94	381
2629.83	377
2630.72	380.5
2631.61	381
2632.5	371
2633.39	369
2634.28	370.5
2635.17	360.5
2636.06	381
2636.95	370.5
2637.84	373
2638.73	376
2639.61	380.5
2640.5	368
2641.39	370
2642.28	354.5
2643.17	369.5
2644.06	378.5
2644.95	364
2645.84	367.5
2646.72	375.5
2647.61	358
2648.5	358
2649.39	382
2650.28	368.5
2651.16	368
2652.05	365.5
2652.94	361
2653.82	351
2654.71	364
2655.6	359.5
2656.49	350
2657.37	358.5
2658.26	366
2659.14	376.5
2660.03	363
2660.92	367
2661.8	365.5
2662.69	375
2663.57	364.5
2664.46	360
2665.35	354.5
2666.23	361
2667.12	362
2668	370
2668.89	356
2669.77	352
2670.66	350
2671.54	349
2672.42	361
2673.31	360.5
2674.19	350.5
2675.08	350.5
2675.96	361
2676.84	356.5
2677.73	365
2678.61	363.5
2679.49	354.5
2680.38	359
2681.26	359.5
2682.14	352
2683.03	357
2683.91	353
2684.79	351
2685.68	350.5
2686.56	351
2687.44	339
2688.32	359
2689.2	354
2690.09	342
2690.97	344
2691.85	350.5
2692.73	320
2693.61	347
2694.49	343.5
2695.37	343.5
2696.25	350
2697.14	342
2698.02	342
2698.9	344
2699.78	342
2700.66	348.5
2701.54	355.5
2702.42	341
2703.3	348
2704.18	337
2705.06	344
2705.94	353
2706.82	343.5
2707.7	358
2708.57	333
2709.45	348
2710.33	341.5
2711.21	351
2712.09	337
2712.97	334
2713.85	337
2714.72	320.5
2715.6	338.5
2716.48	345.5
2717.36	333
2718.24	350
2719.11	320
2719.99	334.5
2720.87	330.5
2721.75	337.5
2722.62	334.5
2723.5	334
2724.38	332.5
2725.25	336.5
2726.13	340.5
2727.01	333.5
2727.88	334
2728.76	334.5
2729.63	325
2730.51	324.5
2731.39	336
2732.26	325.5
2733.14	335
2734.01	330.5
2734.89	340
2735.76	341
2736.64	320
2737.51	334.5
2738.39	319
2739.26	315
2740.14	321
2741.01	334
2741.89	337
2742.76	324
2743.63	332.5
2744.51	323
2745.38	329.5
2746.26	330.5
2747.13	309
2748	323
2748.88	328.5
2749.75	313
2750.62	320
2751.5	327
2752.37	320
2753.24	324.5
2754.11	321
2754.99	309.5
2755.86	316
2756.73	307
2757.6	315
2758.47	315.5
2759.35	322
2760.22	305
2761.09	329.5
2761.96	323
2762.83	316.5
2763.7	312.5
2764.57	318
2765.44	310
2766.32	313
2767.19	315
2768.06	308
2768.93	313
2769.8	304
2770.67	314
2771.54	311.5
2772.41	312
2773.28	314
2774.15	304.5
2775.02	321
2775.89	297
2776.75	316.5
2777.62	306
2778.49	310
2779.36	310
2780.23	310
2781.1	302
2781.97	312
2782.84	308
2783.7	310
2784.57	307.5
2785.44	304
2786.31	309
2787.18	298.5
2788.04	293
2788.91	302
2789.78	292
2790.64	309
2791.51	291.5
2792.38	288.5
2793.24	299.5
2794.11	303.5
2794.98	305
2795.85	300
2796.71	287.5
2797.58	309.5
2798.44	301.5
2799.31	293.5
2800.18	295.5
2801.04	284
2801.91	288.5
2802.77	298
2803.64	298.5
2804.5	299
2805.37	290.5
2806.23	295
2807.1	292.5
2807.96	296.5
2808.83	290
2809.69	296.5
2810.55	293.5
2811.42	295
2812.28	292
2813.15	296.5
2814.01	292.5
2814.88	295.5
2815.74	292
2816.6	288
2817.46	293
2818.33	293.5
2819.19	285
2820.05	289
2820.92	293.5
2821.78	292.5
2822.64	292
2823.51	293.5
2824.37	286.5
2825.23	289
2826.09	291
2826.95	276
2827.81	292.5
2828.68	291
2829.54	294
2830.4	283.5
2831.26	282
2832.12	287.5
2832.98	287
2833.84	289.5
2834.71	289.5
2835.57	291.5
2836.43	289
2837.29	281
2838.15	288
2839.01	287.5
2839.87	284
2840.73	283.5
2841.59	283
2842.45	288
2843.31	284
2844.17	290.5
2845.02	291.5
2845.88	292
2846.74	282
2847.6	293.5
2848.46	296
2849.32	299
2850.18	284.5
2851.04	296
2851.9	304
2852.75	294
2853.61	296.5
2854.47	295
2855.33	284.5
2856.19	285
2857.04	292.5
2857.9	293.5
2858.76	273
2859.61	286
2860.47	298.5
2861.33	282
2862.19	299.5
2863.04	285
2863.9	297
2864.76	290
2865.61	287.5
2866.47	293.5
2867.32	284
2868.18	277
2869.04	293
2869.89	298
2870.75	283
2871.6	294.5
2872.46	297
2873.31	283
2874.17	287.5
2875.02	287.5
2875.88	299
2876.73	291
2877.59	290
2878.44	296
2879.3	281
2880.15	277
2881	296
2881.86	289.5
2882.71	288
2883.57	285.5
2884.42	287.5
2885.27	279
2886.13	287.5
2886.98	291
2887.83	293
2888.69	293
2889.54	275
2890.39	291.5
2891.24	289.5
2892.1	292
2892.95	293
2893.8	288
2894.65	284
2895.51	288.5
2896.36	289
2897.21	290.5
2898.06	284
2898.91	281.5
2899.76	289.5
2900.62	292
2901.47	290.5
2902.32	278
2903.17	275
2904.02	285
2904.87	291.5
2905.72	286
2906.57	282.5
2907.42	286
2908.27	278.5
2909.12	279
2909.97	289
2910.82	298.5
2911.67	290.5
2912.52	282.5
2913.37	296.5
2914.22	297
2915.07	289
2915.92	283.5
2916.77	294.5
2917.62	285
2918.47	279.5
2919.31	286
2920.16	290
2921.01	290
2921.86	292.5
2922.71	297.5
2923.55	296.5
2924.4	289.5
2925.25	290
2926.1	300.5
2926.94	292.5
2927.79	301
2928.64	287.5
2929.49	290.5
2930.33	295
2931.18	299.5
2932.03	299
2932.87	299.5
2933.72	297.5
2934.57	293
2935.41	296.5
2936.26	282.5
2937.11	292
2937.95	281
2938.8	289
2939.64	283.5
2940.49	283.5
2941.33	291
2942.18	288
2943.02	272
2943.87	286
2944.71	284.5
2945.56	282
2946.4	266.5
2947.25	272.5
2948.09	268
2948.94	276
2949.78	271
2950.63	277
2951.47	260.5
2952.31	271
2953.16	260
2954	261.5
2954.84	263.5
2955.69	273
2956.53	254.5
2957.37	259
2958.22	264.5
2959.06	258.5
2959.9	256.5
2960.75	262.5
2961.59	260.5
2962.43	252.5
2963.27	256
2964.11	259.5
2964.96	253
2965.8	253.5
2966.64	257
2967.48	257
2968.32	253
2969.16	254.5
2970.01	255
2970.85	252
2971.69	248.5
2972.53	255
2973.37	255.5
2974.21	243
2975.05	252.5
2975.89	258
2976.73	252
2977.57	244
2978.41	243.5
2979.25	242.5
2980.09	244.5
2980.93	244
2981.77	248.5
2982.61	232.5
2983.45	236
2984.29	245.5
2985.13	240.5
2985.97	232.5
2986.81	235
2987.65	230.5
2988.49	228.5
2989.32	229
2990.16	235
2991	245.5
2991.84	233
2992.68	225.5
2993.51	222
2994.35	231
2995.19	226.5
2996.03	227
2996.86	217.5
2997.7	224.5
2998.54	224.5
2999.38	228
