#Acq. time (s)=	5
#Accumulations=	5
#Range (cm-¹)=	100...3000
#Windows=	3
#Autofocus=	Off
#AutoExposure=	Off
#Spike filter=	Multiple accum.
#Delay time (s)=	0
#Binning=	1
#Readout mode=	Signal
#DeNoise=	Off
#ICS correction=	Off
#Dark correction=	Off
#Inst. Process=	Off
#Instrument=	LabRAM HR Evol
#Detector=	Syncerity OE
#Objective=	x100_VIS_LWD
#Grating=	600 (500nm)
#ND Filter=	100%
#Laser=	633nm_Edge
#Hole=	100.021
#Range=	Visible
#Project=	Omar
#Sample=	chi
#Site=	f
#Title=	nsno
#Remark=	
#Date=	12.09.2023 16:36
#Acquired=	12.09.2023 16:36:38
101.026	5992.5
102.309	5978
103.592	5895
104.875	5826
106.158	5778
107.441	5714.5
108.723	5657.5
110.005	5648
111.289	5577.5
112.571	5518
113.852	5530.5
115.134	5439
116.415	5414.5
117.696	5359
118.976	5341
120.257	5265
121.537	5286
122.817	5246
124.097	5195
125.377	5248
126.656	5177.5
127.936	5135.5
129.215	5065.5
130.493	5046
131.772	5029.5
133.049	4993.5
134.327	4952.5
135.605	4908
136.883	4878.5
138.161	4824.5
139.438	4814
140.715	4778.5
141.992	4785.5
143.269	4734
144.545	4689.5
145.82	4610
147.096	4612
148.372	4570.5
149.648	4538
150.924	4497.5
152.199	4488.5
153.472	4423.5
154.747	4416
156.022	4422.5
157.296	4324.5
158.571	4301
159.843	4331
161.117	4324
162.391	4250
163.664	4259.5
164.937	4245.5
166.209	4219.5
167.482	4202
168.754	4182.5
170.025	4180.5
171.297	4090
172.569	4065.5
173.841	4080
175.111	4035.5
176.383	4038
177.654	4006
178.923	4045.5
180.194	3994
181.464	4006.5
182.733	3990
184.003	3987.5
185.273	4029
186.542	3986.5
187.811	3974
189.079	3957
190.348	3947
191.617	3982.5
192.884	3957.5
194.152	3959.5
195.419	3973
196.687	3968
197.955	4015.5
199.221	4001
200.489	3993
201.755	3984.5
203.022	3988.5
204.287	4046.5
205.554	3999
206.818	4035
208.085	4028.5
209.349	4047
210.615	4018
211.879	4027.5
213.144	4053
214.408	3986
215.673	4021
216.936	4020.5
218.201	4013
219.464	3990
220.728	4006
221.99	4021.5
223.253	4034.5
224.516	3983
225.778	4061.5
227.041	4042.5
228.303	3994.5
229.564	4064.5
230.826	4033
232.087	4065
233.348	4043
234.61	4054.5
235.87	4061.5
237.13	4051
238.391	4083
239.651	4077.5
240.91	4108
242.171	4118.5
243.43	4114.5
244.689	4128.5
245.949	4122.5
247.207	4087.5
248.465	4138.5
249.723	4125.5
250.983	4112.5
252.24	4188
253.498	4150
254.755	4150.5
256.013	4118
257.27	4134.5
258.526	4153
259.783	4152
261.039	4149
262.296	4154.5
263.552	4141
264.808	4143
266.063	4101
267.318	4154
268.573	4136.5
269.828	4114
271.084	4129
272.338	4121
273.592	4131
274.846	4133.5
276.1	4112.5
277.353	4149.5
278.607	4139
279.86	4175.5
281.113	4146.5
282.365	4168
283.619	4153
284.872	4171.5
286.124	4212.5
287.376	4189.5
288.627	4244.5
289.879	4196.5
291.13	4256.5
292.381	4257
293.632	4264.5
294.883	4282.5
296.133	4279.5
297.384	4288.5
298.634	4310.5
299.883	4305
301.133	4359
302.381	4310
303.63	4335
304.879	4351.5
306.128	4332
307.377	4305
308.625	4329
309.874	4356.5
311.122	4317.5
312.37	4313
313.617	4340
314.863	4286
316.111	4261.5
317.358	4277.5
318.604	4309.5
319.851	4271.5
321.098	4279
322.342	4222
323.588	4238
324.834	4227
326.08	4223
327.325	4195.5
328.569	4187
329.814	4172
331.059	4143
332.304	4170.5
333.548	4162
334.791	4159
336.035	4124.5
337.279	4087.5
338.521	4103
339.765	4112
341.008	4125.5
342.251	4127.5
343.492	4084
344.735	4072.5
345.977	4110.5
347.218	4082.5
348.46	4104
349.702	4119.5
350.942	4086.5
352.184	4127
353.425	4137.5
354.665	4163.5
355.905	4130
357.145	4142.5
358.385	4173.5
359.625	4139
360.864	4146
362.104	4147.5
363.342	4138.5
364.581	4123
365.819	4137.5
367.058	4098
368.296	4125.5
369.534	4140
370.771	4158.5
372.01	4139
373.246	4096.5
374.484	4156.5
375.72	4133
376.958	4103.5
378.194	4108
379.431	4094
380.666	4076.5
381.903	4115
383.138	4103
384.374	4114
385.609	4108
386.845	4086.5
388.079	4083
389.313	4088.5
390.548	4119.5
391.782	4069
393.016	4121.5
394.25	4108.5
395.483	4086.5
396.718	4090.5
397.95	4083
399.183	4123.5
400.416	4067.5
401.648	4118
402.88	4103
404.113	4174
405.345	4112.5
406.576	4121.5
407.807	4153.5
409.04	4145.5
410.27	4135.5
411.501	4203.5
412.731	4192.5
413.963	4200.5
415.193	4207
416.422	4213.5
417.652	4219
418.883	4250
420.112	4242
421.341	4246
422.569	4243.5
423.798	4278.5
425.028	4260
426.256	4282.5
427.484	4277.5
428.711	4261
429.939	4275
431.166	4345.5
432.394	4306
433.622	4289
434.849	4280.5
436.075	4308.5
437.302	4327
438.528	4312
439.754	4320
440.98	4305.5
442.205	4341.5
443.431	4314.5
444.656	4319.5
445.881	4320
447.106	4316.5
448.33	4310
449.555	4327.5
450.779	4308
452.003	4279
453.227	4298
454.45	4327
455.674	4316
456.897	4340.5
458.12	4302.5
459.343	4334
460.566	4333.5
461.788	4270
463.01	4333
464.232	4311.5
465.454	4317
466.676	4311.5
467.897	4292
469.119	4317
470.34	4317.5
471.559	4319.5
472.78	4306.5
474.001	4281.5
475.221	4256.5
476.441	4329.5
477.661	4339
478.879	4315.5
480.099	4328
481.318	4350.5
482.537	4334
483.756	4370
484.974	4332
486.192	4325.5
487.411	4343
488.629	4384.5
489.847	4361
491.063	4345
492.281	4398
493.498	4360
494.714	4399
495.931	4423.5
497.148	4402
498.365	4378
499.58	4392.5
500.796	4401
502.012	4431
503.226	4437
504.442	4397
505.657	4428.5
506.871	4415.5
508.086	4393
509.3	4439.5
510.515	4411
511.729	4410.5
512.942	4403.5
514.156	4417
515.369	4395
516.582	4409
517.796	4367.5
519.008	4426.5
520.221	4402
521.433	4409.5
522.645	4384.5
523.857	4416
525.069	4383
526.28	4395.5
527.492	4393.5
528.702	4392
529.914	4393
531.124	4378.5
532.335	4393.5
533.545	4398
534.756	4404.5
535.965	4394.5
537.175	4373
538.384	4346.5
539.593	4361.5
540.803	4384.5
542.011	4370
543.221	4386.5
544.429	4360
545.636	4354.5
546.845	4394
548.052	4382
549.261	4390
550.468	4399.5
551.675	4359
552.883	4323.5
554.089	4353
555.295	4357.5
556.503	4394
557.709	4338.5
558.914	4370.5
560.12	4352.5
561.326	4406
562.531	4395
563.736	4390.5
564.941	4446
566.147	4403.5
567.351	4411
568.555	4407.5
569.759	4346
570.964	4432
572.168	4421
573.371	4413.5
574.574	4377.5
575.777	4425.5
576.981	4403
578.184	4380.5
579.386	4413
580.588	4424
581.79	4401.5
582.992	4411
584.194	4456.5
585.395	4428.5
586.598	4445
587.799	4421.5
589	4446.5
590.201	4472
591.401	4453.5
592.601	4417.5
593.801	4438.5
595.001	4477.5
596.201	4475.5
597.401	4464.5
598.6	4476
599.799	4489.5
600.998	4507
602.197	4495.5
603.395	4462.5
604.594	4474.5
605.792	4464
606.99	4513.5
608.188	4504
609.386	4489.5
610.583	4469
611.78	4538
612.977	4536
614.174	4521
615.371	4544
616.566	4518
617.762	4534
618.958	4550
620.154	4545
621.35	4574.5
622.546	4606.5
623.741	4579
624.935	4549.5
626.13	4620
627.325	4600
628.519	4650.5
629.714	4642
630.908	4659
632.101	4609
633.295	4634.5
634.488	4638.5
635.682	4702
636.874	4674.5
638.067	4702.5
639.26	4672
640.453	4694
641.644	4689
642.836	4678.5
644.028	4683
645.219	4714.5
646.411	4704
647.602	4741.5
648.792	4691
649.984	4702.5
651.175	4705
652.364	4670.5
653.555	4663.5
654.745	4704
655.934	4666
657.124	4678.5
658.314	4664
659.503	4654
660.692	4648.5
661.88	4684
663.07	4678
664.257	4707
665.446	4659
666.635	4674.5
667.822	4645.5
669.01	4627.5
670.197	4668.5
671.384	4613
672.571	4642.5
673.758	4629
674.944	4569
676.131	4614
677.317	4583.5
678.502	4553.5
679.689	4592
680.874	4566
682.06	4571.5
683.245	4613.5
684.431	4579.5
685.615	4589
686.799	4552.5
687.984	4546
689.168	4581.5
690.353	4554
691.536	4591
692.719	4565.5
693.904	4589
695.086	4533
696.269	4559.5
697.453	4558.5
698.635	4571
699.817	4568
701	4540
702.182	4570.5
703.364	4547
704.545	4562
705.727	4534
706.908	4546.5
708.089	4554
709.27	4575
710.451	4517
711.632	4569
712.812	4575.5
713.991	4575.5
715.172	4572
716.352	4543.5
717.531	4560
718.71	4551.5
719.889	4573.5
721.068	4578.5
722.248	4584
723.426	4595
724.604	4572
725.782	4549
726.96	4539.5
728.138	4587.5
729.315	4539
730.492	4565
731.669	4551
732.846	4552.5
734.024	4557
735.201	4586.5
736.377	4576
737.553	4582
738.729	4588
739.905	4582
741.081	4562.5
742.256	4545
743.431	4584.5
744.606	4590.5
745.781	4586.5
746.956	4601
748.13	4570.5
749.303	4592
750.477	4608
751.651	4607
752.825	4564
753.999	4556
755.172	4524
756.345	4578.5
757.518	4587.5
758.691	4523
759.864	4529
761.035	4556
762.207	4569
763.379	4555.5
764.551	4524
765.723	4514
766.894	4547.5
768.064	4591
769.236	4548.5
770.407	4585
771.577	4540
772.748	4561
773.917	4544
775.088	4533.5
776.258	4580.5
777.427	4504.5
778.596	4546
779.765	4542
780.935	4555.5
782.104	4567
783.272	4540.5
784.44	4537
785.609	4537
786.776	4564.5
787.944	4497
789.113	4532.5
790.279	4483.5
791.447	4490
792.613	4549
793.78	4537.5
794.948	4590.5
796.113	4584.5
797.28	4580
798.445	4594.5
799.612	4537.5
800.778	4556.5
801.943	4532
803.109	4578.5
804.273	4557
805.439	4594.5
806.603	4594
807.768	4578
808.932	4591.5
810.096	4609.5
811.26	4592
812.424	4610
813.587	4621.5
814.751	4581.5
815.914	4630.5
817.078	4656
818.24	4611
819.402	4655.5
820.565	4622.5
821.727	4669.5
822.889	4656
824.051	4670
825.212	4636.5
826.374	4640.5
827.535	4663
828.697	4695.5
829.857	4690
831.018	4689.5
832.179	4644.5
833.339	4705.5
834.499	4704
835.659	4689.5
836.819	4662.5
837.978	4721
839.137	4700
840.297	4712
841.456	4713.5
842.614	4722
843.772	4705
844.932	4694.5
846.09	4726
847.247	4711.5
848.405	4784.5
849.562	4740
850.721	4732.5
851.878	4733.5
853.034	4776
854.191	4758.5
855.348	4810
856.504	4742
857.661	4804.5
858.817	4840
859.973	4774.5
861.129	4781
862.284	4786
863.439	4752.5
864.594	4768.5
865.749	4741.5
866.904	4758
868.058	4705.5
869.212	4730.5
870.367	4736.5
871.522	4683
872.676	4668.5
873.829	4677.5
874.983	4723
876.136	4693.5
877.289	4688.5
878.442	4650.5
879.593	4672
880.746	4651
881.898	4642.5
883.05	4654.5
884.202	4655.5
885.354	4627
886.506	4633
887.657	4608
888.808	4625.5
889.96	4593.5
891.11	4579
892.261	4618
893.41	4638
894.561	4568.5
895.711	4558.5
896.861	4568
898.011	4598.5
899.161	4566.5
900.309	4602
901.458	4594
902.607	4594
903.756	4587
904.904	4567.5
906.052	4536
907.201	4521
908.349	4567
909.496	4495.5
910.644	4554.5
911.791	4494.5
912.939	4520
914.085	4571
915.232	4550.5
916.379	4574.5
917.525	4550.5
918.671	4562
919.818	4494
920.963	4530.5
922.109	4553
923.255	4529
924.399	4546
925.545	4495
926.689	4550.5
927.834	4520
928.979	4528
930.123	4567
931.268	4559
932.411	4576.5
933.555	4580
934.698	4571.5
935.842	4567.5
936.985	4585.5
938.128	4571
939.271	4580.5
940.414	4562
941.556	4621
942.699	4572.5
943.84	4609.5
944.983	4561.5
946.124	4573.5
947.266	4607.5
948.407	4577
949.547	4618
950.689	4594
951.829	4574.5
952.971	4599.5
954.111	4600.5
955.25	4597.5
956.391	4637
957.531	4614.5
958.67	4594
959.81	4640.5
960.949	4620.5
962.088	4652.5
963.227	4649.5
964.366	4639
965.504	4656
966.643	4635.5
967.781	4634.5
968.919	4660
970.056	4612.5
971.195	4638.25
972.332	4662.5
973.469	4643
974.605	4662
975.743	4611.5
976.88	4641
978.016	4655
979.152	4621.5
980.288	4663
981.423	4629
982.56	4651.5
983.696	4678
984.831	4619.5
985.966	4665
987.101	4644
988.235	4628
989.37	4613.5
990.504	4621.5
991.638	4668
992.773	4673
993.907	4650
995.041	4668
996.174	4698.5
997.307	4732
998.44	4781
999.573	4800.5
1000.71	4823.5
1001.84	4760.5
1002.97	4723
1004.1	4660.5
1005.24	4699
1006.37	4638
1007.5	4659
1008.63	4610.5
1009.76	4664
1010.89	4632
1012.02	4651.5
1013.15	4650
1014.28	4656.5
1015.41	4666
1016.54	4630.5
1017.67	4621.5
1018.8	4655
1019.93	4673
1021.06	4675.5
1022.19	4626.5
1023.32	4644.5
1024.45	4692.5
1025.58	4705
1026.71	4669.5
1027.84	4655.5
1028.96	4684
1030.09	4703.5
1031.22	4706.5
1032.35	4718
1033.47	4703
1034.6	4699
1035.73	4688
1036.86	4693.5
1037.98	4655.5
1039.11	4717.5
1040.23	4694.5
1041.36	4735
1042.49	4719.5
1043.61	4706.5
1044.74	4749
1045.86	4674
1046.99	4747
1048.11	4756.5
1049.24	4704
1050.36	4726.5
1051.49	4744
1052.61	4701.5
1053.74	4727.5
1054.86	4732.5
1055.98	4734
1057.11	4741.5
1058.23	4775.5
1059.35	4738
1060.48	4757.5
1061.6	4774
1062.72	4735
1063.84	4784.5
1064.97	4772
1066.09	4787.5
1067.21	4739
1068.33	4732.5
1069.45	4717
1070.57	4785.5
1071.7	4763.5
1072.82	4785
1073.94	4805
1075.06	4760.5
1076.18	4747
1077.3	4751
1078.42	4715.5
1079.54	4746.5
1080.66	4742.5
1081.78	4752
1082.9	4717
1084.02	4710.5
1085.14	4744.5
1086.25	4743
1087.37	4720.5
1088.49	4706
1089.61	4719.5
1090.73	4704
1091.84	4759.5
1092.96	4752
1094.08	4722
1095.2	4711.5
1096.31	4700
1097.43	4682.5
1098.55	4698
1099.66	4721.5
1100.78	4754
1101.9	4678
1103.01	4709.5
1104.13	4676
1105.25	4714
1106.36	4730.5
1107.48	4711.5
1108.59	4690
1109.71	4747.5
1110.82	4728
1111.93	4747.5
1113.05	4714.5
1114.16	4736.5
1115.28	4762
1116.39	4717.5
1117.51	4716
1118.62	4768
1119.73	4710
1120.85	4737
1121.96	4746.5
1123.07	4780.5
1124.18	4746.5
1125.3	4791
1126.41	4758.5
1127.52	4771.5
1128.63	4781.5
1129.74	4795.5
1130.85	4822.5
1131.97	4778.5
1133.08	4780.5
1134.19	4798.5
1135.3	4845.5
1136.41	4846.5
1137.52	4821.5
1138.63	4844
1139.74	4870.5
1140.85	4844
1141.96	4906.5
1143.07	4899.5
1144.18	4851
1145.29	4912.5
1146.4	4897
1147.51	4912
1148.61	4964.5
1149.72	4965.5
1150.83	4985
1151.94	5015.5
1153.05	5035.5
1154.15	5047
1155.26	5048
1156.37	5098.5
1157.48	5056.5
1158.58	5132.5
1159.69	5116.5
1160.8	5163
1161.9	5147
1163.01	5175.5
1164.11	5192
1165.22	5202.5
1166.33	5194.5
1167.43	5197.5
1168.54	5231
1169.64	5222
1170.75	5242
1171.85	5219
1172.96	5223
1174.06	5226.5
1175.17	5259.5
1176.27	5209.5
1177.37	5201.5
1178.48	5163
1179.58	5152
1180.68	5162
1181.79	5181
1182.89	5155.5
1183.99	5132
1185.1	5108.5
1186.2	5147.5
1187.3	5083
1188.4	5124
1189.5	5119.5
1190.61	5167.5
1191.71	5096
1192.81	5114
1193.91	5106.5
1195.01	5099.5
1196.11	5128.66
1197.21	5126.15
1198.31	5150.5
1199.42	5138.88
1200.51	5166.16
1201.61	5103.44
1202.72	5115.48
1203.81	5159.23
1204.91	5156.27
1206.01	5159.29
1207.11	5147.49
1208.21	5130.98
1209.31	5173.65
1210.41	5162.33
1211.51	5174.19
1212.61	5148.14
1213.7	5200.92
1214.8	5154.19
1215.9	5209.84
1217	5188.31
1218.09	5210.78
1219.19	5205.83
1220.29	5170.54
1221.38	5150.97
1222.48	5216.72
1223.58	5204.88
1224.67	5242.39
1225.77	5224.51
1226.87	5214.2
1227.96	5280.28
1229.06	5228.85
1230.15	5211.81
1231.25	5268.58
1232.34	5286.61
1233.44	5283.16
1234.53	5284.3
1235.63	5295.07
1236.72	5309.88
1237.81	5379.65
1238.91	5317.12
1240	5301.6
1241.1	5347.47
1242.19	5345.25
1243.28	5343.86
1244.38	5358.69
1245.47	5378.84
1246.56	5385.22
1247.65	5380.44
1248.75	5427.47
1249.84	5449.09
1250.93	5428.4
1252.02	5425.74
1253.11	5421.39
1254.21	5487.35
1255.3	5505.26
1256.39	5477.01
1257.48	5509.42
1258.57	5482.48
1259.66	5538.77
1260.75	5512.56
1261.84	5552.39
1262.93	5582.84
1264.02	5590.66
1265.11	5564.63
1266.2	5578.82
1267.29	5585.7
1268.38	5621.9
1269.47	5616.99
1270.56	5635.51
1271.65	5650.42
1272.73	5651.06
1273.82	5641.18
1274.91	5657.07
1276	5674.1
1277.09	5720.44
1278.17	5727.24
1279.26	5700.44
1280.35	5738.8
1281.43	5742.03
1282.52	5710.24
1283.61	5756.05
1284.69	5770.81
1285.78	5767.24
1286.87	5769.17
1287.95	5803.56
1289.04	5816.3
1290.13	5828.91
1291.21	5816.84
1292.3	5868.84
1293.38	5878.87
1294.47	5831.34
1295.55	5870.52
1296.64	5857.61
1297.72	5900.2
1298.8	5890.72
1299.89	5875.77
1300.97	5923.83
1302.06	5907.37
1303.14	5921.47
1304.22	5930.8
1305.31	5973.15
1306.39	5916.02
1307.34	5916
1308.43	5974.5
1309.52	5904
1310.6	5932.5
1311.69	5927.5
1312.78	5929
1313.87	5949
1314.96	5895.5
1316.04	5929.5
1317.13	5854
1318.21	5908
1319.3	5875
1320.39	5819
1321.47	5874.5
1322.56	5903.5
1323.65	5861
1324.73	5897
1325.82	5846
1326.9	5776.5
1327.99	5858
1329.07	5837.5
1330.16	5805
1331.24	5859
1332.32	5806
1333.41	5806
1334.49	5818.5
1335.58	5836
1336.66	5793
1337.74	5810
1338.83	5800
1339.91	5794
1340.99	5723
1342.08	5830
1343.16	5740
1344.24	5738
1345.32	5756
1346.41	5776
1347.49	5739
1348.57	5706.5
1349.65	5676
1350.73	5753
1351.81	5624
1352.9	5717
1353.98	5702.5
1355.06	5809
1356.14	5782
1357.22	5688
1358.3	5727.5
1359.38	5682
1360.46	5760
1361.54	5762.5
1362.62	5754.5
1363.7	5710.5
1364.78	5740
1365.85	5794
1366.93	5767.5
1368.01	5765.5
1369.09	5764.5
1370.17	5706
1371.25	5699
1372.33	5711
1373.4	5707.5
1374.48	5714.5
1375.56	5749.5
1376.64	5726
1377.71	5718
1378.79	5676
1379.87	5746
1380.94	5706.5
1382.02	5669.5
1383.1	5685
1384.17	5685
1385.25	5721.5
1386.32	5704.5
1387.4	5649
1388.47	5654
1389.55	5642.5
1390.63	5663
1391.7	5653.5
1392.77	5676.5
1393.85	5661
1394.92	5651.5
1396	5619.5
1397.07	5692
1398.15	5659
1399.22	5621.5
1400.29	5615
1401.37	5670.5
1402.44	5623.5
1403.51	5664.5
1404.59	5603
1405.66	5637
1406.73	5695.5
1407.8	5666.5
1408.87	5672
1409.95	5665
1411.02	5673
1412.09	5669.5
1413.16	5645.5
1414.23	5606
1415.3	5624
1416.38	5606
1417.45	5639
1418.52	5693.5
1419.59	5598.5
1420.66	5678.5
1421.73	5628.5
1422.8	5644
1423.87	5685
1424.94	5635
1426.01	5702.5
1427.08	5673.5
1428.15	5688
1429.21	5697
1430.28	5716
1431.35	5653
1432.42	5711
1433.49	5692.5
1434.56	5681
1435.63	5736.5
1436.69	5717.5
1437.76	5713.5
1438.83	5698.5
1439.89	5727.5
1440.96	5752
1442.03	5793.5
1443.1	5801
1444.16	5803.5
1445.23	5794.5
1446.3	5788
1447.36	5776
1448.43	5809
1449.49	5845
1450.56	5811.5
1451.62	5822
1452.69	5776
1453.75	5796.5
1454.82	5823.5
1455.88	5778
1456.95	5782.5
1458.01	5868.5
1459.08	5812
1460.14	5809
1461.2	5845
1462.27	5857
1463.33	5858.5
1464.4	5867.5
1465.46	5807.5
1466.52	5902.5
1467.58	5764.5
1468.65	5908.5
1469.71	5849.5
1470.77	5828
1471.83	5826
1472.9	5898.5
1473.96	5870
1475.02	5907
1476.08	5902.5
1477.14	5875.5
1478.2	5910.5
1479.27	5942.5
1480.33	5922.5
1481.39	5908
1482.45	5968.5
1483.51	5974
1484.57	5921
1485.63	5943.5
1486.69	5981
1487.75	5989
1488.81	5955.5
1489.87	5947
1490.93	6024.5
1491.99	5937
1493.04	5980.5
1494.1	5970.5
1495.16	5989
1496.22	5939
1497.28	5976
1498.34	6022.5
1499.39	6033
1500.45	6030.5
1501.51	6009.5
1502.57	6091
1503.62	6046.5
1504.68	6084.5
1505.74	6037
1506.79	6095.5
1507.85	6080
1508.91	6041
1509.96	6040.5
1511.02	6089
1512.07	6113
1513.13	6064.5
1514.19	6099
1515.24	6102.5
1516.3	6146.5
1517.35	6127
1518.41	6007
1519.46	6073
1520.52	6121.5
1521.57	6114.5
1522.62	6041
1523.68	6165.5
1524.73	6244
1525.79	6104.5
1526.84	6131
1527.89	6163
1528.95	6194
1530	6162
1531.05	6136.5
1532.1	6131.5
1533.16	6158.5
1534.21	6204
1535.26	6168.5
1536.31	6164
1537.37	6152
1538.42	6184.5
1539.47	6147
1540.52	6153.5
1541.57	6087
1542.62	6177
1543.67	6143
1544.72	6118
1545.78	6154.5
1546.83	6071
1547.88	6135
1548.93	6131.5
1549.98	6150.5
1551.03	6139
1552.07	6096.5
1553.12	6104.5
1554.17	6113.5
1555.22	6175
1556.27	6154
1557.32	6141
1558.37	6092
1559.42	6156.5
1560.47	6132.5
1561.51	6078
1562.56	6102
1563.61	6160
1564.66	6158.5
1565.7	6154.5
1566.75	6096.5
1567.8	6187.5
1568.85	6174
1569.89	6124
1570.94	6129
1571.98	6106
1573.03	6097.5
1574.08	6088
1575.12	6080.5
1576.17	6064
1577.21	6110.5
1578.26	6067.5
1579.31	6095
1580.35	6062.5
1581.4	6056
1582.44	6140
1583.49	6066.5
1584.53	6036
1585.57	6090
1586.62	6060
1587.66	6011
1588.71	6049
1589.75	6049
1590.79	6028.5
1591.84	6023.5
1592.88	6001.5
1593.92	6036.5
1594.97	6048
1596.01	6025.5
1597.05	5966
1598.09	6020.5
1599.14	6005
1600.18	5982.5
1601.22	5908
1602.26	5908.5
1603.3	5908.5
1604.34	5821
1605.38	5796
1606.43	5783.5
1607.47	5693
1608.51	5718.5
1609.55	5611
1610.59	5567.5
1611.63	5554
1612.67	5516
1613.71	5455
1614.75	5408.5
1615.79	5381.5
1616.83	5382
1617.87	5319.5
1618.91	5307.5
1619.94	5216
1620.98	5226.5
1622.02	5133
1623.06	5079.5
1624.1	5048.5
1625.14	5044.5
1626.17	5033.5
1627.21	4958
1628.25	4911.5
1629.29	4894.5
1630.32	4828.5
1631.36	4812
1632.4	4788
1633.43	4734.5
1634.47	4707.5
1635.51	4626
1636.54	4655
1637.58	4605
1638.62	4592.5
1639.65	4525
1640.69	4529
1641.72	4434
1642.76	4503.5
1643.79	4392
1644.83	4387
1645.86	4318
1646.9	4312.5
1647.93	4306
1648.97	4247.5
1650	4231
1651.04	4218
1652.07	4141
1653.1	4123.5
1654.14	4093
1655.17	4105
1656.2	4021
1657.24	3987.5
1658.27	3988.5
1659.3	3947
1660.34	3919
1661.37	3905
1662.4	3882.5
1663.43	3844.5
1664.46	3843.5
1665.5	3791
1666.53	3796.5
1667.56	3753.5
1668.59	3746.5
1669.62	3745.5
1670.65	3721
1671.68	3728
1672.71	3678.5
1673.74	3677.5
1674.77	3653.5
1675.8	3676.5
1676.83	3673
1677.86	3623
1678.89	3617
1679.92	3603
1680.95	3554
1681.98	3586
1683.01	3556
1684.04	3509
1685.07	3481
1686.1	3500
1687.13	3513.5
1688.15	3445
1689.18	3475.5
1690.21	3438.5
1691.24	3474
1692.27	3435.5
1693.29	3397.5
1694.32	3410
1695.35	3433
1696.37	3401.5
1697.4	3370
1698.43	3356.5
1699.45	3350
1700.48	3388
1701.51	3361.5
1702.53	3347
1703.56	3312
1704.58	3344
1705.61	3328.5
1706.64	3327
1707.66	3298
1708.69	3313
1709.71	3302
1710.73	3276.5
1711.76	3269
1712.78	3270
1713.81	3237
1714.83	3237
1715.86	3232
1716.88	3239
1717.9	3293
1718.93	3251
1719.95	3209.5
1720.97	3235.5
1722	3212.5
1723.02	3196.5
1724.04	3165
1725.06	3210.5
1726.09	3211.5
1727.11	3176.5
1728.13	3173
1729.15	3198.5
1730.17	3173
1731.2	3129.5
1732.22	3111.5
1733.24	3130
1734.26	3146
1735.28	3108
1736.3	3095.5
1737.32	3110
1738.34	3056.5
1739.36	3103.5
1740.38	3104.5
1741.4	3073
1742.42	3052
1743.44	3056.5
1744.46	3079.5
1745.48	3071
1746.5	3062
1747.52	3016.5
1748.54	3032
1749.56	3028.5
1750.57	3004
1751.59	2999
1752.61	2997
1753.63	3026
1754.65	2994
1755.66	2978.5
1756.68	2947
1757.7	3017.5
1758.72	2969.5
1759.73	2955.5
1760.75	2972.5
1761.77	2977
1762.78	2958.5
1763.8	2921.5
1764.82	2915
1765.83	2915.5
1766.85	2906
1767.86	2881.5
1768.88	2905.5
1769.9	2892.5
1770.91	2893.5
1771.93	2856
1772.94	2867.5
1773.96	2856
1774.97	2873.5
1775.99	2921.5
1777	2882
1778.01	2838.5
1779.03	2844.5
1780.04	2829.5
1781.06	2825
1782.07	2834
1783.08	2818.5
1784.1	2818.5
1785.11	2853.5
1786.12	2839
1787.14	2774.5
1788.15	2797
1789.16	2815.5
1790.17	2834.5
1791.18	2818.5
1792.2	2795
1793.21	2773
1794.22	2765.5
1795.23	2750
1796.24	2751
1797.26	2777.5
1798.27	2730.5
1799.28	2738.5
1800.29	2726.5
1801.3	2710.5
1802.31	2723
1803.32	2748
1804.33	2725.5
1805.34	2749.5
1806.35	2730
1807.36	2697.5
1808.37	2700
1809.38	2681.5
1810.39	2681
1811.4	2662.5
1812.4	2674.5
1813.41	2639.5
1814.42	2687.5
1815.43	2630.5
1816.44	2671.5
1817.45	2654
1818.45	2648.5
1819.46	2652
1820.47	2645
1821.48	2620
1822.49	2617
1823.49	2629
1824.5	2641
1825.51	2636.5
1826.51	2596.5
1827.52	2593.5
1828.53	2635
1829.53	2611.5
1830.54	2602
1831.54	2564.5
1832.55	2579
1833.56	2553
1834.56	2564
1835.57	2580.5
1836.57	2572.5
1837.58	2536
1838.58	2511
1839.59	2544
1840.59	2515.5
1841.59	2544.5
1842.6	2552
1843.6	2539
1844.61	2504
1845.61	2492
1846.61	2501
1847.62	2543.5
1848.62	2490
1849.62	2494
1850.63	2500.5
1851.63	2483.5
1852.63	2502
1853.64	2513
1854.64	2490.5
1855.64	2455
1856.64	2440
1857.64	2467
1858.65	2443
1859.65	2458.5
1860.65	2433.5
1861.65	2444.5
1862.65	2442
1863.65	2422
1864.65	2469
1865.65	2418
1866.65	2420
1867.65	2398.5
1868.65	2415
1869.65	2417.5
1870.65	2425
1871.65	2421.5
1872.65	2433.5
1873.65	2401
1874.65	2393.5
1875.65	2380.5
1876.65	2386.5
1877.65	2359.5
1878.65	2382.5
1879.65	2350.5
1880.65	2341
1881.64	2355
1882.64	2359.5
1883.64	2370
1884.64	2324
1885.63	2347
1886.63	2361
1887.63	2354
1888.63	2338
1889.62	2369
1890.62	2335
1891.62	2339.5
1892.61	2332.5
1893.61	2337
1894.61	2320
1895.6	2341.5
1896.6	2326.5
1897.59	2312.5
1898.59	2299
1899.58	2319.5
1900.58	2298.5
1901.57	2323
1902.57	2324
1903.56	2330.5
1904.56	2315.5
1905.55	2321.5
1906.55	2303
1907.54	2317.5
1908.54	2297
1909.53	2301.5
1910.52	2286
1911.52	2320.5
1912.51	2305.5
1913.5	2271
1914.5	2293.5
1915.49	2275.5
1916.48	2279.5
1917.48	2250
1918.47	2295.5
1919.46	2276.5
1920.45	2240
1921.44	2252.5
1922.44	2261
1923.43	2244.5
1924.42	2254
1925.41	2240.5
1926.4	2268
1927.39	2237.5
1928.38	2238.5
1929.38	2255.5
1930.37	2226.5
1931.36	2232.5
1932.35	2244
1933.34	2204
1934.33	2192
1935.32	2213.5
1936.31	2222
1937.3	2189.5
1938.29	2189.5
1939.28	2202
1940.26	2185
1941.25	2210
1942.24	2181
1943.23	2193
1944.22	2198
1945.21	2182.5
1946.2	2178.5
1947.18	2201
1948.17	2177
1949.16	2172
1950.15	2166.25
1951.13	2160.5
1952.12	2163.5
1953.11	2170
1954.1	2168
1955.08	2170
1956.07	2139
1957.06	2160
1958.04	2119.5
1959.03	2139.5
1960.01	2136.5
1961	2157
1961.99	2125
1962.97	2137.5
1963.96	2151
1964.94	2107
1965.93	2099.5
1966.91	2127.5
1967.9	2117.5
1968.88	2119.5
1969.87	2126
1970.85	2092.5
1971.84	2094
1972.82	2093
1973.81	2084.5
1974.79	2096.5
1975.77	2084
1976.76	2096
1977.74	2094.5
1978.72	2057.5
1979.71	2093.5
1980.69	2079
1981.67	2060.5
1982.65	2072
1983.64	2077.5
1984.62	2069.5
1985.6	2059.5
1986.58	2056.5
1987.56	2071.5
1988.55	2053.5
1989.53	2074.5
1990.51	2053
1991.49	2031.5
1992.47	2051.5
1993.45	2038
1994.43	2019.5
1995.41	2045.5
1996.39	2020.5
1997.37	2004.5
1998.36	2012
1999.34	2043.5
2000.31	2024.5
2001.29	2019.5
2002.27	2002
2003.25	2001
2004.23	2032.5
2005.21	2020
2006.19	2011
2007.17	1988.5
2008.15	1969
2009.13	1969.5
2010.11	1981
2011.08	1997
2012.06	1966
2013.04	1969
2014.02	1989.5
2015	2000
2015.97	1978.5
2016.95	1954.5
2017.93	1988
2018.91	1963
2019.88	1945.5
2020.86	1961.5
2021.83	1953
2022.81	1936.5
2023.79	1932
2024.76	1976
2025.74	1960.5
2026.72	1948
2027.69	1935
2028.67	1942.5
2029.64	1937.5
2030.62	1949.5
2031.59	1952.5
2032.57	1942.5
2033.54	1905.5
2034.52	1966.5
2035.49	1911.5
2036.47	1914.5
2037.44	1901.5
2038.41	1911
2039.39	1892.5
2040.36	1903.5
2041.34	1936.5
2042.31	1913
2043.28	1913.5
2044.26	1912
2045.23	1877
2046.2	1919.5
2047.17	1890.5
2048.15	1906
2049.12	1898.5
2050.09	1881.5
2051.06	1894
2052.04	1885.5
2053.01	1862
2053.98	1868
2054.95	1884.5
2055.92	1911
2056.89	1856.5
2057.86	1870
2058.84	1865.5
2059.81	1867
2060.78	1857
2061.75	1852.5
2062.72	1864
2063.69	1853
2064.66	1845.5
2065.63	1860
2066.6	1852
2067.57	1823.5
2068.54	1825
2069.51	1817
2070.48	1832
2071.44	1823
2072.41	1814.5
2073.38	1810.5
2074.35	1808
2075.32	1830
2076.29	1819.5
2077.26	1798.5
2078.22	1808
2079.19	1796
2080.16	1784.5
2081.13	1795.5
2082.09	1797.5
2083.06	1822.5
2084.03	1788.5
2085	1808.5
2085.96	1798.5
2086.93	1799.5
2087.9	1799.5
2088.86	1807.5
2089.83	1786
2090.79	1770.5
2091.76	1808.5
2092.73	1781.5
2093.69	1771
2094.66	1769.5
2095.62	1775.5
2096.59	1780.5
2097.55	1823
2098.52	1792.5
2099.48	1791
2100.45	1781
2101.41	1762.5
2102.38	1771.5
2103.34	1774.5
2104.3	1763.5
2105.27	1768
2106.23	1785.5
2107.19	1784
2108.16	1780.5
2109.12	1770.5
2110.08	1774
2111.05	1755
2112.01	1783
2112.97	1785.5
2113.94	1789
2114.9	1793.5
2115.86	1791
2116.82	1819.5
2117.78	1795.5
2118.75	1810
2119.71	1844.5
2120.67	1819
2121.63	1800.5
2122.59	1845
2123.55	1829.5
2124.51	1856.5
2125.47	1862
2126.43	1866
2127.4	1843
2128.36	1861
2129.32	1865
2130.28	1878
2131.24	1859
2132.2	1874.5
2133.16	1858
2134.11	1872.5
2135.07	1870.5
2136.03	1847.5
2136.99	1862.5
2137.95	1829
2138.91	1849.5
2139.87	1869
2140.83	1895
2141.78	1869.5
2142.74	1856
2143.7	1842
2144.66	1849.5
2145.62	1859.82
2146.57	1841.46
2147.53	1853.73
2148.49	1845.65
2149.45	1837.38
2150.4	1843.71
2151.36	1814.48
2152.32	1823.51
2153.27	1780.99
2154.23	1804.35
2155.19	1791.04
2156.14	1778.49
2157.1	1771.99
2158.05	1795.57
2159.01	1776.89
2159.96	1744.26
2160.92	1739.19
2161.88	1746.53
2162.83	1742.35
2163.78	1714.3
2164.74	1733.51
2165.69	1715.44
2166.65	1699.75
2167.6	1690.79
2168.56	1683.9
2169.51	1662.63
2170.47	1678.5
2171.42	1672.04
2172.37	1640.01
2173.33	1636.29
2174.28	1639.93
2175.23	1632.36
2176.19	1634.86
2177.14	1588.68
2178.09	1621.39
2179.04	1589.92
2180	1590.27
2180.95	1574.8
2181.9	1563.93
2182.85	1547.88
2183.81	1552.17
2184.76	1537.18
2185.71	1538.07
2186.66	1529.73
2187.61	1532.71
2188.56	1514.74
2189.51	1527.23
2190.46	1510.58
2191.42	1499.47
2192.37	1500.56
2193.32	1478.4
2194.27	1481.07
2195.22	1492.86
2196.17	1489.86
2197.12	1500.17
2198.07	1474.83
2199.02	1490.04
2199.97	1470.62
2200.92	1467.07
2201.86	1471.85
2202.81	1455.75
2203.76	1445.51
2204.71	1442.99
2205.66	1468.93
2206.61	1454.65
2207.56	1452.13
2208.5	1445.26
2209.45	1451.65
2210.4	1429.38
2211.35	1429.12
2212.3	1422.22
2213.24	1443.79
2214.19	1446.32
2215.14	1428.47
2216.08	1428.73
2217.03	1432.77
2217.98	1420.58
2218.92	1424.42
2219.87	1421.37
2220.82	1422.26
2221.76	1407.77
2222.71	1400.38
2223.65	1411.13
2224.6	1426.08
2225.55	1425.53
2226.49	1410.57
2227.44	1401.99
2228.38	1407.45
2229.33	1421.32
2230.27	1391.12
2231.22	1392.76
2232.16	1405.46
2233.11	1402.62
2234.05	1395.38
2234.99	1390.27
2235.94	1400.39
2236.88	1401.36
2237.83	1392.47
2238.77	1381.24
2239.71	1379.23
2240.66	1390.13
2241.6	1392.59
2242.06	1386
2243.01	1417
2243.96	1417.5
2244.91	1397
2245.85	1405.5
2246.8	1381.5
2247.75	1388
2248.7	1410
2249.64	1377
2250.59	1397
2251.54	1378
2252.48	1347
2253.43	1351
2254.38	1355.5
2255.32	1341.5
2256.27	1344.5
2257.21	1320.5
2258.16	1333
2259.1	1323
2260.05	1318.5
2260.99	1328.5
2261.94	1283
2262.89	1301
2263.83	1277.5
2264.77	1288
2265.72	1283.5
2266.66	1300
2267.61	1306
2268.55	1291
2269.5	1295
2270.44	1295
2271.38	1280.5
2272.33	1259
2273.27	1290.5
2274.21	1252
2275.16	1268
2276.1	1263
2277.04	1289
2277.98	1285
2278.93	1271
2279.87	1240
2280.81	1227
2281.75	1248
2282.7	1274
2283.64	1261.5
2284.58	1267.5
2285.52	1247
2286.46	1248
2287.4	1256.5
2288.34	1263
2289.29	1239
2290.23	1227
2291.17	1269.5
2292.11	1239.5
2293.05	1241
2293.99	1241
2294.93	1249
2295.87	1236
2296.81	1209.5
2297.75	1227.5
2298.69	1203
2299.63	1226.5
2300.57	1205.5
2301.51	1228.5
2302.44	1235.5
2303.38	1238
2304.32	1207
2305.26	1222
2306.2	1230
2307.14	1213.5
2308.08	1216.5
2309.01	1223
2309.95	1196
2310.89	1189
2311.83	1208.5
2312.77	1188
2313.7	1213.5
2314.64	1185
2315.58	1167
2316.51	1195
2317.45	1179
2318.39	1179
2319.32	1171
2320.26	1188.5
2321.2	1174
2322.13	1195.5
2323.07	1178
2324	1179.5
2324.94	1190
2325.88	1214
2326.81	1168
2327.75	1173
2328.68	1179
2329.62	1167
2330.55	1158
2331.49	1161
2332.42	1164
2333.35	1165
2334.29	1166
2335.22	1149
2336.16	1160
2337.09	1162.5
2338.02	1147
2338.96	1139.5
2339.89	1159
2340.82	1142
2341.76	1136
2342.69	1137.5
2343.62	1153.5
2344.56	1156
2345.49	1127
2346.42	1137
2347.35	1161
2348.29	1131
2349.22	1142
2350.15	1156.5
2351.08	1138
2352.01	1160
2352.94	1111
2353.88	1151
2354.81	1124
2355.74	1104
2356.67	1130.5
2357.6	1150.5
2358.53	1128
2359.46	1140
2360.39	1150
2361.32	1123
2362.25	1108
2363.18	1107
2364.11	1128
2365.04	1131
2365.97	1108
2366.9	1120
2367.83	1108
2368.76	1126
2369.69	1099
2370.62	1115
2371.55	1110.5
2372.47	1118
2373.4	1080.5
2374.33	1075
2375.26	1111.5
2376.19	1093
2377.11	1086
2378.04	1121
2378.97	1107
2379.9	1117
2380.83	1085
2381.75	1092
2382.68	1119
2383.61	1089
2384.53	1078
2385.46	1092
2386.39	1079.5
2387.31	1077
2388.24	1072.5
2389.17	1056
2390.09	1101
2391.02	1101
2391.94	1066
2392.87	1098.5
2393.79	1067
2394.72	1063
2395.64	1092
2396.57	1098
2397.49	1055
2398.42	1060
2399.34	1076
2400.27	1071.5
2401.19	1068.5
2402.12	1069
2403.04	1076.5
2403.96	1047
2404.89	1056.5
2405.81	1039
2406.74	1059
2407.66	1039.5
2408.58	1059
2409.51	1041.5
2410.43	1060
2411.35	1061
2412.27	1039
2413.2	1028
2414.12	1036.5
2415.04	1076.5
2415.96	1041.5
2416.89	1043
2417.81	1044
2418.73	1057.5
2419.65	1017
2420.57	1026
2421.49	1034
2422.41	1016
2423.34	1020
2424.26	997.5
2425.18	1020
2426.1	1027
2427.02	1019
2427.94	1020
2428.86	1032.5
2429.78	1043
2430.7	1014.5
2431.62	1007
2432.54	1009.5
2433.46	1015
2434.38	1011
2435.3	996
2436.22	1019.5
2437.13	997
2438.05	1014
2438.97	1007
2439.89	1009.5
2440.81	1011
2441.73	1003
2442.65	1006
2443.56	1007.5
2444.48	998.5
2445.4	985.5
2446.32	1010
2447.24	997.5
2448.15	981.5
2449.07	993.5
2449.99	1000
2450.9	1010.5
2451.82	988.5
2452.74	998
2453.65	989.5
2454.57	989.5
2455.49	970
2456.4	978
2457.32	964
2458.23	989
2459.15	995
2460.07	964
2460.98	995
2461.9	978
2462.81	983
2463.73	980.5
2464.64	966.5
2465.56	980.5
2466.47	974
2467.39	971.5
2468.3	965.5
2469.21	987
2470.13	958.5
2471.04	948
2471.96	959
2472.87	956
2473.78	949
2474.7	978
2475.61	945
2476.52	966
2477.44	952
2478.35	963
2479.26	972
2480.17	955.5
2481.09	935
2482	969.5
2482.91	967
2483.82	958
2484.74	952.5
2485.65	963
2486.56	927
2487.47	947
2488.38	945
2489.29	897
2490.21	945
2491.12	940.5
2492.03	948
2492.94	942
2493.85	935
2494.76	926.5
2495.67	953
2496.58	932.5
2497.49	931.5
2498.4	933.5
2499.31	926.5
2500.22	928
2501.13	933.5
2502.04	929.5
2502.95	924
2503.86	915
2504.76	937
2505.67	914
2506.58	912
2507.49	916.5
2508.4	916
2509.31	937
2510.22	890
2511.12	920
2512.03	922.5
2512.94	916.5
2513.85	890
2514.76	906.5
2515.66	904
2516.57	907
2517.48	916
2518.38	898.5
2519.29	875
2520.2	907
2521.1	893
2522.01	910
2522.92	893
2523.82	870
2524.73	893.5
2525.64	872
2526.54	884
2527.45	875
2528.35	900
2529.26	878
2530.16	895.5
2531.07	880.5
2531.97	878.5
2532.88	867
2533.78	898
2534.69	876
2535.59	894
2536.5	864.5
2537.4	876.5
2538.31	872
2539.21	864
2540.11	877
2541.02	858
2541.92	869.5
2542.82	877
2543.73	885
2544.63	846
2545.53	871
2546.44	865
2547.34	858
2548.24	848
2549.14	878
2550.05	854.5
2550.95	862
2551.85	852
2552.75	856
2553.65	862
2554.56	859
2555.46	844.5
2556.36	853
2557.26	854
2558.16	833
2559.06	840.5
2559.96	856
2560.86	831
2561.76	842
2562.67	854.5
2563.57	825
2564.47	852
2565.37	831.5
2566.27	846
2567.17	824
2568.06	837
2568.96	826.5
2569.86	819
2570.76	813
2571.66	829
2572.56	818
2573.46	825
2574.36	834.5
2575.26	833
2576.16	839
2577.05	833.5
2577.95	828.5
2578.85	809
2579.75	817.5
2580.65	831
2581.54	816
2582.44	802.5
2583.34	828
2584.24	808.5
2585.13	799
2586.03	806
2586.93	808
2587.83	807
2588.72	813.5
2589.62	819.5
2590.51	825.5
2591.41	800
2592.31	801
2593.2	794
2594.1	806.5
2594.99	808
2595.89	795
2596.79	795.5
2597.68	803
2598.58	795
2599.47	798
2600.37	795
2601.26	800
2602.16	796.5
2603.05	775
2603.94	814
2604.84	798
2605.73	796
2606.63	797
2607.52	766.5
2608.42	787
2609.31	773
2610.2	794.5
2611.1	785
2611.99	790.5
2612.88	778.5
2613.78	778.5
2614.67	781
2615.56	778
2616.45	751
2617.35	782
2618.24	774.5
2619.13	776
2620.02	760
2620.91	775
2621.81	785
2622.7	778.5
2623.59	760
2624.48	768.5
2625.37	774
2626.26	752
2627.15	780
2628.04	752.5
2628.94	754
2629.83	755
2630.72	748
2631.61	757
2632.5	765
2633.39	749
2634.28	758
2635.17	740.5
2636.06	741
2636.95	744
2637.84	749
2638.73	753
2639.61	740
2640.5	734.5
2641.39	732.5
2642.28	736.5
2643.17	743.5
2644.06	732
2644.95	738
2645.84	725
2646.72	733
2647.61	723.5
2648.5	711
2649.39	729
2650.28	738.5
2651.16	727
2652.05	738
2652.94	733.5
2653.82	744
2654.71	718.5
2655.6	731
2656.49	717
2657.37	723
2658.26	723
2659.14	731
2660.03	735
2660.92	723.5
2661.8	737
2662.69	716
2663.57	706
2664.46	729
2665.35	740.5
2666.23	725.5
2667.12	692.5
2668	701
2668.89	708
2669.77	702.5
2670.66	698
2671.54	719
2672.42	722
2673.31	722.5
2674.19	710
2675.08	699
2675.96	725
2676.84	701.5
2677.73	716.5
2678.61	706
2679.49	712.5
2680.38	708.5
2681.26	695.5
2682.14	691
2683.03	703
2683.91	705
2684.79	710
2685.68	692
2686.56	705.5
2687.44	698
2688.32	702
2689.2	699
2690.09	691
2690.97	674
2691.85	690
2692.73	706.5
2693.61	693
2694.49	702
2695.37	703.5
2696.25	688
2697.14	693
2698.02	671
2698.9	675
2699.78	686.5
2700.66	660.5
2701.54	674
2702.42	675.5
2703.3	690
2704.18	672.5
2705.06	667
2705.94	658.5
2706.82	673.5
2707.7	668.5
2708.57	682.5
2709.45	677
2710.33	667
2711.21	674
2712.09	658
2712.97	670
2713.85	668.5
2714.72	638
2715.6	648
2716.48	658
2717.36	666
2718.24	686.5
2719.11	675
2719.99	648
2720.87	661
2721.75	668.5
2722.62	653
2723.5	664
2724.38	664.5
2725.25	667.5
2726.13	661
2727.01	665.5
2727.88	657
2728.76	654
2729.63	635
2730.51	633
2731.39	647
2732.26	649
2733.14	654
2734.01	650.5
2734.89	638
2735.76	633
2736.64	649
2737.51	653
2738.39	641.5
2739.26	641.5
2740.14	648.5
2741.01	640
2741.89	643.5
2742.76	646.5
2743.63	638.5
2744.51	658
2745.38	632.5
2746.26	617.5
2747.13	642.5
2748	621
2748.88	634.5
2749.75	631.5
2750.62	635
2751.5	641.5
2752.37	624
2753.24	638
2754.11	634
2754.99	631
2755.86	626
2756.73	632
2757.6	625
2758.47	625
2759.35	630
2760.22	620
2761.09	626.5
2761.96	629.5
2762.83	610
2763.7	611
2764.57	607
2765.44	609.5
2766.32	622
2767.19	609
2768.06	618.5
2768.93	602
2769.8	609
2770.67	612
2771.54	602.5
2772.41	588.5
2773.28	599
2774.15	585
2775.02	607
2775.89	593
2776.75	595
2777.62	599
2778.49	613.5
2779.36	596
2780.23	595
2781.1	594.5
2781.97	605.5
2782.84	592
2783.7	592
2784.57	600
2785.44	595.5
2786.31	574
2787.18	580.5
2788.04	600
2788.91	587
2789.78	592
2790.64	580
2791.51	585.5
2792.38	575.5
2793.24	592
2794.11	583.5
2794.98	589
2795.85	565.5
2796.71	578.5
2797.58	588
2798.44	572
2799.31	579.5
2800.18	563.5
2801.04	575.5
2801.91	590.5
2802.77	589.5
2803.64	587
2804.5	582.5
2805.37	572
2806.23	584
2807.1	582
2807.96	584
2808.83	559
2809.69	581.5
2810.55	560.5
2811.42	582
2812.28	569.5
2813.15	574
2814.01	576.5
2814.88	558
2815.74	564.5
2816.6	563.5
2817.46	572
2818.33	572
2819.19	553.5
2820.05	559
2820.92	560
2821.78	571.5
2822.64	554
2823.51	555
2824.37	561.5
2825.23	568
2826.09	556
2826.95	545
2827.81	549
2828.68	560
2829.54	552
2830.4	559.5
2831.26	557.5
2832.12	559.5
2832.98	558.5
2833.84	551.5
2834.71	546
2835.57	552
2836.43	554
2837.29	552
2838.15	553.5
2839.01	556.5
2839.87	541.5
2840.73	541.5
2841.59	557
2842.45	538.5
2843.31	541
2844.17	570.5
2845.02	559
2845.88	568.5
2846.74	561.5
2847.6	557
2848.46	568
2849.32	560
2850.18	571
2851.04	546
2851.9	561.5
2852.75	554
2853.61	563
2854.47	556.5
2855.33	558.5
2856.19	549
2857.04	559
2857.9	550
2858.76	566
2859.61	543.5
2860.47	557
2861.33	537
2862.19	553
2863.04	541
2863.9	550
2864.76	542.5
2865.61	556.5
2866.47	557
2867.32	537.5
2868.18	566.5
2869.04	544
2869.89	537
2870.75	555
2871.6	549.5
2872.46	553
2873.31	551
2874.17	552
2875.02	539
2875.88	542.5
2876.73	550.5
2877.59	555
2878.44	559
2879.3	543
2880.15	536
2881	538
2881.86	540
2882.71	533
2883.57	522
2884.42	533
2885.27	538.5
2886.13	530.5
2886.98	537.5
2887.83	546
2888.69	540.5
2889.54	546
2890.39	541.5
2891.24	550.5
2892.1	551
2892.95	529
2893.8	543.5
2894.65	540
2895.51	533
2896.36	554.5
2897.21	545
2898.06	540
2898.91	536
2899.76	535
2900.62	537
2901.47	533.5
2902.32	523
2903.17	542
2904.02	539
2904.87	523.5
2905.72	541
2906.57	541.5
2907.42	549
2908.27	539.5
2909.12	522
2909.97	526
2910.82	539.5
2911.67	531.5
2912.52	526
2913.37	541
2914.22	539
2915.07	540.5
2915.92	527.5
2916.77	530
2917.62	536
2918.47	557
2919.31	538.5
2920.16	532.5
2921.01	545.5
2921.86	534
2922.71	541.5
2923.55	546
2924.4	549
2925.25	559
2926.1	548
2926.94	539.5
2927.79	529.5
2928.64	543
2929.49	543
2930.33	557.5
2931.18	568
2932.03	539
2932.87	550
2933.72	561.5
2934.57	529
2935.41	558
2936.26	526
2937.11	541
2937.95	544
2938.8	549.5
2939.64	549.5
2940.49	538.5
2941.33	530
2942.18	538
2943.02	534.5
2943.87	539
2944.71	535.5
2945.56	522.5
2946.4	499
2947.25	512.5
2948.09	515
2948.94	512.5
2949.78	508
2950.63	501
2951.47	486
2952.31	502
2953.16	480
2954	486
2954.84	476
2955.69	497
2956.53	488.5
2957.37	498
2958.22	472
2959.06	494
2959.9	475
2960.75	481
2961.59	482.5
2962.43	486
2963.27	476
2964.11	479
2964.96	478
2965.8	470
2966.64	467.5
2967.48	474.5
2968.32	465.5
2969.16	471
2970.01	468
2970.85	469.5
2971.69	462
2972.53	460
2973.37	449
2974.21	466.5
2975.05	468
2975.89	450
2976.73	462.5
2977.57	455.5
2978.41	434.5
2979.25	463
2980.09	452
2980.93	442.5
2981.77	451.5
2982.61	457
2983.45	445
2984.29	440
2985.13	444.5
2985.97	443.5
2986.81	441
2987.65	438
2988.49	437.5
2989.32	424.5
2990.16	440.5
2991	417.5
2991.84	428.5
2992.68	434
2993.51	428
2994.35	426.5
2995.19	417
2996.03	429.5
2996.86	412
2997.7	417
2998.54	422
2999.38	405.5
