#Acq. time (s)=	5
#Accumulations=	5
#Range (cm-¹)=	100...3000
#Windows=	3
#Autofocus=	Off
#AutoExposure=	Off
#Spike filter=	Multiple accum.
#Delay time (s)=	0
#Binning=	1
#Readout mode=	Signal
#DeNoise=	Off
#ICS correction=	Off
#Dark correction=	Off
#Inst. Process=	Off
#Instrument=	LabRAM HR Evol
#Detector=	Syncerity OE
#Objective=	x100_VIS_LWD
#Grating=	600 (500nm)
#ND Filter=	100%
#Laser=	633nm_Edge
#Hole=	100.021
#Range=	Visible
#Project=	Omar
#Sample=	chi
#Site=	f
#Title=	nsno
#Remark=	
#Date=	12.09.2023 17:00
#Acquired=	12.09.2023 17:00:33
101.026	11658
102.309	11537.5
103.592	11483.5
104.875	11348
106.158	11260
107.441	11188
108.723	11066.5
110.005	10905
111.289	10853.5
112.571	10724.5
113.852	10596.5
115.134	10582
116.415	10463
117.696	10395
118.976	10376
120.257	10332
121.537	10156
122.817	10131.5
124.097	10079
125.377	9957.5
126.656	9969
127.936	9936.5
129.215	9825.5
130.493	9793
131.772	9748.5
133.049	9635
134.327	9609.5
135.605	9505
136.883	9429
138.161	9411.5
139.438	9308.5
140.715	9282.5
141.992	9219
143.269	9075
144.545	9079.5
145.82	9012
147.096	8974
148.372	8911
149.648	8852.5
150.924	8824
152.199	8775
153.472	8680
154.747	8643.5
156.022	8569
157.296	8533
158.571	8454
159.843	8383
161.117	8375
162.391	8304
163.664	8210.5
164.937	8148
166.209	8118
167.482	8116.5
168.754	8059.5
170.025	8074.5
171.297	7980
172.569	7928
173.841	7973
175.111	7906
176.383	7873
177.654	7882.5
178.923	7881
180.194	7798.5
181.464	7879
182.733	7880.5
184.003	7794.5
185.273	7815
186.542	7796.5
187.811	7794
189.079	7863
190.348	7843
191.617	7834.5
192.884	7875
194.152	7892
195.419	7974.5
196.687	7977.5
197.955	7935
199.221	7988.5
200.489	8002.5
201.755	8069.5
203.022	8096.5
204.287	8076.5
205.554	8073.5
206.818	8059.5
208.085	8136.5
209.349	8146
210.615	8162.5
211.879	8080.5
213.144	8099.5
214.408	8126.5
215.673	8184
216.936	8156.5
218.201	8172.5
219.464	8142.5
220.728	8191.5
221.99	8157
223.253	8201.5
224.516	8203.5
225.778	8189.5
227.041	8205.5
228.303	8221
229.564	8216.5
230.826	8194
232.087	8200.5
233.348	8301.5
234.61	8292
235.87	8234.5
237.13	8242
238.391	8247.5
239.651	8188
240.91	8211
242.171	8150
243.43	8212.5
244.689	8168
245.949	8116.5
247.207	8128.5
248.465	8101
249.723	8057
250.983	8019.5
252.24	7989
253.498	8022
254.755	7948.5
256.013	7854
257.27	7846
258.526	7743.5
259.783	7755.5
261.039	7671
262.296	7622
263.552	7516
264.808	7507.5
266.063	7505.5
267.318	7392.5
268.573	7371.5
269.828	7310
271.084	7291
272.338	7156
273.592	7110
274.846	7099.5
276.1	7051.5
277.353	6954
278.607	6928
279.86	6900
281.113	6831.5
282.365	6844.5
283.619	6854
284.872	6800.5
286.124	6774
287.376	6819.5
288.627	6726.5
289.879	6710
291.13	6669
292.381	6628.5
293.632	6611
294.883	6597
296.133	6587
297.384	6598
298.634	6579.5
299.883	6558.5
301.133	6544
302.381	6491.5
303.63	6538
304.879	6481
306.128	6410
307.377	6454
308.625	6495
309.874	6433
311.122	6436.5
312.37	6431
313.617	6426.5
314.863	6340
316.111	6329.5
317.358	6323
318.604	6288
319.851	6337.5
321.098	6214
322.342	6195.5
323.588	6204
324.834	6161
326.08	6103.5
327.325	6152
328.569	6115
329.814	6108.5
331.059	6101
332.304	6044
333.548	6068.5
334.791	6061.5
336.035	6025.5
337.279	6020
338.521	6033
339.765	6033.5
341.008	6028
342.251	6011.5
343.492	6001
344.735	6015.5
345.977	6008.5
347.218	5987.5
348.46	6020.5
349.702	5986.5
350.942	5938
352.184	6004.5
353.425	6002.5
354.665	6018
355.905	5991
357.145	6000
358.385	5983
359.625	5981
360.864	5985.5
362.104	6002
363.342	5998
364.581	5987.5
365.819	6028
367.058	5990
368.296	6001.5
369.534	6051.5
370.771	5961
372.01	5956.5
373.246	5992.5
374.484	6038.5
375.72	5960
376.958	6004
378.194	5974.5
379.431	6019.5
380.666	5997.5
381.903	6018.5
383.138	6002.5
384.374	6085
385.609	6034
386.845	5992
388.079	6003.5
389.313	6030
390.548	5981.5
391.782	5991.5
393.016	5981
394.25	5950
395.483	5923
396.718	5961.5
397.95	5963
399.183	5886
400.416	5941.5
401.648	5956
402.88	5935
404.113	6006
405.345	6006.5
406.576	6017
407.807	6020.5
409.04	6049.5
410.27	6049.5
411.501	6056
412.731	6039.5
413.963	6092
415.193	6092.5
416.422	6096.5
417.652	6045
418.883	6086
420.112	6106
421.341	6109.5
422.569	6146.5
423.798	6111
425.028	6172.5
426.256	6128.5
427.484	6166
428.711	6162.5
429.939	6119.5
431.166	6134.5
432.394	6171
433.622	6146
434.849	6105.5
436.075	6089
437.302	6118.5
438.528	6144.5
439.754	6110
440.98	6096
442.205	6110
443.431	6206.5
444.656	6108.5
445.881	6139
447.106	6169.5
448.33	6156.5
449.555	6135.5
450.779	6160.5
452.003	6080
453.227	6135
454.45	6159
455.674	6080.5
456.897	6089.5
458.12	6097
459.343	6050
460.566	6042.5
461.788	6061
463.01	6030.5
464.232	6051.5
465.454	6049.5
466.676	5971
467.897	6040.5
469.119	6047
470.34	6019
471.559	6063
472.78	6033.5
474.001	6051.5
475.221	6012
476.441	6053
477.661	6063
478.879	6083
480.099	6104.5
481.318	6090
482.537	6086.5
483.756	6074
484.974	6122.5
486.192	6092.5
487.411	6121
488.629	6131
489.847	6158.5
491.063	6197
492.281	6178.5
493.498	6158.5
494.714	6162
495.931	6151.5
497.148	6137.5
498.365	6171.5
499.58	6183
500.796	6154
502.012	6174
503.226	6116.5
504.442	6229.5
505.657	6202
506.871	6124
508.086	6181.5
509.3	6132
510.515	6121
511.729	6160.5
512.942	6150
514.156	6137
515.369	6111
516.582	6115.5
517.796	6097.5
519.008	6149
520.221	6136.5
521.433	6105
522.645	6066
523.857	6117
525.069	6128
526.28	6114
527.492	6127.5
528.702	6093
529.914	6092
531.124	6115.5
532.335	6129
533.545	6090.5
534.756	6090.5
535.965	6059.5
537.175	6064.5
538.384	6082.5
539.593	6032.5
540.803	5992
542.011	5996
543.221	6061
544.429	6006
545.636	6023.5
546.845	6105
548.052	6008
549.261	6032.5
550.468	6028.5
551.675	6111.5
552.883	6048.5
554.089	6059
555.295	6030
556.503	6005
557.709	6049.5
558.914	6059.5
560.12	6037
561.326	6072.5
562.531	6065
563.736	6079.5
564.941	6114.5
566.147	6110
567.351	6053.5
568.555	6094
569.759	6116
570.964	6073.5
572.168	6055.5
573.371	6080
574.574	6136
575.777	6131
576.981	6082.5
578.184	6123
579.386	6129
580.588	6110.5
581.79	6151
582.992	6130.5
584.194	6133.5
585.395	6120.5
586.598	6176
587.799	6139.5
589	6138.5
590.201	6115.5
591.401	6090
592.601	6094.5
593.801	6109.5
595.001	6058
596.201	6096.5
597.401	6085
598.6	6126
599.799	6137.5
600.998	6132.5
602.197	6137
603.395	6147
604.594	6146
605.792	6204.5
606.99	6156
608.188	6192.5
609.386	6175
610.583	6183.5
611.78	6197
612.977	6158.5
614.174	6256.5
615.371	6254
616.566	6244.5
617.762	6262
618.958	6310.5
620.154	6285.5
621.35	6299.5
622.546	6345.5
623.741	6352
624.935	6363
626.13	6356
627.325	6369
628.519	6414
629.714	6420.5
630.908	6396
632.101	6423.5
633.295	6379.5
634.488	6386
635.682	6422.5
636.874	6417
638.067	6438.5
639.26	6446
640.453	6410.5
641.644	6411.5
642.836	6386.5
644.028	6379.5
645.219	6424
646.411	6479.5
647.602	6421.5
648.792	6417.5
649.984	6363
651.175	6396
652.364	6377
653.555	6345.5
654.745	6340.5
655.934	6368.5
657.124	6366.5
658.314	6373.5
659.503	6363.5
660.692	6314
661.88	6326.5
663.07	6307
664.257	6305
665.446	6252.5
666.635	6255.5
667.822	6270
669.01	6246.5
670.197	6208.5
671.384	6178
672.571	6212.5
673.758	6187
674.944	6189.5
676.131	6154
677.317	6160
678.502	6215
679.689	6173
680.874	6206
682.06	6155
683.245	6197
684.431	6117
685.615	6198
686.799	6176.5
687.984	6147.5
689.168	6124
690.353	6167
691.536	6132
692.719	6123.5
693.904	6081
695.086	6139.5
696.269	6064.5
697.453	6065.5
698.635	6105
699.817	6094.5
701	6111.5
702.182	6121.5
703.364	6167.5
704.545	6121.5
705.727	6071.5
706.908	6063.5
708.089	6077.5
709.27	6036.5
710.451	6070
711.632	6101
712.812	6105.5
713.991	6091
715.172	6116.5
716.352	6079
717.531	6063.5
718.71	6027.5
719.889	6036
721.068	6054
722.248	6089.5
723.426	6058
724.604	6050
725.782	6079
726.96	6015.5
728.138	6045.5
729.315	6061.5
730.492	6053.5
731.669	6030.5
732.846	6047.5
734.024	6033
735.201	6068.5
736.377	6096
737.553	6029.5
738.729	6058
739.905	5965.5
741.081	5997.5
742.256	6013
743.431	6022
744.606	6074
745.781	5996
746.956	5987
748.13	6025
749.303	6025
750.477	5993.5
751.651	6008
752.825	6034
753.999	6011.5
755.172	6021
756.345	5983.5
757.518	5972
758.691	6000
759.864	6001
761.035	5996.5
762.207	5948.5
763.379	5957.5
764.551	5968.5
765.723	5948
766.894	5960
768.064	5962
769.236	5979.5
770.407	5970.5
771.577	5930.5
772.748	5958
773.917	5913
775.088	5956.5
776.258	5928.5
777.427	5918.5
778.596	5897.5
779.765	5952
780.935	5911.5
782.104	5910.5
783.272	5928.5
784.44	5914.5
785.609	5939
786.776	5946.5
787.944	5964.5
789.113	5946.5
790.279	5920
791.447	5919.5
792.613	5952
793.78	5950
794.948	5930
796.113	5921
797.28	5937
798.445	5945
799.612	5947
800.778	5934.5
801.943	5992.5
803.109	5979
804.273	6012.5
805.439	6014.5
806.603	6004.5
807.768	6056.5
808.932	6073.5
810.096	6004
811.26	6046.5
812.424	6096.5
813.587	6074.5
814.751	6132.5
815.914	6125.5
817.078	6109
818.24	6159
819.402	6172.5
820.565	6191.5
821.727	6139
822.889	6142
824.051	6173
825.212	6212.5
826.374	6210.5
827.535	6181
828.697	6179
829.857	6257.5
831.018	6256
832.179	6182
833.339	6262.5
834.499	6272
835.659	6283.5
836.819	6237
837.978	6291.5
839.137	6259
840.297	6276.5
841.456	6254
842.614	6260.5
843.772	6321.5
844.932	6305.5
846.09	6261.5
847.247	6244
848.405	6278
849.562	6234.5
850.721	6277.5
851.878	6268.5
853.034	6271.5
854.191	6271
855.348	6282.5
856.504	6278
857.661	6259.5
858.817	6273.5
859.973	6280
861.129	6349.5
862.284	6311.5
863.439	6267
864.594	6281.5
865.749	6266.5
866.904	6240
868.058	6297.5
869.212	6325
870.367	6240.5
871.522	6316.5
872.676	6284
873.829	6282.5
874.983	6205.5
876.136	6189.5
877.289	6164
878.442	6201
879.593	6191.5
880.746	6160.5
881.898	6208.5
883.05	6168
884.202	6157
885.354	6190
886.506	6096.5
887.657	6156
888.808	6117.5
889.96	6131
891.11	6087
892.261	6146.5
893.41	6119.5
894.561	6059.5
895.711	6031.5
896.861	6066.5
898.011	6050
899.161	6012.5
900.309	6008.5
901.458	6017
902.607	6054.5
903.756	6052.5
904.904	6024
906.052	6009
907.201	5985.5
908.349	5938.5
909.496	6010
910.644	5932
911.791	5989
912.939	5915.5
914.085	5971
915.232	5930
916.379	6024
917.525	6079
918.671	6017.5
919.818	6050.5
920.963	5985
922.109	6009.5
923.255	6050
924.399	5987
925.545	5991
926.689	5980
927.834	5994
928.979	6048
930.123	5998.5
931.268	6089.5
932.411	6078.5
933.555	6045.5
934.698	6055.5
935.842	6045
936.985	6066.5
938.128	6067.5
939.271	6084
940.414	6036
941.556	6085.5
942.699	6041.5
943.84	6061.5
944.983	6088
946.124	6089
947.266	6058.5
948.407	6103
949.547	6159
950.689	6120.5
951.829	6093.5
952.971	6124
954.111	6167
955.25	6166.5
956.391	6151.5
957.531	6131.5
958.67	6209
959.81	6172.5
960.949	6194.5
962.088	6237.5
963.227	6203.5
964.366	6202
965.504	6168
966.643	6229.5
967.781	6125.5
968.919	6157
970.056	6188.5
971.195	6207.5
972.332	6226.5
973.469	6208.5
974.605	6237
975.743	6195
976.88	6214.5
978.016	6162
979.152	6204
980.288	6191
981.423	6158
982.56	6183
983.696	6183
984.831	6193
985.966	6142.5
987.101	6220.5
988.235	6134.5
989.37	6167
990.504	6147
991.638	6230
992.773	6232
993.907	6263
995.041	6253
996.174	6309.5
997.307	6317.5
998.44	6376
999.573	6352.5
1000.71	6312.5
1001.84	6325
1002.97	6243.5
1004.1	6249
1005.24	6190.5
1006.37	6207.5
1007.5	6143.5
1008.63	6168
1009.76	6180.5
1010.89	6172
1012.02	6074.5
1013.15	6171
1014.28	6161
1015.41	6160.5
1016.54	6108
1017.67	6176.5
1018.8	6233
1019.93	6175.5
1021.06	6216.5
1022.19	6210
1023.32	6276.5
1024.45	6233
1025.58	6254
1026.71	6261.5
1027.84	6272
1028.96	6327.5
1030.09	6295
1031.22	6351.5
1032.35	6302
1033.47	6319.5
1034.6	6308.5
1035.73	6374.5
1036.86	6355.5
1037.98	6321
1039.11	6349.5
1040.23	6310
1041.36	6367
1042.49	6326
1043.61	6353
1044.74	6355
1045.86	6330
1046.99	6316
1048.11	6355.5
1049.24	6380.5
1050.36	6341.5
1051.49	6378.5
1052.61	6409
1053.74	6422
1054.86	6391
1055.98	6393.5
1057.11	6423.5
1058.23	6423
1059.35	6431.5
1060.48	6447
1061.6	6409
1062.72	6440.5
1063.84	6458.5
1064.97	6423
1066.09	6447.5
1067.21	6388
1068.33	6435
1069.45	6460.5
1070.57	6445
1071.7	6462.5
1072.82	6477.5
1073.94	6497.5
1075.06	6480
1076.18	6493
1077.3	6481
1078.42	6404
1079.54	6483
1080.66	6473
1081.78	6510.5
1082.9	6485.5
1084.02	6520
1085.14	6449.5
1086.25	6445.5
1087.37	6490
1088.49	6466
1089.61	6453
1090.73	6474.5
1091.84	6495.5
1092.96	6458
1094.08	6537
1095.2	6532
1096.31	6491
1097.43	6498.5
1098.55	6508
1099.66	6531.5
1100.78	6445.5
1101.9	6535.5
1103.01	6523
1104.13	6486.5
1105.25	6504
1106.36	6539
1107.48	6505
1108.59	6574
1109.71	6575
1110.82	6557.5
1111.93	6586.5
1113.05	6602
1114.16	6623.5
1115.28	6594
1116.39	6631
1117.51	6603
1118.62	6588.5
1119.73	6669.5
1120.85	6668.5
1121.96	6705.5
1123.07	6734
1124.18	6729
1125.3	6751.5
1126.41	6803.5
1127.52	6794
1128.63	6813
1129.74	6828.5
1130.85	6848
1131.97	6828
1133.08	6884.5
1134.19	6874.5
1135.3	6858
1136.41	6925.5
1137.52	6967
1138.63	6960
1139.74	6974
1140.85	6970
1141.96	7032
1143.07	7074.5
1144.18	7174
1145.29	7185.5
1146.4	7254
1147.51	7230.5
1148.61	7299.5
1149.72	7325.5
1150.83	7375
1151.94	7373.5
1153.05	7465.5
1154.15	7515.5
1155.26	7607.5
1156.37	7611
1157.48	7656
1158.58	7695.5
1159.69	7712
1160.8	7707
1161.9	7742.5
1163.01	7758
1164.11	7775
1165.22	7807
1166.33	7853.5
1167.43	7855.5
1168.54	7840
1169.64	7895
1170.75	7909.5
1171.85	7822
1172.96	7858
1174.06	7804
1175.17	7793
1176.27	7723
1177.37	7803
1178.48	7772.5
1179.58	7673.5
1180.68	7670
1181.79	7652.5
1182.89	7658
1183.99	7629.5
1185.1	7646
1186.2	7633
1187.3	7613
1188.4	7604.5
1189.5	7617.5
1190.61	7578
1191.71	7589
1192.81	7559.5
1193.91	7604
1195.01	7646
1196.11	7655.79
1197.21	7665.08
1198.31	7642.63
1199.42	7617.36
1200.51	7645.24
1201.61	7688.65
1202.72	7645.96
1203.81	7680.3
1204.91	7631.33
1206.01	7657.79
1207.11	7596.05
1208.21	7646.49
1209.31	7674.94
1210.41	7692.92
1211.51	7617.66
1212.61	7643.69
1213.7	7650.88
1214.8	7651.45
1215.9	7658.68
1217	7654.19
1218.09	7726.12
1219.19	7672.63
1220.29	7648.22
1221.38	7661.22
1222.48	7649.58
1223.58	7654
1224.67	7678.6
1225.77	7717.56
1226.87	7705.91
1227.96	7685.64
1229.06	7729.31
1230.15	7746.47
1231.25	7798.62
1232.34	7800.9
1233.44	7758.63
1234.53	7782.62
1235.63	7832.64
1236.72	7850.09
1237.81	7820.75
1238.91	7824.39
1240	7865.13
1241.1	7798.92
1242.19	7861.74
1243.28	7852.13
1244.38	7861.74
1245.47	7880.81
1246.56	7896.12
1247.65	7886.28
1248.75	7907.73
1249.84	7938
1250.93	7932.1
1252.02	7932.46
1253.11	7995.1
1254.21	8000.29
1255.3	8031.78
1256.39	8043.72
1257.48	8057.69
1258.57	8082.33
1259.66	8117.49
1260.75	8118.04
1261.84	8175.8
1262.93	8170.87
1264.02	8161.56
1265.11	8217.22
1266.2	8222.97
1267.29	8234.13
1268.38	8283.86
1269.47	8298.31
1270.56	8301.89
1271.65	8288.38
1272.73	8288.6
1273.82	8267.81
1274.91	8323.74
1276	8368.12
1277.09	8347.72
1278.17	8298.7
1279.26	8356.26
1280.35	8366.32
1281.43	8348.84
1282.52	8396.21
1283.61	8396.45
1284.69	8443.15
1285.78	8462.15
1286.87	8456.36
1287.95	8436.47
1289.04	8472.18
1290.13	8489.2
1291.21	8474.1
1292.3	8484.52
1293.38	8552.57
1294.47	8448.85
1295.55	8468.45
1296.64	8473.56
1297.72	8502.19
1298.8	8509.96
1299.89	8474.79
1300.97	8468.83
1302.06	8434.28
1303.14	8455.83
1304.22	8502.35
1305.31	8550.95
1306.39	8525.11
1307.34	8562
1308.43	8588.5
1309.52	8551.5
1310.6	8584.5
1311.69	8592.5
1312.78	8639
1313.87	8613.5
1314.96	8567
1316.04	8655.5
1317.13	8669
1318.21	8642.5
1319.3	8621.5
1320.39	8634.5
1321.47	8615.5
1322.56	8592.5
1323.65	8608
1324.73	8564
1325.82	8602
1326.9	8576.5
1327.99	8587.5
1329.07	8533
1330.16	8569.5
1331.24	8645.5
1332.32	8605
1333.41	8611.5
1334.49	8585.5
1335.58	8612
1336.66	8601
1337.74	8562.5
1338.83	8586.5
1339.91	8621
1340.99	8552.5
1342.08	8615
1343.16	8579
1344.24	8624
1345.32	8612.5
1346.41	8595.5
1347.49	8574
1348.57	8568
1349.65	8626
1350.73	8557.5
1351.81	8521.5
1352.9	8504
1353.98	8573
1355.06	8570.5
1356.14	8624.5
1357.22	8577.5
1358.3	8511.5
1359.38	8477
1360.46	8493
1361.54	8558
1362.62	8536.5
1363.7	8539.5
1364.78	8551
1365.85	8527
1366.93	8485
1368.01	8444.5
1369.09	8380
1370.17	8409
1371.25	8378
1372.33	8355
1373.4	8291.5
1374.48	8310.5
1375.56	8335.5
1376.64	8273.5
1377.71	8282.5
1378.79	8311.5
1379.87	8251
1380.94	8283.5
1382.02	8283.5
1383.1	8353.5
1384.17	8376.5
1385.25	8321.5
1386.32	8305
1387.4	8326
1388.47	8234
1389.55	8259.5
1390.63	8194
1391.7	8182.5
1392.77	8238
1393.85	8181
1394.92	8172
1396	8200
1397.07	8172.5
1398.15	8134
1399.22	8221.5
1400.29	8187
1401.37	8234.5
1402.44	8215.5
1403.51	8248.5
1404.59	8187
1405.66	8268.5
1406.73	8234.5
1407.8	8213.5
1408.87	8245.5
1409.95	8221
1411.02	8272
1412.09	8239
1413.16	8262
1414.23	8268
1415.3	8248.5
1416.38	8324.5
1417.45	8295.5
1418.52	8306.5
1419.59	8301.5
1420.66	8245
1421.73	8348.5
1422.8	8328
1423.87	8350.5
1424.94	8396
1426.01	8408
1427.08	8419
1428.15	8405.5
1429.21	8447.5
1430.28	8460
1431.35	8517.5
1432.42	8494
1433.49	8496.5
1434.56	8556
1435.63	8456.5
1436.69	8500
1437.76	8562
1438.83	8528.5
1439.89	8546
1440.96	8543.5
1442.03	8671.5
1443.1	8670.5
1444.16	8690
1445.23	8689.5
1446.3	8662
1447.36	8716
1448.43	8686
1449.49	8852
1450.56	8723.5
1451.62	8799
1452.69	8823.5
1453.75	8806.5
1454.82	8860
1455.88	8842
1456.95	8901
1458.01	8922
1459.08	8978
1460.14	8943
1461.2	9019.5
1462.27	9090.5
1463.33	9146
1464.4	9166
1465.46	9145.5
1466.52	9221.5
1467.58	9202
1468.65	9284.5
1469.71	9266.5
1470.77	9386
1471.83	9399
1472.9	9388.5
1473.96	9405
1475.02	9468.5
1476.08	9507
1477.14	9513.5
1478.2	9506
1479.27	9531.5
1480.33	9523.5
1481.39	9590
1482.45	9581
1483.51	9591.5
1484.57	9576.5
1485.63	9578
1486.69	9617.5
1487.75	9584.5
1488.81	9579.5
1489.87	9593
1490.93	9570.5
1491.99	9611.5
1493.04	9556
1494.1	9549
1495.16	9533
1496.22	9488
1497.28	9485
1498.34	9459
1499.39	9476
1500.45	9378.5
1501.51	9437.5
1502.57	9412.5
1503.62	9338.5
1504.68	9305
1505.74	9308.5
1506.79	9298.5
1507.85	9251
1508.91	9206.5
1509.96	9184.5
1511.02	9268
1512.07	9247
1513.13	9272
1514.19	9179.5
1515.24	9252
1516.3	9263
1517.35	9284
1518.41	9358.5
1519.46	9303.5
1520.52	9352
1521.57	9401.5
1522.62	9355
1523.68	9389
1524.73	9452.5
1525.79	9454
1526.84	9467
1527.89	9447
1528.95	9511.5
1530	9570.5
1531.05	9543
1532.1	9509.5
1533.16	9549
1534.21	9515
1535.26	9586.5
1536.31	9525.5
1537.37	9554.5
1538.42	9564.5
1539.47	9547.5
1540.52	9563
1541.57	9522
1542.62	9539.5
1543.67	9544.5
1544.72	9584.5
1545.78	9582
1546.83	9618.5
1547.88	9507
1548.93	9569
1549.98	9563.5
1551.03	9592.5
1552.07	9535.5
1553.12	9555
1554.17	9572
1555.22	9486
1556.27	9511
1557.32	9480
1558.37	9551
1559.42	9522
1560.47	9520.5
1561.51	9490.5
1562.56	9443
1563.61	9478
1564.66	9459.5
1565.7	9465.5
1566.75	9434.5
1567.8	9444
1568.85	9472
1569.89	9386.5
1570.94	9404
1571.98	9407
1573.03	9381.5
1574.08	9369.5
1575.12	9424
1576.17	9413
1577.21	9390
1578.26	9321
1579.31	9336
1580.35	9307
1581.4	9268.5
1582.44	9310.5
1583.49	9300
1584.53	9287
1585.57	9267
1586.62	9204
1587.66	9256
1588.71	9161.5
1589.75	9203.5
1590.79	9227.5
1591.84	9199
1592.88	9166
1593.92	9152
1594.97	9123
1596.01	9097
1597.05	9110.5
1598.09	9022.5
1599.14	8869
1600.18	8884
1601.22	8776.5
1602.26	8686.5
1603.3	8647.5
1604.34	8519.5
1605.38	8487.5
1606.43	8363.5
1607.47	8243
1608.51	8147.5
1609.55	7991
1610.59	7920
1611.63	7870.5
1612.67	7675
1613.71	7667
1614.75	7543.5
1615.79	7446
1616.83	7366
1617.87	7364.5
1618.91	7238.5
1619.94	7126
1620.98	7096
1622.02	6979.5
1623.06	6845.5
1624.1	6767.5
1625.14	6749.5
1626.17	6665.5
1627.21	6598.5
1628.25	6585
1629.29	6400.5
1630.32	6365.5
1631.36	6316.5
1632.4	6256.5
1633.43	6180
1634.47	6103
1635.51	6041.5
1636.54	6031.5
1637.58	5916.5
1638.62	5874.5
1639.65	5771
1640.69	5748.5
1641.72	5719
1642.76	5696.5
1643.79	5541
1644.83	5516
1645.86	5506.5
1646.9	5442.5
1647.93	5343.5
1648.97	5348.5
1650	5330.5
1651.04	5285
1652.07	5265
1653.1	5229
1654.14	5174
1655.17	5111
1656.2	5117.5
1657.24	5050
1658.27	5026
1659.3	4996.5
1660.34	4938
1661.37	4895
1662.4	4860.5
1663.43	4847.5
1664.46	4837.5
1665.5	4808
1666.53	4816.5
1667.56	4702.5
1668.59	4729.5
1669.62	4698.5
1670.65	4668.5
1671.68	4662.5
1672.71	4609.5
1673.74	4570.5
1674.77	4545
1675.8	4590
1676.83	4535.5
1677.86	4559.5
1678.89	4534.5
1679.92	4481
1680.95	4460
1681.98	4493
1683.01	4474
1684.04	4436
1685.07	4445
1686.1	4368.5
1687.13	4397
1688.15	4354.5
1689.18	4336.5
1690.21	4299
1691.24	4297
1692.27	4300.5
1693.29	4296
1694.32	4265.5
1695.35	4263
1696.37	4228.5
1697.4	4241.5
1698.43	4217.5
1699.45	4236.5
1700.48	4231
1701.51	4182
1702.53	4156.5
1703.56	4116
1704.58	4108.5
1705.61	4134.5
1706.64	4117
1707.66	4138.5
1708.69	4099.5
1709.71	4077
1710.73	4067.5
1711.76	4039
1712.78	4025
1713.81	4000
1714.83	4043.5
1715.86	4018.5
1716.88	3996
1717.9	3971
1718.93	3977
1719.95	3956.5
1720.97	3908.5
1722	3916.5
1723.02	3914
1724.04	3949
1725.06	3913
1726.09	3895
1727.11	3883
1728.13	3905
1729.15	3867
1730.17	3840
1731.2	3841
1732.22	3795
1733.24	3827.5
1734.26	3802
1735.28	3778
1736.3	3761
1737.32	3762
1738.34	3796.5
1739.36	3759
1740.38	3732
1741.4	3744
1742.42	3733
1743.44	3734.5
1744.46	3720.5
1745.48	3716
1746.5	3702.5
1747.52	3685.5
1748.54	3686
1749.56	3644
1750.57	3650
1751.59	3669
1752.61	3623
1753.63	3628.5
1754.65	3614.5
1755.66	3668.5
1756.68	3582
1757.7	3630.5
1758.72	3602
1759.73	3599
1760.75	3566.5
1761.77	3590
1762.78	3602
1763.8	3552.5
1764.82	3526.5
1765.83	3547.5
1766.85	3529
1767.86	3496.5
1768.88	3498
1769.9	3498
1770.91	3505.5
1771.93	3459
1772.94	3505
1773.96	3497.5
1774.97	3488.5
1775.99	3485.5
1777	3423
1778.01	3456.5
1779.03	3447.5
1780.04	3432.5
1781.06	3403.5
1782.07	3429
1783.08	3411
1784.1	3470.5
1785.11	3420
1786.12	3414
1787.14	3430
1788.15	3350.5
1789.16	3391.5
1790.17	3400
1791.18	3424
1792.2	3333
1793.21	3349
1794.22	3334.5
1795.23	3353
1796.24	3344.5
1797.26	3335.5
1798.27	3290.5
1799.28	3372
1800.29	3295
1801.3	3337
1802.31	3307
1803.32	3263.5
1804.33	3289
1805.34	3282
1806.35	3291.5
1807.36	3255.5
1808.37	3275
1809.38	3248
1810.39	3270.5
1811.4	3252
1812.4	3268.5
1813.41	3250.5
1814.42	3258.5
1815.43	3223
1816.44	3227.5
1817.45	3233.5
1818.45	3194
1819.46	3205.5
1820.47	3159.5
1821.48	3210
1822.49	3210.5
1823.49	3190
1824.5	3170.5
1825.51	3164.5
1826.51	3162.5
1827.52	3157.5
1828.53	3186
1829.53	3180.5
1830.54	3171.5
1831.54	3148
1832.55	3147.5
1833.56	3129
1834.56	3146
1835.57	3148
1836.57	3121
1837.58	3091.5
1838.58	3089
1839.59	3111.5
1840.59	3099.5
1841.59	3111
1842.6	3091.5
1843.6	3071.5
1844.61	3068
1845.61	3088
1846.61	3020.5
1847.62	3019.5
1848.62	3044.5
1849.62	3029.5
1850.63	3030.5
1851.63	3031
1852.63	3009
1853.64	3003
1854.64	3025.5
1855.64	3015.5
1856.64	3003.5
1857.64	3021.5
1858.65	2990.5
1859.65	2977.5
1860.65	2985
1861.65	2967
1862.65	2981
1863.65	2977
1864.65	2952.5
1865.65	2969
1866.65	2920.5
1867.65	2969
1868.65	3006
1869.65	2959
1870.65	2933
1871.65	2938.5
1872.65	2934.5
1873.65	2970.5
1874.65	2943
1875.65	2929
1876.65	2925
1877.65	2905.5
1878.65	2872
1879.65	2886.5
1880.65	2890
1881.64	2895
1882.64	2873
1883.64	2899.5
1884.64	2877.5
1885.63	2910.5
1886.63	2886
1887.63	2903.5
1888.63	2910.5
1889.62	2894.5
1890.62	2863
1891.62	2883
1892.61	2882.5
1893.61	2859
1894.61	2842
1895.6	2816.5
1896.6	2818.5
1897.59	2858.5
1898.59	2819.5
1899.58	2838.5
1900.58	2848.5
1901.57	2838
1902.57	2866
1903.56	2828.5
1904.56	2827
1905.55	2849
1906.55	2855
1907.54	2810.5
1908.54	2857.5
1909.53	2813.5
1910.52	2802.5
1911.52	2785.5
1912.51	2819.5
1913.5	2803
1914.5	2786.5
1915.49	2794
1916.48	2783
1917.48	2828.5
1918.47	2815.5
1919.46	2817.5
1920.45	2792
1921.44	2763.5
1922.44	2800
1923.43	2784
1924.42	2741.5
1925.41	2794.5
1926.4	2772
1927.39	2769
1928.38	2763
1929.38	2750
1930.37	2726
1931.36	2778
1932.35	2791
1933.34	2753.5
1934.33	2755.5
1935.32	2735
1936.31	2742.5
1937.3	2745
1938.29	2738
1939.28	2737.5
1940.26	2701.5
1941.25	2733
1942.24	2759
1943.23	2725
1944.22	2746.5
1945.21	2709.5
1946.2	2713.5
1947.18	2723.5
1948.17	2701.5
1949.16	2697.5
1950.15	2705.25
1951.13	2713
1952.12	2697
1953.11	2704.5
1954.1	2698
1955.08	2664.5
1956.07	2692.5
1957.06	2655
1958.04	2695.5
1959.03	2671
1960.01	2670
1961	2696
1961.99	2663.5
1962.97	2621
1963.96	2662.5
1964.94	2637
1965.93	2665
1966.91	2642
1967.9	2663.5
1968.88	2622
1969.87	2616.5
1970.85	2654
1971.84	2643.5
1972.82	2619
1973.81	2650.5
1974.79	2618.5
1975.77	2587
1976.76	2575
1977.74	2608.5
1978.72	2592
1979.71	2584
1980.69	2597
1981.67	2595.5
1982.65	2598.5
1983.64	2591.5
1984.62	2604.5
1985.6	2585.5
1986.58	2569
1987.56	2606.5
1988.55	2603.5
1989.53	2570.5
1990.51	2583.5
1991.49	2573.5
1992.47	2544.5
1993.45	2563.5
1994.43	2539.5
1995.41	2560
1996.39	2566
1997.37	2559
1998.36	2559
1999.34	2545.5
2000.31	2547.5
2001.29	2554
2002.27	2524
2003.25	2534
2004.23	2536.5
2005.21	2546.5
2006.19	2523
2007.17	2541.5
2008.15	2541
2009.13	2533.5
2010.11	2506
2011.08	2521.5
2012.06	2539
2013.04	2537.5
2014.02	2508.5
2015	2483
2015.97	2504.5
2016.95	2496.5
2017.93	2494
2018.91	2464
2019.88	2514
2020.86	2480.5
2021.83	2486.5
2022.81	2485.5
2023.79	2477.5
2024.76	2487.5
2025.74	2477.5
2026.72	2474.5
2027.69	2431.5
2028.67	2478
2029.64	2458.5
2030.62	2442.5
2031.59	2469
2032.57	2471
2033.54	2455.5
2034.52	2424
2035.49	2414
2036.47	2458.5
2037.44	2416
2038.41	2407.5
2039.39	2443.5
2040.36	2412
2041.34	2394
2042.31	2410.5
2043.28	2416
2044.26	2463
2045.23	2406
2046.2	2434.5
2047.17	2409.5
2048.15	2407
2049.12	2417
2050.09	2378.5
2051.06	2411
2052.04	2378.5
2053.01	2406
2053.98	2391.5
2054.95	2404.5
2055.92	2399.5
2056.89	2363
2057.86	2386
2058.84	2390.5
2059.81	2354.5
2060.78	2376.5
2061.75	2344.5
2062.72	2352
2063.69	2351
2064.66	2374
2065.63	2372
2066.6	2357
2067.57	2345
2068.54	2365.5
2069.51	2345.5
2070.48	2335.5
2071.44	2307.5
2072.41	2371
2073.38	2353.5
2074.35	2326.5
2075.32	2344.5
2076.29	2334
2077.26	2371.5
2078.22	2344.5
2079.19	2316
2080.16	2315
2081.13	2320.5
2082.09	2306
2083.06	2339
2084.03	2284
2085	2298.5
2085.96	2282
2086.93	2273.5
2087.9	2293.5
2088.86	2297.5
2089.83	2320
2090.79	2274.5
2091.76	2276.5
2092.73	2300.5
2093.69	2267.5
2094.66	2285.5
2095.62	2282
2096.59	2303
2097.55	2318.5
2098.52	2280
2099.48	2294
2100.45	2295.5
2101.41	2297
2102.38	2310.5
2103.34	2284.5
2104.3	2286
2105.27	2261.5
2106.23	2271.5
2107.19	2314
2108.16	2270.5
2109.12	2245
2110.08	2301
2111.05	2259.5
2112.01	2280
2112.97	2261
2113.94	2263.5
2114.9	2249.5
2115.86	2267
2116.82	2279
2117.78	2277.5
2118.75	2257.5
2119.71	2276
2120.67	2257
2121.63	2263.5
2122.59	2253.5
2123.55	2276.5
2124.51	2266.5
2125.47	2238.5
2126.43	2245.5
2127.4	2270.5
2128.36	2229.5
2129.32	2255.5
2130.28	2251
2131.24	2245
2132.2	2229.5
2133.16	2197
2134.11	2228
2135.07	2202
2136.03	2198.5
2136.99	2220.5
2137.95	2199.5
2138.91	2227.5
2139.87	2203
2140.83	2217
2141.78	2213
2142.74	2142.5
2143.7	2189
2144.66	2206.5
2145.62	2188.45
2146.57	2194.25
2147.53	2150.4
2148.49	2163.9
2149.45	2185.94
2150.4	2154.51
2151.36	2143.28
2152.32	2152.04
2153.27	2122.96
2154.23	2147.79
2155.19	2139.39
2156.14	2125.15
2157.1	2091.51
2158.05	2141.7
2159.01	2097.56
2159.96	2092.17
2160.92	2078.37
2161.88	2088.62
2162.83	2091.24
2163.78	2052.47
2164.74	2068.71
2165.69	2071.4
2166.65	2059.36
2167.6	2063.67
2168.56	2051.7
2169.51	2044.69
2170.47	2036.66
2171.42	2022.02
2172.37	2007.3
2173.33	2023.89
2174.28	2028
2175.23	2011.09
2176.19	2022.77
2177.14	2002.74
2178.09	2016.7
2179.04	2012.29
2180	1990.72
2180.95	2000.49
2181.9	2015.89
2182.85	1991.27
2183.81	1977.39
2184.76	1994.85
2185.71	1967.47
2186.66	1978.93
2187.61	1983.63
2188.56	1971.71
2189.51	1978.24
2190.46	1967.5
2191.42	1989.17
2192.37	1977.72
2193.32	1966.31
2194.27	1984.2
2195.22	1984.32
2196.17	1974.06
2197.12	1944.56
2198.07	1970.93
2199.02	1957.93
2199.97	1957.58
2200.92	1972.31
2201.86	1962.75
2202.81	1946.47
2203.76	1954.18
2204.71	1945.11
2205.66	1954.17
2206.61	1952.34
2207.56	1952.62
2208.5	1958.02
2209.45	1943.33
2210.4	1956.1
2211.35	1941.68
2212.3	1934.88
2213.24	1943.67
2214.19	1932.58
2215.14	1935.21
2216.08	1951.48
2217.03	1923.42
2217.98	1925.58
2218.92	1927.25
2219.87	1922.98
2220.82	1917.01
2221.76	1912.01
2222.71	1917.57
2223.65	1921.24
2224.6	1913.14
2225.55	1924.09
2226.49	1911.06
2227.44	1917.08
2228.38	1921.14
2229.33	1917.22
2230.27	1910.21
2231.22	1903.25
2232.16	1904.34
2233.11	1888.22
2234.05	1880.03
2234.99	1889.92
2235.94	1896.8
2236.88	1903.36
2237.83	1887.49
2238.77	1866.09
2239.71	1857.12
2240.66	1851.15
2241.6	1853.33
2242.06	1860.5
2243.01	1875.5
2243.96	1886.5
2244.91	1878
2245.85	1857.5
2246.8	1873
2247.75	1863
2248.7	1840.5
2249.64	1836
2250.59	1869.5
2251.54	1872.5
2252.48	1812
2253.43	1801.5
2254.38	1831.5
2255.32	1827
2256.27	1827
2257.21	1834
2258.16	1789
2259.1	1777.5
2260.05	1819.5
2260.99	1780.5
2261.94	1766
2262.89	1751
2263.83	1818
2264.77	1804.5
2265.72	1797.5
2266.66	1783.5
2267.61	1785
2268.55	1799
2269.5	1769.5
2270.44	1764.5
2271.38	1758
2272.33	1750
2273.27	1769
2274.21	1753
2275.16	1753.5
2276.1	1748.5
2277.04	1744
2277.98	1729
2278.93	1749.5
2279.87	1716.5
2280.81	1737.5
2281.75	1762
2282.7	1763.5
2283.64	1756
2284.58	1736.5
2285.52	1715.5
2286.46	1720
2287.4	1736.5
2288.34	1717.5
2289.29	1740
2290.23	1743.5
2291.17	1710
2292.11	1707.5
2293.05	1706
2293.99	1747
2294.93	1723.5
2295.87	1737
2296.81	1709
2297.75	1736
2298.69	1697.5
2299.63	1675
2300.57	1684
2301.51	1691.5
2302.44	1723
2303.38	1690.5
2304.32	1679.5
2305.26	1695.5
2306.2	1703.5
2307.14	1684.5
2308.08	1668.5
2309.01	1685.5
2309.95	1667
2310.89	1709
2311.83	1690
2312.77	1680.5
2313.7	1688
2314.64	1684.5
2315.58	1717
2316.51	1636
2317.45	1680.5
2318.39	1671
2319.32	1639.5
2320.26	1642
2321.2	1688.5
2322.13	1658
2323.07	1654
2324	1695
2324.94	1656
2325.88	1662
2326.81	1667.5
2327.75	1662
2328.68	1643
2329.62	1657.5
2330.55	1664
2331.49	1656
2332.42	1673
2333.35	1661
2334.29	1655
2335.22	1652
2336.16	1648
2337.09	1626.5
2338.02	1624
2338.96	1658
2339.89	1654
2340.82	1651.5
2341.76	1617
2342.69	1629
2343.62	1648
2344.56	1638.5
2345.49	1664
2346.42	1649
2347.35	1627
2348.29	1650
2349.22	1638
2350.15	1598
2351.08	1623.5
2352.01	1640
2352.94	1627.5
2353.88	1599
2354.81	1613
2355.74	1632
2356.67	1612
2357.6	1621
2358.53	1614
2359.46	1627.5
2360.39	1618
2361.32	1617.5
2362.25	1595
2363.18	1585.5
2364.11	1604
2365.04	1629.5
2365.97	1616.5
2366.9	1582
2367.83	1616
2368.76	1592
2369.69	1574
2370.62	1604
2371.55	1607.5
2372.47	1588
2373.4	1579
2374.33	1604.5
2375.26	1612
2376.19	1621
2377.11	1592
2378.04	1611.5
2378.97	1583
2379.9	1584.5
2380.83	1567.5
2381.75	1569.5
2382.68	1583
2383.61	1586.5
2384.53	1551
2385.46	1608.5
2386.39	1548.5
2387.31	1564
2388.24	1573.5
2389.17	1569.5
2390.09	1568.5
2391.02	1570
2391.94	1569
2392.87	1586.5
2393.79	1566
2394.72	1580
2395.64	1560.5
2396.57	1560
2397.49	1542.5
2398.42	1584.5
2399.34	1539
2400.27	1567
2401.19	1542.5
2402.12	1547.5
2403.04	1554.5
2403.96	1538
2404.89	1546.5
2405.81	1544.5
2406.74	1529
2407.66	1524.5
2408.58	1539
2409.51	1529.5
2410.43	1568
2411.35	1559.5
2412.27	1564
2413.2	1538
2414.12	1516.5
2415.04	1530
2415.96	1545
2416.89	1538.5
2417.81	1545
2418.73	1531
2419.65	1523
2420.57	1503
2421.49	1511.5
2422.41	1533
2423.34	1526.5
2424.26	1510.5
2425.18	1520
2426.1	1538
2427.02	1510
2427.94	1508
2428.86	1517.5
2429.78	1516
2430.7	1543
2431.62	1511
2432.54	1515
2433.46	1518
2434.38	1531
2435.3	1498
2436.22	1477.5
2437.13	1507
2438.05	1515
2438.97	1521
2439.89	1480
2440.81	1505.5
2441.73	1494
2442.65	1494
2443.56	1500
2444.48	1519.5
2445.4	1500.5
2446.32	1486
2447.24	1485
2448.15	1458.5
2449.07	1485.5
2449.99	1496.5
2450.9	1490
2451.82	1478.5
2452.74	1482
2453.65	1461.5
2454.57	1468
2455.49	1494
2456.4	1487
2457.32	1465
2458.23	1490.5
2459.15	1477
2460.07	1459.5
2460.98	1492.5
2461.9	1451.5
2462.81	1475.5
2463.73	1443
2464.64	1459
2465.56	1458
2466.47	1450
2467.39	1462
2468.3	1474.5
2469.21	1462
2470.13	1474
2471.04	1479
2471.96	1422
2472.87	1465.5
2473.78	1476.5
2474.7	1462.5
2475.61	1443.5
2476.52	1440.5
2477.44	1468.5
2478.35	1425
2479.26	1443.5
2480.17	1447
2481.09	1478.5
2482	1467
2482.91	1469
2483.82	1434
2484.74	1424
2485.65	1425
2486.56	1450
2487.47	1447.5
2488.38	1443
2489.29	1418
2490.21	1429.5
2491.12	1404
2492.03	1432.5
2492.94	1461
2493.85	1454
2494.76	1428
2495.67	1412
2496.58	1433.5
2497.49	1434
2498.4	1436.5
2499.31	1443
2500.22	1446.5
2501.13	1405
2502.04	1422
2502.95	1407
2503.86	1421.5
2504.76	1430
2505.67	1408.5
2506.58	1385.5
2507.49	1406
2508.4	1392
2509.31	1392
2510.22	1403
2511.12	1423.5
2512.03	1412
2512.94	1411
2513.85	1405
2514.76	1413.5
2515.66	1399.5
2516.57	1384
2517.48	1392.5
2518.38	1404
2519.29	1396
2520.2	1389.5
2521.1	1387
2522.01	1395.5
2522.92	1425
2523.82	1394
2524.73	1382.5
2525.64	1407
2526.54	1381
2527.45	1369.5
2528.35	1391
2529.26	1372
2530.16	1400
2531.07	1379.5
2531.97	1378.5
2532.88	1373.5
2533.78	1403.5
2534.69	1376
2535.59	1368
2536.5	1344.5
2537.4	1361
2538.31	1302
2539.21	1342
2540.11	1377.5
2541.02	1361.5
2541.92	1343
2542.82	1350
2543.73	1384
2544.63	1350.5
2545.53	1334
2546.44	1361
2547.34	1354
2548.24	1336
2549.14	1361
2550.05	1367
2550.95	1337
2551.85	1369
2552.75	1343.5
2553.65	1315.5
2554.56	1356
2555.46	1351.5
2556.36	1371
2557.26	1332
2558.16	1360
2559.06	1326
2559.96	1366
2560.86	1348.5
2561.76	1363.5
2562.67	1341.5
2563.57	1317.5
2564.47	1340
2565.37	1359.5
2566.27	1340.5
2567.17	1318.5
2568.06	1332.5
2568.96	1299
2569.86	1316
2570.76	1331
2571.66	1327.5
2572.56	1305
2573.46	1324
2574.36	1330.5
2575.26	1304
2576.16	1335
2577.05	1318.5
2577.95	1336.5
2578.85	1306
2579.75	1313.5
2580.65	1324
2581.54	1290
2582.44	1330
2583.34	1314
2584.24	1330.5
2585.13	1344
2586.03	1298
2586.93	1309.5
2587.83	1297.5
2588.72	1296.5
2589.62	1318.5
2590.51	1302
2591.41	1299
2592.31	1297.5
2593.2	1318.5
2594.1	1307.5
2594.99	1289
2595.89	1303.5
2596.79	1282.5
2597.68	1294.5
2598.58	1305
2599.47	1283
2600.37	1286
2601.26	1283.5
2602.16	1300
2603.05	1298
2603.94	1274
2604.84	1310
2605.73	1295.5
2606.63	1284
2607.52	1288.5
2608.42	1257
2609.31	1284
2610.2	1257
2611.1	1320.5
2611.99	1286
2612.88	1279.5
2613.78	1286
2614.67	1281
2615.56	1281.5
2616.45	1283
2617.35	1254
2618.24	1271.5
2619.13	1260
2620.02	1261
2620.91	1292.5
2621.81	1261.5
2622.7	1274
2623.59	1291
2624.48	1259
2625.37	1266
2626.26	1260
2627.15	1275.5
2628.04	1255
2628.94	1280.5
2629.83	1261.5
2630.72	1251
2631.61	1254
2632.5	1251
2633.39	1238
2634.28	1249
2635.17	1254.5
2636.06	1234.5
2636.95	1248.5
2637.84	1229
2638.73	1231
2639.61	1235
2640.5	1239
2641.39	1252
2642.28	1241
2643.17	1209
2644.06	1210
2644.95	1223
2645.84	1234
2646.72	1189
2647.61	1228
2648.5	1208.5
2649.39	1218
2650.28	1239.5
2651.16	1237
2652.05	1208
2652.94	1217.5
2653.82	1222.5
2654.71	1232
2655.6	1217
2656.49	1227
2657.37	1233
2658.26	1244.5
2659.14	1226
2660.03	1235
2660.92	1223
2661.8	1206
2662.69	1218
2663.57	1223
2664.46	1221
2665.35	1210
2666.23	1202
2667.12	1186
2668	1217.5
2668.89	1194.5
2669.77	1208
2670.66	1227.5
2671.54	1194
2672.42	1174
2673.31	1197.5
2674.19	1184
2675.08	1215
2675.96	1215.5
2676.84	1200
2677.73	1195
2678.61	1202
2679.49	1210
2680.38	1187
2681.26	1221
2682.14	1187
2683.03	1197.5
2683.91	1199
2684.79	1192.5
2685.68	1198
2686.56	1208
2687.44	1208
2688.32	1215.5
2689.2	1175
2690.09	1189.5
2690.97	1190.5
2691.85	1183
2692.73	1196
2693.61	1189.5
2694.49	1187.5
2695.37	1159
2696.25	1189
2697.14	1170
2698.02	1182.5
2698.9	1186
2699.78	1186
2700.66	1175
2701.54	1167
2702.42	1162.5
2703.3	1148
2704.18	1180.5
2705.06	1187
2705.94	1169.5
2706.82	1178
2707.7	1161
2708.57	1173.5
2709.45	1157
2710.33	1169.5
2711.21	1160
2712.09	1175
2712.97	1139
2713.85	1163.5
2714.72	1152
2715.6	1142
2716.48	1136.5
2717.36	1164.5
2718.24	1164
2719.11	1168
2719.99	1138
2720.87	1152.5
2721.75	1144.5
2722.62	1165
2723.5	1163.5
2724.38	1167.5
2725.25	1144
2726.13	1169
2727.01	1143
2727.88	1134
2728.76	1134
2729.63	1113
2730.51	1147.5
2731.39	1130
2732.26	1118
2733.14	1146
2734.01	1137
2734.89	1132
2735.76	1131
2736.64	1131
2737.51	1115
2738.39	1134.5
2739.26	1122
2740.14	1096
2741.01	1100
2741.89	1115
2742.76	1121
2743.63	1093
2744.51	1100
2745.38	1126
2746.26	1094
2747.13	1119
2748	1116.5
2748.88	1097
2749.75	1083.5
2750.62	1107
2751.5	1141.5
2752.37	1074
2753.24	1107
2754.11	1083
2754.99	1104
2755.86	1086
2756.73	1106
2757.6	1089
2758.47	1083
2759.35	1083
2760.22	1079
2761.09	1080
2761.96	1077
2762.83	1075.5
2763.7	1105
2764.57	1098.5
2765.44	1080
2766.32	1091
2767.19	1086
2768.06	1077
2768.93	1081
2769.8	1077.5
2770.67	1052.5
2771.54	1074
2772.41	1040
2773.28	1072
2774.15	1096
2775.02	1076
2775.89	1067
2776.75	1072
2777.62	1062.5
2778.49	1038
2779.36	1064
2780.23	1053
2781.1	1044
2781.97	1060.5
2782.84	1060
2783.7	1063
2784.57	1039
2785.44	1045
2786.31	1068
2787.18	1038
2788.04	1066.5
2788.91	1048.5
2789.78	1040
2790.64	1040
2791.51	1054
2792.38	1035
2793.24	1047.5
2794.11	1034
2794.98	1034
2795.85	1063.5
2796.71	1047
2797.58	1047
2798.44	1027
2799.31	1026
2800.18	1019
2801.04	1043
2801.91	1058.5
2802.77	1014.5
2803.64	1030.25
2804.5	1041
2805.37	1037
2806.23	1003
2807.1	1024
2807.96	1029.5
2808.83	1022.5
2809.69	1024
2810.55	996
2811.42	1002
2812.28	1021
2813.15	998
2814.01	1006
2814.88	1009.5
2815.74	1011
2816.6	1004.5
2817.46	1024.5
2818.33	1000
2819.19	1013
2820.05	1003
2820.92	997
2821.78	994
2822.64	1011
2823.51	1022
2824.37	1000
2825.23	1021.5
2826.09	999
2826.95	1002
2827.81	997
2828.68	969
2829.54	981
2830.4	980
2831.26	1009
2832.12	1013
2832.98	987
2833.84	1018
2834.71	983.5
2835.57	980
2836.43	974
2837.29	965.5
2838.15	987
2839.01	984
2839.87	994
2840.73	1008
2841.59	976.5
2842.45	988.5
2843.31	993.5
2844.17	974
2845.02	999.5
2845.88	979
2846.74	994
2847.6	984
2848.46	988.5
2849.32	977
2850.18	1008.5
2851.04	970.5
2851.9	971
2852.75	984.5
2853.61	984.5
2854.47	1000
2855.33	961.5
2856.19	978.5
2857.04	973
2857.9	984.5
2858.76	965
2859.61	943
2860.47	985.5
2861.33	980
2862.19	962
2863.04	979
2863.9	977
2864.76	993.5
2865.61	991
2866.47	978
2867.32	954
2868.18	941
2869.04	951
2869.89	962.5
2870.75	970
2871.6	945
2872.46	966
2873.31	977
2874.17	979
2875.02	969
2875.88	978
2876.73	952
2877.59	948.5
2878.44	973
2879.3	964
2880.15	938
2881	975
2881.86	941.5
2882.71	947
2883.57	984
2884.42	962
2885.27	930
2886.13	956
2886.98	966
2887.83	951
2888.69	943
2889.54	963.5
2890.39	938.5
2891.24	955
2892.1	955
2892.95	978.5
2893.8	971.5
2894.65	958.5
2895.51	960
2896.36	953
2897.21	940.5
2898.06	963.5
2898.91	941.5
2899.76	944.5
2900.62	951
2901.47	978
2902.32	935
2903.17	962
2904.02	952.5
2904.87	951
2905.72	935
2906.57	960.5
2907.42	980.5
2908.27	942
2909.12	963.5
2909.97	950
2910.82	953
2911.67	958.5
2912.52	943
2913.37	955
2914.22	968
2915.07	970
2915.92	972
2916.77	956
2917.62	966
2918.47	945
2919.31	952
2920.16	964.5
2921.01	936
2921.86	955
2922.71	953
2923.55	945
2924.4	968.5
2925.25	974
2926.1	952
2926.94	928
2927.79	969
2928.64	960
2929.49	959
2930.33	951
2931.18	943
2932.03	943.5
2932.87	946
2933.72	946
2934.57	940
2935.41	933
2936.26	927
2937.11	919
2937.95	904
2938.8	916
2939.64	908
2940.49	918
2941.33	920
2942.18	900
2943.02	902.5
2943.87	919
2944.71	898
2945.56	912.5
2946.4	876
2947.25	885
2948.09	891.5
2948.94	894.5
2949.78	878.5
2950.63	869
2951.47	881
2952.31	863
2953.16	868.5
2954	854.5
2954.84	875
2955.69	886
2956.53	859
2957.37	863.5
2958.22	852.5
2959.06	858
2959.9	847
2960.75	865.5
2961.59	861
2962.43	860
2963.27	845
2964.11	831
2964.96	867
2965.8	854.5
2966.64	861
2967.48	834
2968.32	832.5
2969.16	840
2970.01	840
2970.85	809
2971.69	827
2972.53	819
2973.37	814
2974.21	811
2975.05	833
2975.89	851.5
2976.73	817
2977.57	828
2978.41	820.5
2979.25	838.5
2980.09	817
2980.93	814
2981.77	801
2982.61	832
2983.45	778
2984.29	795
2985.13	783
2985.97	814.5
2986.81	807.5
2987.65	811
2988.49	768
2989.32	790
2990.16	802
2991	795.5
2991.84	794
2992.68	788
2993.51	752
2994.35	765
2995.19	776
2996.03	760
2996.86	772
2997.7	771.5
2998.54	791.5
2999.38	755
