#Acq. time (s)=	5
#Accumulations=	5
#Range (cm-¹)=	100...3000
#Windows=	3
#Autofocus=	Off
#AutoExposure=	Off
#Spike filter=	Multiple accum.
#Delay time (s)=	0
#Binning=	1
#Readout mode=	Signal
#DeNoise=	Off
#ICS correction=	Off
#Dark correction=	Off
#Inst. Process=	Off
#Instrument=	LabRAM HR Evol
#Detector=	Syncerity OE
#Objective=	x100_VIS_LWD
#Grating=	600 (500nm)
#ND Filter=	100%
#Laser=	633nm_Edge
#Hole=	100.021
#Range=	Visible
#Project=	Omar
#Sample=	chi
#Site=	f
#Title=	nsno
#Remark=	
#Date=	12.09.2023 17:13
#Acquired=	12.09.2023 17:13:30
101.026	3665.5
102.309	3606.5
103.592	3560.5
104.875	3511.5
106.158	3488
107.441	3511
108.723	3430.5
110.005	3378
111.289	3387
112.571	3325.5
113.852	3329
115.134	3254.5
116.415	3270.5
117.696	3212.5
118.976	3199
120.257	3176
121.537	3170
122.817	3135
124.097	3114.5
125.377	3103.5
126.656	3088.5
127.936	3035
129.215	3018.5
130.493	3045
131.772	3017.5
133.049	2989.5
134.327	2937.5
135.605	2924.5
136.883	2914.5
138.161	2876
139.438	2839
140.715	2814.5
141.992	2807
143.269	2754.5
144.545	2725
145.82	2731
147.096	2680
148.372	2665
149.648	2636.5
150.924	2616
152.199	2564.5
153.472	2578
154.747	2507.5
156.022	2513
157.296	2479.5
158.571	2492
159.843	2472.5
161.117	2450
162.391	2474
163.664	2396.5
164.937	2410
166.209	2411.5
167.482	2403.5
168.754	2358.5
170.025	2383.5
171.297	2380
172.569	2328.5
173.841	2349.5
175.111	2339.5
176.383	2330.5
177.654	2313
178.923	2300
180.194	2311
181.464	2316.5
182.733	2324
184.003	2285.5
185.273	2265.5
186.542	2307
187.811	2274
189.079	2267.5
190.348	2303
191.617	2280
192.884	2242.5
194.152	2288.5
195.419	2302
196.687	2307.5
197.955	2291.5
199.221	2299
200.489	2325
201.755	2311.5
203.022	2331
204.287	2337.5
205.554	2345
206.818	2303
208.085	2346
209.349	2295.5
210.615	2341.5
211.879	2325
213.144	2349.5
214.408	2347
215.673	2316
216.936	2342
218.201	2325
219.464	2333.5
220.728	2335
221.99	2336
223.253	2338.5
224.516	2334
225.778	2343
227.041	2329.5
228.303	2371
229.564	2377.5
230.826	2365
232.087	2356
233.348	2367.5
234.61	2359
235.87	2369.5
237.13	2391
238.391	2377
239.651	2392
240.91	2393.5
242.171	2386
243.43	2389
244.689	2376.5
245.949	2428
247.207	2426.5
248.465	2378.5
249.723	2416
250.983	2428
252.24	2429
253.498	2433.5
254.755	2445
256.013	2434
257.27	2447.5
258.526	2426
259.783	2434
261.039	2460.5
262.296	2414.5
263.552	2429
264.808	2456.5
266.063	2429.5
267.318	2411.5
268.573	2421.5
269.828	2421.5
271.084	2416.5
272.338	2431.5
273.592	2455.5
274.846	2477
276.1	2444.5
277.353	2456
278.607	2416.5
279.86	2465
281.113	2459
282.365	2496.5
283.619	2506
284.872	2507
286.124	2520
287.376	2510
288.627	2512
289.879	2515
291.13	2510.5
292.381	2534
293.632	2563.5
294.883	2538
296.133	2582
297.384	2528
298.634	2542.5
299.883	2540.5
301.133	2518.5
302.381	2532.5
303.63	2568.5
304.879	2528.5
306.128	2535
307.377	2505
308.625	2532.5
309.874	2514
311.122	2496
312.37	2506
313.617	2508.5
314.863	2500
316.111	2468
317.358	2517
318.604	2425.5
319.851	2442.5
321.098	2458
322.342	2457.5
323.588	2454
324.834	2430.5
326.08	2448.5
327.325	2424.5
328.569	2416
329.814	2402.5
331.059	2427
332.304	2391.5
333.548	2375.5
334.791	2363.5
336.035	2382
337.279	2357.5
338.521	2357
339.765	2375
341.008	2369.5
342.251	2381.5
343.492	2377
344.735	2390.5
345.977	2372.5
347.218	2375
348.46	2363.5
349.702	2365.5
350.942	2355.5
352.184	2376
353.425	2375.5
354.665	2377
355.905	2389
357.145	2394.5
358.385	2379.5
359.625	2375.5
360.864	2368
362.104	2380
363.342	2392.5
364.581	2391.5
365.819	2391.5
367.058	2404
368.296	2418
369.534	2384
370.771	2391
372.01	2366
373.246	2371.5
374.484	2384
375.72	2408.5
376.958	2368
378.194	2385
379.431	2384
380.666	2403.5
381.903	2374.5
383.138	2400.5
384.374	2392
385.609	2351
386.845	2369.5
388.079	2356
389.313	2384
390.548	2381
391.782	2349
393.016	2358
394.25	2401
395.483	2367
396.718	2384
397.95	2372
399.183	2370
400.416	2371
401.648	2409.5
402.88	2357.5
404.113	2380.5
405.345	2360
406.576	2387.5
407.807	2395.5
409.04	2412.5
410.27	2415
411.501	2414
412.731	2414
413.963	2414
415.193	2427.5
416.422	2431.5
417.652	2434.5
418.883	2435.5
420.112	2416
421.341	2416.5
422.569	2453
423.798	2411.5
425.028	2461
426.256	2445
427.484	2447
428.711	2464
429.939	2459
431.166	2417.5
432.394	2465
433.622	2450.5
434.849	2452
436.075	2483
437.302	2415.5
438.528	2444
439.754	2475
440.98	2468
442.205	2499.5
443.431	2461.5
444.656	2476
445.881	2476.5
447.106	2467
448.33	2454
449.555	2474.5
450.779	2444.5
452.003	2502.5
453.227	2480
454.45	2463.5
455.674	2454.5
456.897	2451.5
458.12	2455.5
459.343	2490.5
460.566	2460
461.788	2445.5
463.01	2458.5
464.232	2476
465.454	2461
466.676	2412
467.897	2476.5
469.119	2484
470.34	2446.5
471.559	2483.5
472.78	2480
474.001	2445.5
475.221	2509
476.441	2485
477.661	2468.5
478.879	2464
480.099	2492.5
481.318	2502
482.537	2452
483.756	2507
484.974	2506.5
486.192	2473
487.411	2511.5
488.629	2521.5
489.847	2562
491.063	2498
492.281	2506
493.498	2540
494.714	2558.5
495.931	2532
497.148	2557
498.365	2523
499.58	2556
500.796	2586
502.012	2552.5
503.226	2540.5
504.442	2549
505.657	2542
506.871	2564.5
508.086	2581.5
509.3	2578
510.515	2570.5
511.729	2556.5
512.942	2572
514.156	2538
515.369	2561
516.582	2578
517.796	2597.5
519.008	2609
520.221	2563
521.433	2583.5
522.645	2578
523.857	2543.5
525.069	2595.5
526.28	2614.5
527.492	2574.5
528.702	2594.5
529.914	2590.5
531.124	2581.5
532.335	2625.5
533.545	2592.5
534.756	2588.5
535.965	2616
537.175	2590.5
538.384	2583
539.593	2617
540.803	2576.5
542.011	2576
543.221	2598
544.429	2593.5
545.636	2608.5
546.845	2605.5
548.052	2582.5
549.261	2572.5
550.468	2612
551.675	2589.5
552.883	2620.5
554.089	2627
555.295	2607.5
556.503	2604.5
557.709	2646
558.914	2591
560.12	2636
561.326	2614
562.531	2637
563.736	2655.5
564.941	2640
566.147	2631.5
567.351	2630.5
568.555	2632
569.759	2627.5
570.964	2651.5
572.168	2625
573.371	2628
574.574	2631
575.777	2627
576.981	2644
578.184	2646.5
579.386	2619.5
580.588	2670
581.79	2653.5
582.992	2659.5
584.194	2665
585.395	2645.5
586.598	2641
587.799	2638
589	2652
590.201	2623.5
591.401	2634.5
592.601	2638
593.801	2661
595.001	2668
596.201	2677
597.401	2668
598.6	2663.5
599.799	2660
600.998	2692
602.197	2674
603.395	2640.5
604.594	2697.5
605.792	2680
606.99	2650
608.188	2679
609.386	2693
610.583	2676
611.78	2746
612.977	2716
614.174	2718.5
615.371	2743
616.566	2758
617.762	2721
618.958	2766
620.154	2723
621.35	2761
622.546	2747.5
623.741	2738.5
624.935	2770
626.13	2792.5
627.325	2734
628.519	2800.5
629.714	2765
630.908	2817
632.101	2782
633.295	2844
634.488	2781
635.682	2794
636.874	2794
638.067	2796.5
639.26	2818.5
640.453	2805
641.644	2838
642.836	2809
644.028	2820
645.219	2819
646.411	2817
647.602	2821
648.792	2808.5
649.984	2800
651.175	2780.5
652.364	2782
653.555	2769.5
654.745	2822.5
655.934	2785
657.124	2753
658.314	2794.5
659.503	2759
660.692	2734
661.88	2729
663.07	2744
664.257	2732.5
665.446	2734
666.635	2701.5
667.822	2729
669.01	2731.5
670.197	2724
671.384	2727.5
672.571	2713.5
673.758	2706.5
674.944	2676.5
676.131	2713
677.317	2693
678.502	2672.5
679.689	2681
680.874	2712.5
682.06	2693.5
683.245	2695
684.431	2688
685.615	2702
686.799	2694.5
687.984	2678
689.168	2701
690.353	2713.5
691.536	2688.5
692.719	2720
693.904	2692.5
695.086	2686.5
696.269	2708.5
697.453	2711
698.635	2694
699.817	2699.5
701	2700.5
702.182	2687.5
703.364	2672
704.545	2701.5
705.727	2670
706.908	2667
708.089	2691.5
709.27	2684.5
710.451	2694
711.632	2690
712.812	2664.5
713.991	2692.5
715.172	2700.5
716.352	2707
717.531	2679.5
718.71	2700.5
719.889	2706.5
721.068	2696
722.248	2713.5
723.426	2713
724.604	2660.5
725.782	2654.5
726.96	2676.5
728.138	2680.5
729.315	2703
730.492	2696.5
731.669	2719.5
732.846	2675.5
734.024	2718
735.201	2693.5
736.377	2709
737.553	2676
738.729	2706.5
739.905	2685
741.081	2701
742.256	2710
743.431	2663.5
744.606	2686.5
745.781	2692.5
746.956	2699
748.13	2722
749.303	2716
750.477	2721
751.651	2696.5
752.825	2734
753.999	2715.5
755.172	2702.5
756.345	2669.5
757.518	2721
758.691	2722.5
759.864	2714
761.035	2673
762.207	2707.5
763.379	2674
764.551	2687
765.723	2701.5
766.894	2713
768.064	2728
769.236	2729.5
770.407	2728
771.577	2711.5
772.748	2695
773.917	2713.5
775.088	2684
776.258	2684
777.427	2722.5
778.596	2737
779.765	2719
780.935	2715
782.104	2736
783.272	2714
784.44	2731
785.609	2718
786.776	2702
787.944	2709
789.113	2722
790.279	2719.5
791.447	2712
792.613	2737
793.78	2703
794.948	2724
796.113	2710.5
797.28	2741
798.445	2738.5
799.612	2729
800.778	2696.5
801.943	2726.5
803.109	2767.5
804.273	2735
805.439	2763
806.603	2747.5
807.768	2744.5
808.932	2771
810.096	2773
811.26	2803
812.424	2760
813.587	2824.5
814.751	2797.5
815.914	2794.5
817.078	2806
818.24	2828.5
819.402	2799
820.565	2823.5
821.727	2800.5
822.889	2814.5
824.051	2823.5
825.212	2812.5
826.374	2850.5
827.535	2833
828.697	2839.5
829.857	2801.5
831.018	2795
832.179	2846
833.339	2800
834.499	2804
835.659	2828
836.819	2839
837.978	2839
839.137	2844
840.297	2851
841.456	2830
842.614	2846
843.772	2871.5
844.932	2839
846.09	2853.5
847.247	2846
848.405	2841
849.562	2840
850.721	2879.5
851.878	2864
853.034	2880
854.191	2874.5
855.348	2851
856.504	2869.5
857.661	2889.5
858.817	2885.5
859.973	2856
861.129	2867
862.284	2834
863.439	2855
864.594	2851
865.749	2839
866.904	2822
868.058	2841
869.212	2856
870.367	2845.5
871.522	2843.5
872.676	2851.5
873.829	2808
874.983	2789
876.136	2822
877.289	2799
878.442	2778
879.593	2800
880.746	2762.5
881.898	2760
883.05	2782
884.202	2764.5
885.354	2778.5
886.506	2785.5
887.657	2761.5
888.808	2752
889.96	2782.5
891.11	2736
892.261	2738.5
893.41	2752.5
894.561	2769
895.711	2744
896.861	2738.5
898.011	2759.5
899.161	2729.5
900.309	2735
901.458	2759
902.607	2743.5
903.756	2738
904.904	2716
906.052	2735
907.201	2708.5
908.349	2706
909.496	2717
910.644	2722
911.791	2704
912.939	2727
914.085	2704.5
915.232	2700.5
916.379	2702.5
917.525	2729
918.671	2716
919.818	2728
920.963	2692
922.109	2724.5
923.255	2727
924.399	2745
925.545	2714.5
926.689	2718.5
927.834	2728
928.979	2740
930.123	2719.5
931.268	2746.5
932.411	2748
933.555	2699.5
934.698	2751
935.842	2743
936.985	2752
938.128	2769.5
939.271	2751
940.414	2730
941.556	2755
942.699	2746.5
943.84	2767
944.983	2744
946.124	2753.5
947.266	2754.5
948.407	2750.5
949.547	2741
950.689	2777
951.829	2789
952.971	2776
954.111	2792.5
955.25	2749
956.391	2808
957.531	2789
958.67	2789.5
959.81	2812
960.949	2772
962.088	2802.5
963.227	2833
964.366	2828
965.504	2802.5
966.643	2787.5
967.781	2779
968.919	2779
970.056	2797.5
971.195	2807.25
972.332	2804.5
973.469	2815.5
974.605	2836
975.743	2794
976.88	2862
978.016	2786
979.152	2846.5
980.288	2828.5
981.423	2877.5
982.56	2860.5
983.696	2862.5
984.831	2845.5
985.966	2866
987.101	2856.5
988.235	2854
989.37	2868.5
990.504	2859.5
991.638	2795.5
992.773	2800.5
993.907	2857
995.041	2859
996.174	2894.5
997.307	2930
998.44	2933.5
999.573	2956
1000.71	2937.5
1001.84	2900
1002.97	2867
1004.1	2840
1005.24	2806.5
1006.37	2781
1007.5	2797.5
1008.63	2759.5
1009.76	2804.5
1010.89	2807
1012.02	2811
1013.15	2751.5
1014.28	2766.5
1015.41	2808
1016.54	2824.5
1017.67	2801.5
1018.8	2800.5
1019.93	2813.5
1021.06	2807
1022.19	2808
1023.32	2825.5
1024.45	2811
1025.58	2843.5
1026.71	2809.5
1027.84	2829
1028.96	2837.5
1030.09	2835
1031.22	2840.5
1032.35	2855.5
1033.47	2817
1034.6	2846.5
1035.73	2835
1036.86	2817
1037.98	2853.5
1039.11	2842.5
1040.23	2852.5
1041.36	2856
1042.49	2911
1043.61	2893.5
1044.74	2847.5
1045.86	2897.5
1046.99	2904.5
1048.11	2877
1049.24	2907.5
1050.36	2885.5
1051.49	2889.5
1052.61	2887
1053.74	2912.5
1054.86	2873.5
1055.98	2918.5
1057.11	2914
1058.23	2908.5
1059.35	2907
1060.48	2894.5
1061.6	2904.5
1062.72	2887.5
1063.84	2862
1064.97	2914.5
1066.09	2925.5
1067.21	2889.5
1068.33	2914
1069.45	2894
1070.57	2883
1071.7	2884
1072.82	2912
1073.94	2902.5
1075.06	2929.5
1076.18	2895.5
1077.3	2936.5
1078.42	2887.5
1079.54	2890
1080.66	2904.5
1081.78	2897
1082.9	2877
1084.02	2876
1085.14	2884
1086.25	2876
1087.37	2891
1088.49	2886
1089.61	2874
1090.73	2874.5
1091.84	2858.5
1092.96	2854
1094.08	2867.5
1095.2	2853.5
1096.31	2855
1097.43	2856.5
1098.55	2884.5
1099.66	2874.5
1100.78	2897.5
1101.9	2863.5
1103.01	2857
1104.13	2867.5
1105.25	2826
1106.36	2889
1107.48	2895
1108.59	2870
1109.71	2850.5
1110.82	2845
1111.93	2893.5
1113.05	2900.5
1114.16	2873
1115.28	2910
1116.39	2893
1117.51	2911.5
1118.62	2911.5
1119.73	2893
1120.85	2886
1121.96	2915
1123.07	2891
1124.18	2922
1125.3	2888.5
1126.41	2886.5
1127.52	2933
1128.63	2914.5
1129.74	2930
1130.85	2921.5
1131.97	2929
1133.08	2937.5
1134.19	2935.5
1135.3	2920
1136.41	2952
1137.52	2981
1138.63	2945.5
1139.74	2964.5
1140.85	2963.5
1141.96	2971.5
1143.07	2978
1144.18	2972
1145.29	3015
1146.4	3027.5
1147.51	3018.5
1148.61	3067
1149.72	3077
1150.83	3057.5
1151.94	3080.5
1153.05	3058
1154.15	3116
1155.26	3117.5
1156.37	3150
1157.48	3124.5
1158.58	3149
1159.69	3120
1160.8	3154.5
1161.9	3146
1163.01	3170.5
1164.11	3168
1165.22	3164
1166.33	3198
1167.43	3235.5
1168.54	3223.5
1169.64	3194
1170.75	3178
1171.85	3241
1172.96	3186
1174.06	3176.5
1175.17	3207.5
1176.27	3176
1177.37	3190.5
1178.48	3179.5
1179.58	3127
1180.68	3148
1181.79	3170
1182.89	3183.5
1183.99	3143
1185.1	3126
1186.2	3116
1187.3	3134.5
1188.4	3122
1189.5	3105
1190.61	3119.5
1191.71	3109.5
1192.81	3113
1193.91	3103
1195.01	3112
1196.11	3086.96
1197.21	3089.75
1198.31	3099.39
1199.42	3101
1200.51	3091.29
1201.61	3102.9
1202.72	3081.32
1203.81	3082.16
1204.91	3093.5
1206.01	3113.58
1207.11	3111.69
1208.21	3113.23
1209.31	3120.93
1210.41	3120.52
1211.51	3132.69
1212.61	3098.74
1213.7	3108.57
1214.8	3116.41
1215.9	3113.3
1217	3091.37
1218.09	3113.92
1219.19	3098.93
1220.29	3102.29
1221.38	3092.39
1222.48	3089.42
1223.58	3087.01
1224.67	3089.41
1225.77	3097.78
1226.87	3081.75
1227.96	3099.26
1229.06	3092.46
1230.15	3090.99
1231.25	3073.49
1232.34	3102.77
1233.44	3101.49
1234.53	3098.33
1235.63	3099.5
1236.72	3089.54
1237.81	3115.74
1238.91	3108.75
1240	3096.92
1241.1	3100.18
1242.19	3100.83
1243.28	3115
1244.38	3126.69
1245.47	3121.66
1246.56	3116.61
1247.65	3108.73
1248.75	3131.82
1249.84	3154.14
1250.93	3161.16
1252.02	3106.02
1253.11	3151.1
1254.21	3153.81
1255.3	3164.51
1256.39	3157.21
1257.48	3143.54
1258.57	3173.67
1259.66	3203.34
1260.75	3180.99
1261.84	3191.96
1262.93	3210.57
1264.02	3193.27
1265.11	3197.43
1266.2	3213.68
1267.29	3221.89
1268.38	3226.77
1269.47	3230.78
1270.56	3221.99
1271.65	3226.98
1272.73	3217.03
1273.82	3205.4
1274.91	3221.03
1276	3250.83
1277.09	3248.13
1278.17	3243.16
1279.26	3242.86
1280.35	3251.52
1281.43	3235.23
1282.52	3247.84
1283.61	3240.05
1284.69	3250.3
1285.78	3262.12
1286.87	3242.03
1287.95	3284.49
1289.04	3292.03
1290.13	3286.28
1291.21	3272.34
1292.3	3265.84
1293.38	3255.19
1294.47	3273.23
1295.55	3264.39
1296.64	3245.14
1297.72	3292.56
1298.8	3261.28
1299.89	3246.63
1300.97	3218.47
1302.06	3228.69
1303.14	3247.26
1304.22	3231.45
1305.31	3222.02
1306.39	3257.15
1307.34	3264
1308.43	3238.5
1309.52	3227.5
1310.6	3220.5
1311.69	3215
1312.78	3235
1313.87	3206
1314.96	3232.5
1316.04	3239
1317.13	3232
1318.21	3232
1319.3	3187
1320.39	3226.5
1321.47	3220
1322.56	3209.5
1323.65	3240
1324.73	3214
1325.82	3242
1326.9	3210.5
1327.99	3215
1329.07	3216
1330.16	3256.5
1331.24	3235.5
1332.32	3235.5
1333.41	3225.5
1334.49	3225
1335.58	3242.5
1336.66	3191
1337.74	3244
1338.83	3183.5
1339.91	3190.5
1340.99	3199
1342.08	3190
1343.16	3166
1344.24	3165.5
1345.32	3192.5
1346.41	3186
1347.49	3183
1348.57	3137.5
1349.65	3136
1350.73	3128
1351.81	3063.5
1352.9	3124.5
1353.98	3105
1355.06	3083
1356.14	3098
1357.22	3115.5
1358.3	3103
1359.38	3084
1360.46	3112.5
1361.54	3128
1362.62	3072.5
1363.7	3092
1364.78	3078
1365.85	3094
1366.93	3096.5
1368.01	3074
1369.09	3118
1370.17	3107.5
1371.25	3110
1372.33	3070
1373.4	3060
1374.48	3074
1375.56	3017
1376.64	3064
1377.71	3039
1378.79	3062
1379.87	3032.5
1380.94	3063.5
1382.02	3053
1383.1	3040.5
1384.17	3003
1385.25	3075
1386.32	3009
1387.4	3019.5
1388.47	2985.5
1389.55	3022.5
1390.63	2979
1391.7	3051.5
1392.77	3029
1393.85	3008
1394.92	3006.5
1396	3027.5
1397.07	3031.5
1398.15	3021.5
1399.22	3084.5
1400.29	3009
1401.37	3052.5
1402.44	3037
1403.51	3034.5
1404.59	3065.5
1405.66	3057
1406.73	3048.5
1407.8	3082
1408.87	3080
1409.95	3085
1411.02	3092
1412.09	3108.5
1413.16	3112.5
1414.23	3141.5
1415.3	3108
1416.38	3130.5
1417.45	3113.5
1418.52	3135
1419.59	3117
1420.66	3100.5
1421.73	3122.5
1422.8	3124.5
1423.87	3161.5
1424.94	3101.5
1426.01	3129
1427.08	3160
1428.15	3149
1429.21	3115
1430.28	3159.5
1431.35	3171.5
1432.42	3193.5
1433.49	3198
1434.56	3184
1435.63	3186.5
1436.69	3182
1437.76	3221
1438.83	3205.5
1439.89	3240
1440.96	3220.5
1442.03	3258
1443.1	3246
1444.16	3254
1445.23	3233
1446.3	3254.5
1447.36	3299.5
1448.43	3331.5
1449.49	3310
1450.56	3346
1451.62	3343
1452.69	3352.5
1453.75	3365.5
1454.82	3311.5
1455.88	3308
1456.95	3363
1458.01	3368
1459.08	3334
1460.14	3344
1461.2	3361
1462.27	3390.5
1463.33	3348
1464.4	3402
1465.46	3360.5
1466.52	3382
1467.58	3402
1468.65	3397
1469.71	3389.5
1470.77	3417.5
1471.83	3437
1472.9	3407.5
1473.96	3444.5
1475.02	3404.5
1476.08	3419.5
1477.14	3444
1478.2	3454
1479.27	3433.5
1480.33	3397
1481.39	3413
1482.45	3436
1483.51	3459.5
1484.57	3452.5
1485.63	3473
1486.69	3443
1487.75	3433.5
1488.81	3408.5
1489.87	3445
1490.93	3375
1491.99	3375
1493.04	3406.5
1494.1	3370
1495.16	3370.5
1496.22	3406
1497.28	3391
1498.34	3393
1499.39	3370
1500.45	3369
1501.51	3383.5
1502.57	3335.5
1503.62	3364
1504.68	3343.5
1505.74	3266.5
1506.79	3356.5
1507.85	3341.5
1508.91	3273
1509.96	3330
1511.02	3312
1512.07	3335.5
1513.13	3312.5
1514.19	3304.5
1515.24	3353.5
1516.3	3394
1517.35	3302
1518.41	3341.5
1519.46	3343
1520.52	3336.5
1521.57	3371
1522.62	3329.5
1523.68	3366
1524.73	3368.5
1525.79	3367.5
1526.84	3351
1527.89	3346.5
1528.95	3371.5
1530	3376
1531.05	3356
1532.1	3346.5
1533.16	3355.5
1534.21	3362
1535.26	3364
1536.31	3383.5
1537.37	3323
1538.42	3393.5
1539.47	3366.5
1540.52	3381
1541.57	3417.5
1542.62	3378.5
1543.67	3402.5
1544.72	3368.5
1545.78	3405.5
1546.83	3399
1547.88	3421.5
1548.93	3448
1549.98	3337
1551.03	3430
1552.07	3414.5
1553.12	3395
1554.17	3426.5
1555.22	3407.5
1556.27	3416
1557.32	3429
1558.37	3427.5
1559.42	3370
1560.47	3385.5
1561.51	3428.5
1562.56	3413
1563.61	3383.5
1564.66	3384
1565.7	3422
1566.75	3397
1567.8	3384.5
1568.85	3420
1569.89	3385.5
1570.94	3398
1571.98	3346.5
1573.03	3371.5
1574.08	3342.5
1575.12	3409
1576.17	3384
1577.21	3392
1578.26	3358
1579.31	3323
1580.35	3349
1581.4	3358
1582.44	3356
1583.49	3378
1584.53	3355.5
1585.57	3352
1586.62	3347
1587.66	3344
1588.71	3369.5
1589.75	3360
1590.79	3367
1591.84	3346
1592.88	3334
1593.92	3380.5
1594.97	3351
1596.01	3384
1597.05	3345.5
1598.09	3344
1599.14	3343.5
1600.18	3289
1601.22	3312
1602.26	3283
1603.3	3243.5
1604.34	3266.5
1605.38	3205.5
1606.43	3218.5
1607.47	3185.5
1608.51	3157.5
1609.55	3106.5
1610.59	3106
1611.63	3098.5
1612.67	3089.5
1613.71	3080
1614.75	3044.5
1615.79	2985.5
1616.83	2991
1617.87	2955.5
1618.91	2922
1619.94	2926.5
1620.98	2854.5
1622.02	2865
1623.06	2817.5
1624.1	2793
1625.14	2796
1626.17	2812.5
1627.21	2776
1628.25	2769.5
1629.29	2730.5
1630.32	2685
1631.36	2692
1632.4	2660.5
1633.43	2654
1634.47	2586.5
1635.51	2594.5
1636.54	2606
1637.58	2576
1638.62	2560
1639.65	2573
1640.69	2517.5
1641.72	2497.5
1642.76	2517
1643.79	2476
1644.83	2485.5
1645.86	2460
1646.9	2417.5
1647.93	2392
1648.97	2429.5
1650	2448
1651.04	2391
1652.07	2377.5
1653.1	2354
1654.14	2356
1655.17	2303
1656.2	2337.5
1657.24	2314.5
1658.27	2299.5
1659.3	2309.5
1660.34	2296
1661.37	2268.5
1662.4	2219.5
1663.43	2247.5
1664.46	2264
1665.5	2206
1666.53	2208
1667.56	2251
1668.59	2211.5
1669.62	2204
1670.65	2183
1671.68	2213.5
1672.71	2196
1673.74	2186
1674.77	2202.5
1675.8	2154
1676.83	2170.5
1677.86	2143.5
1678.89	2176.5
1679.92	2165
1680.95	2139.5
1681.98	2112
1683.01	2114
1684.04	2146
1685.07	2137
1686.1	2106
1687.13	2094.5
1688.15	2100.5
1689.18	2061
1690.21	2099
1691.24	2080
1692.27	2094
1693.29	2071.5
1694.32	2062
1695.35	2059.5
1696.37	2046
1697.4	2041
1698.43	2031.5
1699.45	2054.5
1700.48	2045.5
1701.51	2044.5
1702.53	2042.5
1703.56	1992.5
1704.58	2022
1705.61	2009
1706.64	1994
1707.66	2010
1708.69	2027.5
1709.71	1975.5
1710.73	1968.5
1711.76	1980.5
1712.78	1991.5
1713.81	1987
1714.83	1963.5
1715.86	1977.5
1716.88	1999
1717.9	1947.5
1718.93	1953
1719.95	1954
1720.97	1939.5
1722	1935.5
1723.02	1939
1724.04	1933
1725.06	1973
1726.09	1900.5
1727.11	1956
1728.13	1941
1729.15	1871.5
1730.17	1902.5
1731.2	1932.5
1732.22	1919.5
1733.24	1940
1734.26	1937
1735.28	1939
1736.3	1875.5
1737.32	1911.5
1738.34	1899
1739.36	1888.5
1740.38	1875.5
1741.4	1875
1742.42	1902.5
1743.44	1897
1744.46	1851.5
1745.48	1843
1746.5	1856.5
1747.52	1889.5
1748.54	1840
1749.56	1872.5
1750.57	1857
1751.59	1846.5
1752.61	1818.5
1753.63	1844.5
1754.65	1847.5
1755.66	1829.5
1756.68	1827
1757.7	1837
1758.72	1819.5
1759.73	1805
1760.75	1810
1761.77	1807
1762.78	1814.5
1763.8	1815
1764.82	1816
1765.83	1780.5
1766.85	1791.5
1767.86	1768
1768.88	1809.5
1769.9	1781
1770.91	1748.5
1771.93	1780
1772.94	1770.5
1773.96	1747.5
1774.97	1755.5
1775.99	1775
1777	1744.5
1778.01	1739.5
1779.03	1756
1780.04	1742.5
1781.06	1750.5
1782.07	1744
1783.08	1747
1784.1	1750.5
1785.11	1744
1786.12	1759
1787.14	1740.5
1788.15	1714.5
1789.16	1711.5
1790.17	1725.5
1791.18	1711.5
1792.2	1709
1793.21	1688
1794.22	1712
1795.23	1720
1796.24	1684.5
1797.26	1689
1798.27	1679.5
1799.28	1679.5
1800.29	1712
1801.3	1719.5
1802.31	1672
1803.32	1690
1804.33	1679
1805.34	1709
1806.35	1685
1807.36	1670.5
1808.37	1683
1809.38	1698
1810.39	1629.5
1811.4	1622.5
1812.4	1651
1813.41	1682
1814.42	1682.5
1815.43	1688.5
1816.44	1673.5
1817.45	1674
1818.45	1659.5
1819.46	1655.5
1820.47	1658.5
1821.48	1664
1822.49	1651.5
1823.49	1649.5
1824.5	1601
1825.51	1620.5
1826.51	1638
1827.52	1604
1828.53	1646.5
1829.53	1587
1830.54	1602
1831.54	1631.5
1832.55	1582.5
1833.56	1589
1834.56	1594.5
1835.57	1629
1836.57	1617
1837.58	1615
1838.58	1627
1839.59	1624
1840.59	1615.5
1841.59	1594
1842.6	1594
1843.6	1589
1844.61	1593.5
1845.61	1568
1846.61	1600
1847.62	1575
1848.62	1600.5
1849.62	1565.5
1850.63	1566.5
1851.63	1556.5
1852.63	1588.5
1853.64	1539
1854.64	1588.5
1855.64	1557
1856.64	1548
1857.64	1543
1858.65	1590.5
1859.65	1559
1860.65	1579.5
1861.65	1566
1862.65	1558.5
1863.65	1531.5
1864.65	1549
1865.65	1551
1866.65	1530.5
1867.65	1533.5
1868.65	1542
1869.65	1541.5
1870.65	1542.5
1871.65	1528.5
1872.65	1550.5
1873.65	1518.5
1874.65	1517
1875.65	1542.5
1876.65	1512
1877.65	1522.5
1878.65	1520
1879.65	1536.5
1880.65	1518.5
1881.64	1513.5
1882.64	1543
1883.64	1524.5
1884.64	1533
1885.63	1508.5
1886.63	1495.5
1887.63	1491.5
1888.63	1518
1889.62	1502.5
1890.62	1530.5
1891.62	1529.5
1892.61	1516.5
1893.61	1546
1894.61	1490
1895.6	1491
1896.6	1501
1897.59	1468
1898.59	1498.5
1899.58	1490
1900.58	1516
1901.57	1498.5
1902.57	1495.5
1903.56	1488.5
1904.56	1471
1905.55	1511.5
1906.55	1491
1907.54	1499
1908.54	1503.5
1909.53	1481
1910.52	1479.5
1911.52	1492.5
1912.51	1479
1913.5	1484.5
1914.5	1495
1915.49	1463
1916.48	1471
1917.48	1451
1918.47	1471
1919.46	1506.5
1920.45	1467
1921.44	1457.5
1922.44	1454
1923.43	1487.5
1924.42	1483
1925.41	1458
1926.4	1465.5
1927.39	1451
1928.38	1444.5
1929.38	1449
1930.37	1470.5
1931.36	1447.5
1932.35	1430
1933.34	1466
1934.33	1470.5
1935.32	1460.5
1936.31	1453.5
1937.3	1444.5
1938.29	1466
1939.28	1444
1940.26	1471
1941.25	1448.5
1942.24	1447
1943.23	1467.5
1944.22	1467
1945.21	1408
1946.2	1427.5
1947.18	1426
1948.17	1423.5
1949.16	1432
1950.15	1439.5
1951.13	1436
1952.12	1412
1953.11	1437.5
1954.1	1404.5
1955.08	1393
1956.07	1416.5
1957.06	1393
1958.04	1406.5
1959.03	1419.5
1960.01	1401.5
1961	1434
1961.99	1410.5
1962.97	1411
1963.96	1385
1964.94	1388.5
1965.93	1396.5
1966.91	1398
1967.9	1391.5
1968.88	1412.5
1969.87	1416
1970.85	1419.5
1971.84	1404.5
1972.82	1394
1973.81	1400.5
1974.79	1385
1975.77	1396.5
1976.76	1398.5
1977.74	1397
1978.72	1402.5
1979.71	1403.5
1980.69	1394.5
1981.67	1339.5
1982.65	1393
1983.64	1382
1984.62	1371
1985.6	1341.5
1986.58	1368
1987.56	1383.5
1988.55	1359
1989.53	1397
1990.51	1348
1991.49	1376.5
1992.47	1390
1993.45	1347.5
1994.43	1341
1995.41	1353.5
1996.39	1363.5
1997.37	1368.5
1998.36	1354
1999.34	1332.5
2000.31	1354
2001.29	1364
2002.27	1356
2003.25	1367
2004.23	1386
2005.21	1384
2006.19	1379
2007.17	1354.5
2008.15	1332.5
2009.13	1371
2010.11	1338
2011.08	1332
2012.06	1343.5
2013.04	1363.5
2014.02	1346
2015	1328.5
2015.97	1361
2016.95	1364
2017.93	1361
2018.91	1340.5
2019.88	1339.5
2020.86	1337.5
2021.83	1311
2022.81	1321
2023.79	1340.5
2024.76	1317
2025.74	1306
2026.72	1339.5
2027.69	1343
2028.67	1300.5
2029.64	1311
2030.62	1330
2031.59	1327
2032.57	1322.5
2033.54	1297.5
2034.52	1333
2035.49	1314
2036.47	1295.5
2037.44	1321.5
2038.41	1330
2039.39	1315.5
2040.36	1320
2041.34	1311
2042.31	1304
2043.28	1291
2044.26	1299
2045.23	1307.5
2046.2	1295.5
2047.17	1306
2048.15	1292.5
2049.12	1292.5
2050.09	1301
2051.06	1282.5
2052.04	1285.5
2053.01	1281.5
2053.98	1268
2054.95	1284.5
2055.92	1270.5
2056.89	1273
2057.86	1301
2058.84	1271
2059.81	1263
2060.78	1253
2061.75	1277
2062.72	1277.5
2063.69	1292.5
2064.66	1279.5
2065.63	1280.5
2066.6	1263.5
2067.57	1253.5
2068.54	1253.5
2069.51	1272
2070.48	1270.5
2071.44	1226.5
2072.41	1270.5
2073.38	1291
2074.35	1277.5
2075.32	1262
2076.29	1286.5
2077.26	1265.5
2078.22	1262.5
2079.19	1272.5
2080.16	1240
2081.13	1248
2082.09	1242.5
2083.06	1235
2084.03	1260.5
2085	1254.5
2085.96	1253
2086.93	1242
2087.9	1235.5
2088.86	1241.5
2089.83	1254.5
2090.79	1246
2091.76	1234.5
2092.73	1237
2093.69	1246.5
2094.66	1242.5
2095.62	1275.5
2096.59	1255.5
2097.55	1257.5
2098.52	1243.5
2099.48	1244.5
2100.45	1263
2101.41	1277.5
2102.38	1284.5
2103.34	1314
2104.3	1297
2105.27	1303.5
2106.23	1337
2107.19	1296
2108.16	1331.5
2109.12	1367
2110.08	1397.5
2111.05	1385.5
2112.01	1414.5
2112.97	1430.5
2113.94	1444
2114.9	1475.5
2115.86	1504
2116.82	1531.5
2117.78	1574
2118.75	1595
2119.71	1611
2120.67	1671
2121.63	1679
2122.59	1719
2123.55	1766
2124.51	1782
2125.47	1797
2126.43	1795.5
2127.4	1838.5
2128.36	1872
2129.32	1869
2130.28	1865
2131.24	1859
2132.2	1835
2133.16	1813
2134.11	1794
2135.07	1751
2136.03	1688.5
2136.99	1645.5
2137.95	1640
2138.91	1605
2139.87	1553
2140.83	1503.5
2141.78	1476.5
2142.74	1437.5
2143.7	1451.5
2144.66	1396
2145.62	1368.27
2146.57	1368.5
2147.53	1314.18
2148.49	1318.51
2149.45	1306.85
2150.4	1302.56
2151.36	1278.3
2152.32	1272.68
2153.27	1249.11
2154.23	1244.29
2155.19	1234.95
2156.14	1242.27
2157.1	1215.96
2158.05	1221.99
2159.01	1217.8
2159.96	1192.44
2160.92	1207.93
2161.88	1184.28
2162.83	1196.55
2163.78	1186.37
2164.74	1183.19
2165.69	1165.7
2166.65	1155.94
2167.6	1164.99
2168.56	1155.09
2169.51	1141.74
2170.47	1117.4
2171.42	1140.08
2172.37	1143.62
2173.33	1134.6
2174.28	1109.66
2175.23	1125.06
2176.19	1131.65
2177.14	1121
2178.09	1125.54
2179.04	1120.19
2180	1118.53
2180.95	1117.04
2181.9	1124.45
2182.85	1091.25
2183.81	1105.31
2184.76	1121.5
2185.71	1105.71
2186.66	1102.58
2187.61	1093.92
2188.56	1093.08
2189.51	1097.44
2190.46	1102.07
2191.42	1084.85
2192.37	1098.5
2193.32	1088.04
2194.27	1098.65
2195.22	1095.95
2196.17	1095.82
2197.12	1086.5
2198.07	1085.84
2199.02	1081.95
2199.97	1076.98
2200.92	1082.79
2201.86	1074.53
2202.81	1081.09
2203.76	1082.81
2204.71	1077.9
2205.66	1077.81
2206.61	1079.61
2207.56	1072.4
2208.5	1066.8
2209.45	1074.47
2210.4	1062.13
2211.35	1067.26
2212.3	1074.63
2213.24	1068.07
2214.19	1074.9
2215.14	1076.44
2216.08	1059.53
2217.03	1059.71
2217.98	1056.03
2218.92	1062.74
2219.87	1051.24
2220.82	1052.21
2221.76	1056.68
2222.71	1050.89
2223.65	1063.54
2224.6	1064.09
2225.55	1056.65
2226.49	1070.98
2227.44	1060.17
2228.38	1041.47
2229.33	1049.93
2230.27	1054.73
2231.22	1057
2232.16	1047.18
2233.11	1054.16
2234.05	1058.31
2234.99	1053.02
2235.94	1059.86
2236.88	1055.04
2237.83	1046.12
2238.77	1046.13
2239.71	1049.26
2240.66	1049.97
2241.6	1048.83
2242.06	1052
2243.01	1066.5
2243.96	1073.5
2244.91	1077
2245.85	1050
2246.8	1070
2247.75	1037.5
2248.7	1051.5
2249.64	1053
2250.59	1067
2251.54	1048.5
2252.48	1042
2253.43	1037
2254.38	1056
2255.32	1039
2256.27	1048
2257.21	1016
2258.16	1031.5
2259.1	1019.5
2260.05	1018.5
2260.99	1020
2261.94	1014.5
2262.89	1008
2263.83	1018
2264.77	1017
2265.72	1010
2266.66	1007.5
2267.61	1007
2268.55	989
2269.5	986.5
2270.44	994.5
2271.38	1004.5
2272.33	994
2273.27	985.5
2274.21	986.5
2275.16	989
2276.1	997
2277.04	990.5
2277.98	1003.5
2278.93	969
2279.87	997.5
2280.81	988.5
2281.75	978
2282.7	979
2283.64	977
2284.58	952
2285.52	993
2286.46	980.5
2287.4	982
2288.34	986
2289.29	993.5
2290.23	977
2291.17	982
2292.11	973
2293.05	963
2293.99	984.5
2294.93	966
2295.87	962
2296.81	966.5
2297.75	965
2298.69	973
2299.63	946
2300.57	951
2301.51	963
2302.44	954
2303.38	955.5
2304.32	959
2305.26	961
2306.2	957
2307.14	964
2308.08	963
2309.01	953
2309.95	960.5
2310.89	957
2311.83	934
2312.77	956.5
2313.7	950
2314.64	934.5
2315.58	933
2316.51	927
2317.45	945
2318.39	922.5
2319.32	938.5
2320.26	940.5
2321.2	959
2322.13	953.5
2323.07	948
2324	912
2324.94	945.5
2325.88	942
2326.81	920
2327.75	952.5
2328.68	939
2329.62	929.5
2330.55	950
2331.49	940.5
2332.42	930
2333.35	926
2334.29	917
2335.22	936
2336.16	932
2337.09	930
2338.02	944
2338.96	918
2339.89	900
2340.82	916
2341.76	919.5
2342.69	925
2343.62	910
2344.56	909
2345.49	921.5
2346.42	929.5
2347.35	913.5
2348.29	910.5
2349.22	924.5
2350.15	914
2351.08	924
2352.01	894
2352.94	910
2353.88	905.5
2354.81	908.5
2355.74	917
2356.67	898.5
2357.6	900
2358.53	912.5
2359.46	902.5
2360.39	912.5
2361.32	918
2362.25	910
2363.18	903
2364.11	906.5
2365.04	917.5
2365.97	921
2366.9	916.5
2367.83	912
2368.76	891.5
2369.69	912
2370.62	892.5
2371.55	889
2372.47	908
2373.4	901.5
2374.33	904
2375.26	885.5
2376.19	871
2377.11	902
2378.04	911.5
2378.97	910.5
2379.9	900.5
2380.83	890
2381.75	879
2382.68	877.5
2383.61	871
2384.53	872
2385.46	868.5
2386.39	888
2387.31	893
2388.24	889.5
2389.17	890.5
2390.09	877.5
2391.02	879
2391.94	875
2392.87	887
2393.79	885
2394.72	866
2395.64	864
2396.57	876
2397.49	887.5
2398.42	873
2399.34	855
2400.27	883.5
2401.19	870.5
2402.12	874.5
2403.04	881
2403.96	830
2404.89	871
2405.81	879
2406.74	860
2407.66	876
2408.58	876
2409.51	872
2410.43	879.5
2411.35	878
2412.27	870.5
2413.2	882.5
2414.12	866.5
2415.04	845
2415.96	858.5
2416.89	853
2417.81	846
2418.73	859.5
2419.65	856.5
2420.57	857
2421.49	875.5
2422.41	861
2423.34	866
2424.26	875.5
2425.18	856
2426.1	869.5
2427.02	854.5
2427.94	868.5
2428.86	849.5
2429.78	855
2430.7	853
2431.62	844
2432.54	840
2433.46	840
2434.38	840.5
2435.3	830.5
2436.22	829.5
2437.13	825
2438.05	858.5
2438.97	849
2439.89	858
2440.81	861.5
2441.73	824
2442.65	844.5
2443.56	851.5
2444.48	838
2445.4	827.5
2446.32	842.5
2447.24	846.5
2448.15	837
2449.07	833
2449.99	832.5
2450.9	809.5
2451.82	832
2452.74	836
2453.65	823.5
2454.57	833.5
2455.49	826.5
2456.4	838
2457.32	828
2458.23	833
2459.15	826
2460.07	827
2460.98	826.5
2461.9	822
2462.81	825.5
2463.73	818.5
2464.64	825.5
2465.56	845
2466.47	820
2467.39	798
2468.3	820
2469.21	819.5
2470.13	840
2471.04	815.5
2471.96	808
2472.87	810.5
2473.78	817.5
2474.7	813
2475.61	811.5
2476.52	837
2477.44	830.5
2478.35	803
2479.26	808.5
2480.17	811.5
2481.09	821.5
2482	811.5
2482.91	811
2483.82	807
2484.74	810
2485.65	799.5
2486.56	803
2487.47	789
2488.38	820
2489.29	808
2490.21	803.5
2491.12	795
2492.03	797
2492.94	800.5
2493.85	810
2494.76	806
2495.67	814.5
2496.58	812
2497.49	808
2498.4	795.5
2499.31	796
2500.22	778.5
2501.13	798
2502.04	791.5
2502.95	799.5
2503.86	795
2504.76	796.5
2505.67	780.5
2506.58	789
2507.49	800.5
2508.4	780.5
2509.31	785
2510.22	767
2511.12	794
2512.03	793.5
2512.94	792.5
2513.85	793
2514.76	802.5
2515.66	786.5
2516.57	795.5
2517.48	793
2518.38	779
2519.29	792.5
2520.2	765
2521.1	775
2522.01	785.5
2522.92	758
2523.82	764
2524.73	785
2525.64	777.5
2526.54	771
2527.45	787
2528.35	754
2529.26	775
2530.16	793
2531.07	777.5
2531.97	780
2532.88	776
2533.78	770
2534.69	765.5
2535.59	767.5
2536.5	769.5
2537.4	770.5
2538.31	751
2539.21	764
2540.11	768.5
2541.02	762.5
2541.92	754
2542.82	751
2543.73	763.5
2544.63	755
2545.53	743
2546.44	755.5
2547.34	746
2548.24	759.5
2549.14	745.5
2550.05	747
2550.95	753.5
2551.85	747
2552.75	745
2553.65	754
2554.56	763
2555.46	762.5
2556.36	757.5
2557.26	748.5
2558.16	745.5
2559.06	738
2559.96	728
2560.86	748.5
2561.76	733
2562.67	739
2563.57	731
2564.47	737.5
2565.37	765.5
2566.27	747.5
2567.17	756
2568.06	753
2568.96	720
2569.86	740.5
2570.76	734
2571.66	737
2572.56	729
2573.46	737
2574.36	739.5
2575.26	720.5
2576.16	748
2577.05	748
2577.95	738.5
2578.85	747
2579.75	745
2580.65	726.5
2581.54	746
2582.44	734
2583.34	731
2584.24	733
2585.13	738.5
2586.03	725
2586.93	722
2587.83	722
2588.72	730.5
2589.62	728.5
2590.51	708.5
2591.41	732
2592.31	717
2593.2	715
2594.1	735
2594.99	705.5
2595.89	718
2596.79	701
2597.68	702.5
2598.58	717
2599.47	728
2600.37	717
2601.26	724.5
2602.16	721
2603.05	688
2603.94	727
2604.84	714
2605.73	729
2606.63	702.5
2607.52	704.5
2608.42	715
2609.31	724
2610.2	705
2611.1	709.5
2611.99	713
2612.88	705
2613.78	710.5
2614.67	699
2615.56	705.5
2616.45	712
2617.35	700
2618.24	695
2619.13	678
2620.02	704
2620.91	700.5
2621.81	698
2622.7	692.5
2623.59	702.5
2624.48	717
2625.37	705
2626.26	700.5
2627.15	692.5
2628.04	681
2628.94	695
2629.83	689.5
2630.72	689
2631.61	696
2632.5	694.5
2633.39	675
2634.28	697.5
2635.17	689
2636.06	678
2636.95	688
2637.84	687.5
2638.73	681
2639.61	680
2640.5	684
2641.39	676
2642.28	673
2643.17	695.5
2644.06	679.5
2644.95	669
2645.84	675.5
2646.72	687.5
2647.61	670
2648.5	693.5
2649.39	678.5
2650.28	669
2651.16	667
2652.05	674.5
2652.94	692.5
2653.82	665.5
2654.71	667
2655.6	666.5
2656.49	657.5
2657.37	658
2658.26	671
2659.14	665.5
2660.03	664
2660.92	659.5
2661.8	670
2662.69	675
2663.57	680.5
2664.46	657.5
2665.35	653
2666.23	652
2667.12	670
2668	657
2668.89	645.5
2669.77	677.5
2670.66	682
2671.54	667
2672.42	669.5
2673.31	667.5
2674.19	663
2675.08	649.5
2675.96	650.5
2676.84	656
2677.73	655
2678.61	654.5
2679.49	653.5
2680.38	650
2681.26	666
2682.14	648.5
2683.03	659
2683.91	668
2684.79	650
2685.68	657.5
2686.56	661.5
2687.44	657.5
2688.32	648
2689.2	655.5
2690.09	647
2690.97	654
2691.85	634
2692.73	634.5
2693.61	641
2694.49	643
2695.37	644.5
2696.25	651
2697.14	638
2698.02	643
2698.9	648.5
2699.78	621.5
2700.66	642.5
2701.54	639
2702.42	642
2703.3	642.5
2704.18	651
2705.06	632.5
2705.94	650.5
2706.82	630
2707.7	637.5
2708.57	633
2709.45	631
2710.33	623
2711.21	630
2712.09	645.5
2712.97	627
2713.85	633.5
2714.72	631.5
2715.6	627
2716.48	615
2717.36	633
2718.24	637.5
2719.11	622
2719.99	618
2720.87	626
2721.75	625.5
2722.62	621
2723.5	639.5
2724.38	622
2725.25	623
2726.13	630.5
2727.01	633.5
2727.88	613.5
2728.76	628
2729.63	631.5
2730.51	624
2731.39	615
2732.26	630.5
2733.14	614
2734.01	623
2734.89	629
2735.76	615
2736.64	632
2737.51	621.5
2738.39	618.5
2739.26	611
2740.14	615
2741.01	606
2741.89	610
2742.76	611.5
2743.63	600
2744.51	600.5
2745.38	606.5
2746.26	594
2747.13	605.5
2748	583
2748.88	606.5
2749.75	601.5
2750.62	620
2751.5	611
2752.37	592.5
2753.24	606
2754.11	591
2754.99	597
2755.86	586
2756.73	566
2757.6	604
2758.47	599.5
2759.35	604
2760.22	596
2761.09	589.5
2761.96	592
2762.83	589
2763.7	589
2764.57	591.5
2765.44	603.5
2766.32	584
2767.19	609.5
2768.06	577
2768.93	601
2769.8	597.5
2770.67	593.5
2771.54	597
2772.41	576
2773.28	595
2774.15	594
2775.02	593
2775.89	577
2776.75	588.5
2777.62	582
2778.49	585
2779.36	571.5
2780.23	577.5
2781.1	597
2781.97	584.5
2782.84	575
2783.7	588
2784.57	580.5
2785.44	568
2786.31	587.5
2787.18	571
2788.04	580
2788.91	605
2789.78	571
2790.64	558
2791.51	567.5
2792.38	575
2793.24	572
2794.11	573
2794.98	571
2795.85	562.5
2796.71	555
2797.58	574
2798.44	571.5
2799.31	582.5
2800.18	561
2801.04	570.5
2801.91	575
2802.77	562
2803.64	568
2804.5	558.5
2805.37	563
2806.23	574.5
2807.1	569.5
2807.96	578
2808.83	565.5
2809.69	548
2810.55	574
2811.42	578
2812.28	563
2813.15	550
2814.01	562.5
2814.88	553
2815.74	567.5
2816.6	551.5
2817.46	556
2818.33	554.5
2819.19	568
2820.05	555.5
2820.92	546.5
2821.78	570.5
2822.64	563.5
2823.51	552.5
2824.37	564
2825.23	570
2826.09	555
2826.95	559.5
2827.81	555
2828.68	538
2829.54	553
2830.4	562
2831.26	572
2832.12	551
2832.98	553
2833.84	552
2834.71	571
2835.57	561.5
2836.43	571.5
2837.29	566.5
2838.15	555.5
2839.01	568
2839.87	552.5
2840.73	560
2841.59	563.5
2842.45	560
2843.31	560
2844.17	578
2845.02	586.5
2845.88	571
2846.74	587
2847.6	578.5
2848.46	578
2849.32	601
2850.18	597
2851.04	577
2851.9	580
2852.75	575.5
2853.61	581.5
2854.47	591
2855.33	564.5
2856.19	598.5
2857.04	576.5
2857.9	591
2858.76	582
2859.61	568.5
2860.47	574.5
2861.33	599
2862.19	589.5
2863.04	590.5
2863.9	576.5
2864.76	569.5
2865.61	597.5
2866.47	578.5
2867.32	592
2868.18	590
2869.04	557
2869.89	570
2870.75	595.5
2871.6	586
2872.46	584
2873.31	603.5
2874.17	583
2875.02	590
2875.88	583.5
2876.73	584.5
2877.59	582
2878.44	563.5
2879.3	588.5
2880.15	577
2881	563.5
2881.86	603.5
2882.71	580
2883.57	582.5
2884.42	585
2885.27	588.5
2886.13	570.5
2886.98	585.5
2887.83	588
2888.69	576
2889.54	578.5
2890.39	586
2891.24	582
2892.1	577.5
2892.95	584.5
2893.8	591.5
2894.65	582
2895.51	600
2896.36	601
2897.21	600
2898.06	599
2898.91	597
2899.76	601
2900.62	586
2901.47	600
2902.32	607.5
2903.17	604
2904.02	595
2904.87	603
2905.72	608
2906.57	614
2907.42	625
2908.27	617
2909.12	611.5
2909.97	624
2910.82	607.5
2911.67	609
2912.52	587.5
2913.37	617
2914.22	619.5
2915.07	629
2915.92	615.5
2916.77	601.5
2917.62	609.5
2918.47	597
2919.31	603.5
2920.16	608.5
2921.01	610
2921.86	613.5
2922.71	606
2923.55	598
2924.4	601
2925.25	600
2926.1	603.5
2926.94	610.5
2927.79	607
2928.64	611.5
2929.49	607
2930.33	612.5
2931.18	605
2932.03	612.5
2932.87	595
2933.72	613.5
2934.57	612.5
2935.41	589
2936.26	606.5
2937.11	588
2937.95	579.5
2938.8	607
2939.64	589
2940.49	588.5
2941.33	573
2942.18	571
2943.02	581
2943.87	593
2944.71	565.5
2945.56	569
2946.4	565
2947.25	553
2948.09	551.5
2948.94	543
2949.78	526.5
2950.63	543.5
2951.47	543.5
2952.31	534.5
2953.16	517
2954	531.5
2954.84	529
2955.69	521
2956.53	523.5
2957.37	509
2958.22	509
2959.06	517
2959.9	514
2960.75	524.5
2961.59	518.5
2962.43	512
2963.27	493
2964.11	496
2964.96	511.5
2965.8	484
2966.64	515.5
2967.48	493
2968.32	512
2969.16	501
2970.01	496.5
2970.85	513.5
2971.69	510.5
2972.53	513
2973.37	501
2974.21	492
2975.05	505
2975.89	494
2976.73	480
2977.57	477
2978.41	496
2979.25	497
2980.09	495.5
2980.93	483.5
2981.77	470
2982.61	478
2983.45	474.5
2984.29	473.5
2985.13	468
2985.97	478.5
2986.81	473
2987.65	468
2988.49	446
2989.32	457.5
2990.16	460
2991	473.5
2991.84	460
2992.68	454
2993.51	442
2994.35	453
2995.19	451
2996.03	446
2996.86	443
2997.7	438.5
2998.54	453
2999.38	450.5
