#Acq. time (s)=	5
#Accumulations=	5
#Range (cm-¹)=	100...3000
#Windows=	3
#Autofocus=	Off
#AutoExposure=	Off
#Spike filter=	Multiple accum.
#Delay time (s)=	0
#Binning=	1
#Readout mode=	Signal
#DeNoise=	Off
#ICS correction=	Off
#Dark correction=	Off
#Inst. Process=	Off
#Instrument=	LabRAM HR Evol
#Detector=	Syncerity OE
#Objective=	x100_VIS_LWD
#Grating=	600 (500nm)
#ND Filter=	100%
#Laser=	633nm_Edge
#Hole=	100.021
#Range=	Visible
#Project=	Omar
#Sample=	chi
#Site=	f
#Title=	nsno
#Remark=	
#Date=	12.09.2023 16:57
#Acquired=	12.09.2023 16:57:52
101.026	10288.5
102.309	10240
103.592	10199
104.875	10066.5
106.158	10036
107.441	9941.5
108.723	9881.5
110.005	9822
111.289	9753.5
112.571	9629
113.852	9657
115.134	9515.5
116.415	9564.5
117.696	9470
118.976	9446
120.257	9424
121.537	9381
122.817	9302.5
124.097	9312
125.377	9218
126.656	9174
127.936	9151.5
129.215	9103.5
130.493	9068.5
131.772	9057
133.049	8956
134.327	8962.5
135.605	8815.5
136.883	8710
138.161	8774.5
139.438	8751
140.715	8619.5
141.992	8526
143.269	8577
144.545	8456
145.82	8403.5
147.096	8382
148.372	8310
149.648	8262
150.924	8231
152.199	8189
153.472	8120
154.747	8092
156.022	8059.5
157.296	8050.5
158.571	7989.5
159.843	7996
161.117	7947
162.391	7994
163.664	7903
164.937	7879
166.209	7830
167.482	7834.5
168.754	7753
170.025	7749.5
171.297	7660.5
172.569	7612
173.841	7679.5
175.111	7634.5
176.383	7664.5
177.654	7604
178.923	7572
180.194	7561
181.464	7555
182.733	7542
184.003	7490
185.273	7503.5
186.542	7494
187.811	7478.5
189.079	7504
190.348	7498.5
191.617	7546
192.884	7516
194.152	7472.5
195.419	7536.5
196.687	7514
197.955	7471.5
199.221	7528
200.489	7540
201.755	7538
203.022	7559.5
204.287	7514
205.554	7621.5
206.818	7524.5
208.085	7540.5
209.349	7611
210.615	7567
211.879	7558
213.144	7547
214.408	7600
215.673	7594
216.936	7626.5
218.201	7605.5
219.464	7574.5
220.728	7591
221.99	7645.5
223.253	7600.5
224.516	7601.5
225.778	7624.5
227.041	7631.5
228.303	7645.5
229.564	7630
230.826	7692.5
232.087	7628.5
233.348	7692
234.61	7724
235.87	7663.5
237.13	7735
238.391	7718
239.651	7725.5
240.91	7764
242.171	7802
243.43	7794
244.689	7822
245.949	7828
247.207	7869
248.465	7846.5
249.723	7778
250.983	7857.5
252.24	7829
253.498	7825.5
254.755	7860
256.013	7850.5
257.27	7885.5
258.526	7880
259.783	7866
261.039	7856.5
262.296	7858.5
263.552	7805.5
264.808	7822
266.063	7769.5
267.318	7822.5
268.573	7875.5
269.828	7875.5
271.084	7807.5
272.338	7875
273.592	7838
274.846	7841
276.1	7872.5
277.353	7864.5
278.607	7887.5
279.86	7971
281.113	7963
282.365	8013.5
283.619	8009
284.872	7969
286.124	8061
287.376	8046
288.627	8150
289.879	8091
291.13	8096
292.381	8100
293.632	8184.5
294.883	8137
296.133	8184.5
297.384	8167
298.634	8220.5
299.883	8159
301.133	8183.5
302.381	8171.5
303.63	8100
304.879	8115
306.128	8126
307.377	8129
308.625	8123.5
309.874	8107.5
311.122	8115.5
312.37	8064.5
313.617	8099.5
314.863	8005
316.111	8078.5
317.358	8074
318.604	8038.5
319.851	7978.5
321.098	8021.5
322.342	7975
323.588	7932.5
324.834	7952.5
326.08	7925.5
327.325	7924.5
328.569	7882.5
329.814	7859.5
331.059	7875.5
332.304	7875
333.548	7850
334.791	7838.5
336.035	7849
337.279	7853
338.521	7865
339.765	7830
341.008	7881.5
342.251	7907.5
343.492	7914.5
344.735	7894.5
345.977	7859
347.218	7900.5
348.46	7927
349.702	7906
350.942	7922.5
352.184	7932
353.425	7934
354.665	7897.5
355.905	7961
357.145	7917
358.385	7944.5
359.625	7987.5
360.864	7974.5
362.104	7975
363.342	8017.5
364.581	8004.5
365.819	7980
367.058	7999.5
368.296	8026.5
369.534	7997
370.771	7958.5
372.01	8054
373.246	8034.5
374.484	8021.5
375.72	7985
376.958	7992.5
378.194	8009
379.431	7986
380.666	7995
381.903	7906
383.138	7966.5
384.374	7931
385.609	7920.5
386.845	7968
388.079	7971
389.313	7945
390.548	7900.5
391.782	7871
393.016	7905.5
394.25	7906.5
395.483	7906
396.718	7886
397.95	7894.5
399.183	7921
400.416	7885
401.648	7949.5
402.88	7930.5
404.113	7911
405.345	7981.5
406.576	8009.5
407.807	7977
409.04	7985
410.27	7989
411.501	8013
412.731	8004
413.963	8011
415.193	8065
416.422	8082
417.652	8138.5
418.883	8092
420.112	8103.5
421.341	8115.5
422.569	8147
423.798	8152
425.028	8147.5
426.256	8205.5
427.484	8182
428.711	8215
429.939	8253
431.166	8289
432.394	8244.5
433.622	8249.5
434.849	8244.5
436.075	8272.5
437.302	8257
438.528	8273.5
439.754	8283
440.98	8258.5
442.205	8191
443.431	8268.5
444.656	8238.5
445.881	8131
447.106	8197.5
448.33	8170.5
449.555	8204.5
450.779	8224.5
452.003	8195
453.227	8214
454.45	8176.5
455.674	8191
456.897	8209
458.12	8202.5
459.343	8104.5
460.566	8179.5
461.788	8196
463.01	8207.5
464.232	8171
465.454	8216
466.676	8222
467.897	8142
469.119	8144
470.34	8092.5
471.559	8181.5
472.78	8139.5
474.001	8101.5
475.221	8159.5
476.441	8156.5
477.661	8231
478.879	8189.5
480.099	8158
481.318	8168
482.537	8158
483.756	8202
484.974	8118.5
486.192	8180.5
487.411	8135.5
488.629	8193
489.847	8203
491.063	8144.5
492.281	8220
493.498	8181.5
494.714	8224
495.931	8193
497.148	8212
498.365	8216.5
499.58	8184.5
500.796	8212.5
502.012	8192
503.226	8188.5
504.442	8183
505.657	8217
506.871	8202.5
508.086	8163
509.3	8206.5
510.515	8190
511.729	8134.5
512.942	8175
514.156	8137.5
515.369	8174
516.582	8215
517.796	8085.5
519.008	8107.5
520.221	8066.5
521.433	8116.5
522.645	8063
523.857	8127.5
525.069	8094
526.28	8145.5
527.492	8139.5
528.702	8149.5
529.914	8051.5
531.124	8087
532.335	8098
533.545	8051.5
534.756	8043
535.965	8011
537.175	8041.5
538.384	8036.5
539.593	8035
540.803	8045
542.011	8008
543.221	8061
544.429	8042.5
545.636	8089.5
546.845	8074
548.052	8107.5
549.261	8026
550.468	7986.5
551.675	8000
552.883	7999
554.089	8018.5
555.295	8010
556.503	7968.5
557.709	7997.5
558.914	7997
560.12	7985.5
561.326	8052.5
562.531	8034.5
563.736	8048
564.941	8009.5
566.147	8071
567.351	8017.5
568.555	8013.5
569.759	8045
570.964	8009.5
572.168	8045.5
573.371	8025.5
574.574	8057
575.777	8056
576.981	8084
578.184	7965
579.386	8015.5
580.588	8026
581.79	8089
582.992	7930
584.194	8071
585.395	7962
586.598	8020.5
587.799	8014
589	8003
590.201	7984
591.401	8022
592.601	8059.5
593.801	8036
595.001	7986.5
596.201	7997
597.401	8011
598.6	8062
599.799	8027
600.998	8080.5
602.197	8084.5
603.395	8062
604.594	8053.5
605.792	8077.5
606.99	8123
608.188	8131
609.386	8106.5
610.583	8094
611.78	8150.5
612.977	8077.5
614.174	8098
615.371	8146.5
616.566	8112
617.762	8075.5
618.958	8100
620.154	8100.5
621.35	8072
622.546	8161.5
623.741	8184
624.935	8158.5
626.13	8207
627.325	8177.5
628.519	8195
629.714	8181
630.908	8187
632.101	8179.5
633.295	8174
634.488	8229.5
635.682	8256
636.874	8151.5
638.067	8255.5
639.26	8244.5
640.453	8272.5
641.644	8201
642.836	8238.5
644.028	8213.5
645.219	8227.5
646.411	8220.5
647.602	8270.5
648.792	8272
649.984	8247.5
651.175	8270
652.364	8276.5
653.555	8213
654.745	8160
655.934	8231.5
657.124	8219
658.314	8228
659.503	8201.5
660.692	8154.5
661.88	8197
663.07	8164.5
664.257	8156
665.446	8187
666.635	8115
667.822	8196.5
669.01	8116.5
670.197	8066
671.384	8047.5
672.571	8132.5
673.758	8074
674.944	8044
676.131	8100
677.317	8072.5
678.502	8050.5
679.689	8019.5
680.874	8018.5
682.06	7978.5
683.245	8038.5
684.431	8066.5
685.615	8039.5
686.799	7973
687.984	7949.5
689.168	8000.5
690.353	7975.5
691.536	7913.5
692.719	8002.5
693.904	7966.5
695.086	7932
696.269	7935
697.453	7944.5
698.635	7988.5
699.817	7981
701	7968
702.182	7995.5
703.364	7968.5
704.545	7898.5
705.727	7979
706.908	7897
708.089	7948
709.27	7914
710.451	7970.5
711.632	7930.5
712.812	7999.5
713.991	7943
715.172	7978
716.352	7939.5
717.531	7970
718.71	7998.5
719.889	7964
721.068	7985.5
722.248	8012.5
723.426	7999
724.604	7952.5
725.782	7984.5
726.96	7967.5
728.138	8009.5
729.315	7968.5
730.492	7980
731.669	7949
732.846	7930.5
734.024	7948.5
735.201	8006
736.377	8002.5
737.553	7969
738.729	7952
739.905	7907
741.081	7844.5
742.256	7961
743.431	7902
744.606	7914.5
745.781	7882
746.956	7892
748.13	7914.5
749.303	7906.5
750.477	7888.5
751.651	7915
752.825	7872.5
753.999	7872.5
755.172	7884.5
756.345	7816
757.518	7826
758.691	7816
759.864	7856.5
761.035	7834.5
762.207	7792
763.379	7757
764.551	7733
765.723	7753
766.894	7746
768.064	7779
769.236	7785.5
770.407	7831.5
771.577	7745
772.748	7813.5
773.917	7754
775.088	7727
776.258	7802.5
777.427	7729
778.596	7699.5
779.765	7783
780.935	7742.5
782.104	7765
783.272	7733
784.44	7738.5
785.609	7732
786.776	7721
787.944	7684.5
789.113	7708
790.279	7700
791.447	7671
792.613	7702
793.78	7733
794.948	7690.5
796.113	7699
797.28	7758
798.445	7735
799.612	7778
800.778	7763
801.943	7739
803.109	7755
804.273	7763.5
805.439	7792
806.603	7751
807.768	7777
808.932	7766.5
810.096	7727
811.26	7732.5
812.424	7751
813.587	7843.5
814.751	7775.5
815.914	7811.5
817.078	7785
818.24	7783
819.402	7856
820.565	7932
821.727	7886
822.889	7907
824.051	7934.5
825.212	7878.5
826.374	7900
827.535	7881
828.697	7841.5
829.857	7877.5
831.018	7843
832.179	7871.5
833.339	7821.5
834.499	7821
835.659	7813.5
836.819	7835.5
837.978	7810.5
839.137	7832.5
840.297	7804.5
841.456	7879
842.614	7823
843.772	7815
844.932	7827.5
846.09	7816
847.247	7824
848.405	7814.5
849.562	7800
850.721	7790.5
851.878	7827
853.034	7783
854.191	7793.5
855.348	7867.5
856.504	7813.5
857.661	7781.5
858.817	7817.5
859.973	7846.5
861.129	7778
862.284	7801.5
863.439	7787.5
864.594	7736
865.749	7783
866.904	7743.5
868.058	7747
869.212	7757
870.367	7759
871.522	7722
872.676	7692
873.829	7716.5
874.983	7665
876.136	7645.5
877.289	7651
878.442	7733
879.593	7642.5
880.746	7642.5
881.898	7667.5
883.05	7658
884.202	7680
885.354	7659.5
886.506	7621.5
887.657	7565.5
888.808	7607
889.96	7574
891.11	7589
892.261	7585
893.41	7558.5
894.561	7563
895.711	7541
896.861	7487.5
898.011	7465
899.161	7539.5
900.309	7555
901.458	7482
902.607	7512
903.756	7485.5
904.904	7463
906.052	7401.5
907.201	7403.5
908.349	7464
909.496	7406
910.644	7385.5
911.791	7380
912.939	7346
914.085	7355.5
915.232	7404
916.379	7454.5
917.525	7419
918.671	7395
919.818	7424.5
920.963	7396.5
922.109	7411.5
923.255	7400
924.399	7389
925.545	7349
926.689	7350.5
927.834	7374
928.979	7357.5
930.123	7338
931.268	7367.5
932.411	7343
933.555	7344.5
934.698	7373.5
935.842	7360.5
936.985	7341
938.128	7371
939.271	7317.5
940.414	7363.5
941.556	7355
942.699	7345.5
943.84	7394.5
944.983	7339.5
946.124	7371
947.266	7336
948.407	7395.5
949.547	7376.5
950.689	7370.5
951.829	7364.5
952.971	7407
954.111	7413
955.25	7374.5
956.391	7417
957.531	7404
958.67	7380.5
959.81	7397
960.949	7355
962.088	7425
963.227	7369.5
964.366	7438
965.504	7435
966.643	7467.5
967.781	7390.5
968.919	7418
970.056	7379.5
971.195	7394
972.332	7408.5
973.469	7412.5
974.605	7459
975.743	7414.5
976.88	7407.5
978.016	7400
979.152	7407
980.288	7428.5
981.423	7453
982.56	7410.5
983.696	7424
984.831	7415.5
985.966	7438.5
987.101	7390.5
988.235	7451.5
989.37	7424
990.504	7428.5
991.638	7409
992.773	7403
993.907	7440
995.041	7442.5
996.174	7436
997.307	7450
998.44	7431.5
999.573	7431
1000.71	7483.5
1001.84	7351
1002.97	7360.5
1004.1	7247.5
1005.24	7354.5
1006.37	7296
1007.5	7280.5
1008.63	7267.5
1009.76	7252.5
1010.89	7248.5
1012.02	7260
1013.15	7267
1014.28	7275
1015.41	7296
1016.54	7250
1017.67	7293.5
1018.8	7273.5
1019.93	7241
1021.06	7215.5
1022.19	7217.5
1023.32	7220.5
1024.45	7231.5
1025.58	7195.5
1026.71	7171.5
1027.84	7264
1028.96	7209
1030.09	7270.5
1031.22	7231
1032.35	7248.5
1033.47	7215.5
1034.6	7195
1035.73	7241
1036.86	7247
1037.98	7235.5
1039.11	7252.5
1040.23	7229.5
1041.36	7270
1042.49	7270
1043.61	7301.5
1044.74	7250
1045.86	7255.5
1046.99	7233
1048.11	7304.5
1049.24	7330
1050.36	7310.5
1051.49	7281
1052.61	7328.5
1053.74	7324.5
1054.86	7307
1055.98	7327.5
1057.11	7289.5
1058.23	7262.5
1059.35	7298
1060.48	7231.5
1061.6	7280.5
1062.72	7288.5
1063.84	7249.5
1064.97	7295
1066.09	7287
1067.21	7325.5
1068.33	7299
1069.45	7231.5
1070.57	7252.5
1071.7	7297
1072.82	7297
1073.94	7248
1075.06	7180.5
1076.18	7230
1077.3	7245.5
1078.42	7199
1079.54	7207
1080.66	7181.5
1081.78	7179.5
1082.9	7180
1084.02	7159
1085.14	7194.5
1086.25	7208
1087.37	7180.5
1088.49	7201
1089.61	7207.5
1090.73	7152.5
1091.84	7207.5
1092.96	7187
1094.08	7138.5
1095.2	7179
1096.31	7132.5
1097.43	7119
1098.55	7114
1099.66	7095.5
1100.78	7162
1101.9	7103
1103.01	7031
1104.13	7039
1105.25	7120.5
1106.36	7075.5
1107.48	7104.5
1108.59	7098.5
1109.71	7086
1110.82	7041.5
1111.93	7027.5
1113.05	7086.5
1114.16	7042
1115.28	7040.5
1116.39	7081
1117.51	7003.5
1118.62	7068.5
1119.73	7057
1120.85	7047.5
1121.96	7048.5
1123.07	7018.5
1124.18	7028
1125.3	7049
1126.41	7062
1127.52	7058.5
1128.63	7067.5
1129.74	7111.5
1130.85	7102
1131.97	7115
1133.08	7088.5
1134.19	7114
1135.3	7111
1136.41	7115
1137.52	7135
1138.63	7134
1139.74	7126
1140.85	7107.5
1141.96	7163.5
1143.07	7171
1144.18	7146
1145.29	7143.5
1146.4	7200
1147.51	7179
1148.61	7213.5
1149.72	7250
1150.83	7242.5
1151.94	7262
1153.05	7223.5
1154.15	7259.5
1155.26	7284.5
1156.37	7353
1157.48	7303.5
1158.58	7307
1159.69	7297
1160.8	7253.5
1161.9	7241.5
1163.01	7308
1164.11	7289.5
1165.22	7317
1166.33	7276.5
1167.43	7317
1168.54	7321
1169.64	7294
1170.75	7323.5
1171.85	7303
1172.96	7329.5
1174.06	7323.5
1175.17	7306.5
1176.27	7307
1177.37	7305.5
1178.48	7320.5
1179.58	7237.5
1180.68	7251
1181.79	7250
1182.89	7229
1183.99	7320.5
1185.1	7241.5
1186.2	7203.5
1187.3	7162
1188.4	7225
1189.5	7248.5
1190.61	7179.5
1191.71	7229
1192.81	7211.5
1193.91	7118.5
1195.01	7235.5
1196.11	7207.04
1197.21	7157.85
1198.31	7224.92
1199.42	7125.97
1200.51	7142.43
1201.61	7155.22
1202.72	7110.21
1203.81	7103.01
1204.91	7079.31
1206.01	7104.73
1207.11	7089.32
1208.21	7084.96
1209.31	7115.08
1210.41	7098.2
1211.51	7053.66
1212.61	7098.21
1213.7	7034.59
1214.8	7072.69
1215.9	7070.25
1217	7067.5
1218.09	7030.11
1219.19	7056.5
1220.29	6996.89
1221.38	7038.42
1222.48	7052.61
1223.58	7043.86
1224.67	7037.45
1225.77	7097.29
1226.87	7061.1
1227.96	7077.74
1229.06	7050.67
1230.15	7078.29
1231.25	7085.82
1232.34	7098.49
1233.44	7086.85
1234.53	7096.3
1235.63	7090.65
1236.72	7100.85
1237.81	7106.04
1238.91	7091.03
1240	7103.91
1241.1	7110.36
1242.19	7071.02
1243.28	7090.31
1244.38	7090.88
1245.47	7058.73
1246.56	7123.12
1247.65	7083.01
1248.75	7119.62
1249.84	7137.96
1250.93	7115.62
1252.02	7132.23
1253.11	7139.52
1254.21	7156.71
1255.3	7161.85
1256.39	7157.75
1257.48	7140.16
1258.57	7145.75
1259.66	7219.48
1260.75	7224.85
1261.84	7191.53
1262.93	7173.31
1264.02	7213.96
1265.11	7204.78
1266.2	7229.8
1267.29	7249.77
1268.38	7246.82
1269.47	7251.08
1270.56	7250.34
1271.65	7268.15
1272.73	7199.48
1273.82	7253.16
1274.91	7271.23
1276	7275.24
1277.09	7293.43
1278.17	7284.69
1279.26	7280.23
1280.35	7287.71
1281.43	7264.79
1282.52	7306.19
1283.61	7300.55
1284.69	7293.37
1285.78	7328.41
1286.87	7386.59
1287.95	7301.13
1289.04	7349.08
1290.13	7353.11
1291.21	7334.35
1292.3	7351.97
1293.38	7433.19
1294.47	7398.34
1295.55	7429.84
1296.64	7411.19
1297.72	7401.2
1298.8	7407.5
1299.89	7358.2
1300.97	7460.4
1302.06	7452.89
1303.14	7422.04
1304.22	7373.27
1305.31	7376.62
1306.39	7364.46
1307.34	7369.5
1308.43	7378
1309.52	7321.5
1310.6	7378
1311.69	7292.5
1312.78	7392
1313.87	7305
1314.96	7362.5
1316.04	7303
1317.13	7248.5
1318.21	7328
1319.3	7319
1320.39	7341
1321.47	7389
1322.56	7367.5
1323.65	7347.5
1324.73	7289.5
1325.82	7320
1326.9	7317
1327.99	7304
1329.07	7336.5
1330.16	7400.5
1331.24	7383
1332.32	7357
1333.41	7372
1334.49	7375.5
1335.58	7349
1336.66	7404.5
1337.74	7275
1338.83	7354.5
1339.91	7288
1340.99	7286
1342.08	7328
1343.16	7312
1344.24	7267
1345.32	7310.5
1346.41	7331
1347.49	7277.5
1348.57	7276
1349.65	7270
1350.73	7218
1351.81	7260
1352.9	7263
1353.98	7226
1355.06	7186.5
1356.14	7265.5
1357.22	7169
1358.3	7297
1359.38	7297.5
1360.46	7224
1361.54	7229
1362.62	7239
1363.7	7288.5
1364.78	7255.5
1365.85	7225
1366.93	7259.5
1368.01	7326
1369.09	7245.5
1370.17	7270.5
1371.25	7319.5
1372.33	7233.5
1373.4	7284
1374.48	7244
1375.56	7196.5
1376.64	7238
1377.71	7180
1378.79	7188
1379.87	7137.5
1380.94	7123
1382.02	7110
1383.1	7142.5
1384.17	7127.5
1385.25	7127
1386.32	7058
1387.4	7103.5
1388.47	7072
1389.55	7040.5
1390.63	7097.5
1391.7	7068
1392.77	7105
1393.85	7034.5
1394.92	6996
1396	7039
1397.07	7117.5
1398.15	7085
1399.22	7007.5
1400.29	7089.5
1401.37	7102.5
1402.44	6986
1403.51	7029
1404.59	6973.5
1405.66	7034
1406.73	7040.5
1407.8	7019
1408.87	6967.5
1409.95	7059.5
1411.02	7023
1412.09	6985.5
1413.16	7045.5
1414.23	7009.5
1415.3	7050
1416.38	6977.5
1417.45	7001
1418.52	6990
1419.59	6923.5
1420.66	7009
1421.73	6944.5
1422.8	6930.5
1423.87	6916
1424.94	6941
1426.01	6964
1427.08	6947.5
1428.15	6891.5
1429.21	6937.5
1430.28	6954
1431.35	6930.5
1432.42	6988
1433.49	6905
1434.56	6933
1435.63	6936.5
1436.69	6891.5
1437.76	6932.5
1438.83	6867
1439.89	6836
1440.96	6909.5
1442.03	6876
1443.1	6909
1444.16	6835
1445.23	6896.5
1446.3	6828.5
1447.36	6898.5
1448.43	6840
1449.49	6908
1450.56	6884
1451.62	6841
1452.69	6880
1453.75	6866.5
1454.82	6881.5
1455.88	6895
1456.95	6860.5
1458.01	6868.5
1459.08	6901.5
1460.14	7003
1461.2	6848
1462.27	6940.5
1463.33	6882
1464.4	6908
1465.46	6863.5
1466.52	6837.5
1467.58	6880
1468.65	6913.5
1469.71	6970
1470.77	6928.5
1471.83	6884
1472.9	6926
1473.96	6860
1475.02	6960
1476.08	6876
1477.14	6956
1478.2	6954.5
1479.27	6979.5
1480.33	6877.5
1481.39	6940
1482.45	6965
1483.51	6943.5
1484.57	6883
1485.63	6900
1486.69	6918
1487.75	6897
1488.81	6822
1489.87	6926.5
1490.93	6892.5
1491.99	6848.5
1493.04	6873
1494.1	6970
1495.16	6851
1496.22	6907.5
1497.28	6955
1498.34	6881.5
1499.39	6862.5
1500.45	6933
1501.51	6944.5
1502.57	6918
1503.62	6971
1504.68	6864
1505.74	6948
1506.79	6945
1507.85	6896
1508.91	6900.5
1509.96	6964.5
1511.02	6897
1512.07	6893.5
1513.13	6967
1514.19	6879.5
1515.24	6944.5
1516.3	6955.5
1517.35	6955.5
1518.41	6953.5
1519.46	6969.5
1520.52	6999
1521.57	6926
1522.62	6967.5
1523.68	6956.5
1524.73	7008
1525.79	7005.5
1526.84	6928
1527.89	6964.5
1528.95	7020.5
1530	6966.5
1531.05	6992.5
1532.1	7019.5
1533.16	7043
1534.21	7076
1535.26	6972.5
1536.31	7088
1537.37	7071.5
1538.42	7064
1539.47	7065
1540.52	7090
1541.57	7035
1542.62	7014
1543.67	7020.5
1544.72	7068
1545.78	7073
1546.83	6997
1547.88	7031
1548.93	7014
1549.98	7083
1551.03	7078
1552.07	6998
1553.12	6887
1554.17	6964.5
1555.22	6945
1556.27	6947.5
1557.32	6932.5
1558.37	7009
1559.42	6945.5
1560.47	6919.5
1561.51	6914.5
1562.56	6810.5
1563.61	6911.5
1564.66	6887.5
1565.7	6853.5
1566.75	6885.5
1567.8	6873.5
1568.85	6898
1569.89	6824.5
1570.94	6841
1571.98	6822
1573.03	6857.5
1574.08	6877.5
1575.12	6894
1576.17	6789.5
1577.21	6850
1578.26	6802
1579.31	6856.5
1580.35	6830
1581.4	6814.5
1582.44	6842
1583.49	6822
1584.53	6811
1585.57	6859
1586.62	6795
1587.66	6727
1588.71	6780.5
1589.75	6715.5
1590.79	6714.5
1591.84	6693
1592.88	6659
1593.92	6616
1594.97	6665
1596.01	6686
1597.05	6623
1598.09	6574
1599.14	6605.5
1600.18	6532
1601.22	6451.5
1602.26	6479.5
1603.3	6428.5
1604.34	6409.5
1605.38	6403
1606.43	6363.5
1607.47	6362
1608.51	6232
1609.55	6222.5
1610.59	6240
1611.63	6227.5
1612.67	6218.5
1613.71	6109
1614.75	6077.5
1615.79	6078
1616.83	6088
1617.87	6019
1618.91	5994.5
1619.94	5877.5
1620.98	5996
1622.02	5888
1623.06	5850.5
1624.1	5783.5
1625.14	5812.5
1626.17	5768.5
1627.21	5769
1628.25	5715.5
1629.29	5625.5
1630.32	5610
1631.36	5567.5
1632.4	5555.5
1633.43	5467.5
1634.47	5440
1635.51	5418
1636.54	5357.5
1637.58	5391.5
1638.62	5364.5
1639.65	5293.5
1640.69	5357.5
1641.72	5282.5
1642.76	5238.5
1643.79	5267.5
1644.83	5171
1645.86	5152
1646.9	5167
1647.93	5099
1648.97	5108
1650	5036
1651.04	5042
1652.07	5019.5
1653.1	4995
1654.14	5000.5
1655.17	4962.5
1656.2	4956.5
1657.24	4937.5
1658.27	4921.5
1659.3	4920
1660.34	4936.5
1661.37	4854.5
1662.4	4819.5
1663.43	4818
1664.46	4829.5
1665.5	4852
1666.53	4786
1667.56	4758.5
1668.59	4784.5
1669.62	4718
1670.65	4713.5
1671.68	4694.5
1672.71	4704
1673.74	4707.5
1674.77	4690
1675.8	4676
1676.83	4597
1677.86	4678
1678.89	4616
1679.92	4575.5
1680.95	4552.5
1681.98	4569
1683.01	4538.5
1684.04	4484
1685.07	4505.5
1686.1	4484.5
1687.13	4480
1688.15	4476.5
1689.18	4486.5
1690.21	4454
1691.24	4456
1692.27	4434
1693.29	4429
1694.32	4475.5
1695.35	4376
1696.37	4399
1697.4	4409.5
1698.43	4388.5
1699.45	4413
1700.48	4368
1701.51	4298.5
1702.53	4374.5
1703.56	4315.5
1704.58	4324.5
1705.61	4310.5
1706.64	4298.5
1707.66	4287.5
1708.69	4273
1709.71	4282
1710.73	4252.5
1711.76	4255
1712.78	4283
1713.81	4192.5
1714.83	4227.5
1715.86	4241
1716.88	4257
1717.9	4203.5
1718.93	4179.5
1719.95	4194.5
1720.97	4229
1722	4139
1723.02	4167
1724.04	4167.5
1725.06	4136.5
1726.09	4153.5
1727.11	4142.5
1728.13	4136.5
1729.15	4126.5
1730.17	4147
1731.2	4101
1732.22	4140
1733.24	4076
1734.26	4117.5
1735.28	4086
1736.3	4078
1737.32	4052
1738.34	4082.5
1739.36	4070.5
1740.38	4041.5
1741.4	4019.5
1742.42	4049
1743.44	4022.5
1744.46	4061
1745.48	3989.5
1746.5	4008
1747.52	4047.5
1748.54	4041
1749.56	4006
1750.57	4009
1751.59	3997
1752.61	3967
1753.63	3994.5
1754.65	3986
1755.66	3977
1756.68	3994
1757.7	3906.5
1758.72	3948
1759.73	3935
1760.75	3969
1761.77	3955
1762.78	3977
1763.8	3906
1764.82	3898
1765.83	3934
1766.85	3921
1767.86	3888
1768.88	3909.5
1769.9	3833.5
1770.91	3851.5
1771.93	3834
1772.94	3847
1773.96	3859.5
1774.97	3887.5
1775.99	3826
1777	3871.5
1778.01	3840
1779.03	3859.5
1780.04	3846
1781.06	3809.5
1782.07	3806
1783.08	3822.5
1784.1	3867
1785.11	3854.5
1786.12	3847
1787.14	3825.5
1788.15	3795
1789.16	3812
1790.17	3806
1791.18	3791
1792.2	3786.5
1793.21	3776.5
1794.22	3764.5
1795.23	3772
1796.24	3763.5
1797.26	3771.5
1798.27	3743
1799.28	3713.5
1800.29	3748
1801.3	3762.5
1802.31	3720.5
1803.32	3733
1804.33	3739.5
1805.34	3741.5
1806.35	3693
1807.36	3702.5
1808.37	3701
1809.38	3668
1810.39	3700.5
1811.4	3660.5
1812.4	3662.5
1813.41	3690
1814.42	3650
1815.43	3658.5
1816.44	3692
1817.45	3712
1818.45	3665
1819.46	3636
1820.47	3599.5
1821.48	3685.5
1822.49	3664.5
1823.49	3606
1824.5	3630
1825.51	3628.5
1826.51	3622
1827.52	3603.5
1828.53	3585.5
1829.53	3590.5
1830.54	3589
1831.54	3577
1832.55	3549
1833.56	3575.5
1834.56	3601.5
1835.57	3566
1836.57	3530.5
1837.58	3545
1838.58	3570
1839.59	3552
1840.59	3505.5
1841.59	3522
1842.6	3503.5
1843.6	3522.5
1844.61	3455.5
1845.61	3492
1846.61	3477.5
1847.62	3452.5
1848.62	3480.5
1849.62	3459.5
1850.63	3462
1851.63	3468
1852.63	3466
1853.64	3464.5
1854.64	3479.5
1855.64	3469
1856.64	3425.5
1857.64	3455.5
1858.65	3440.5
1859.65	3426
1860.65	3478
1861.65	3458.5
1862.65	3387.5
1863.65	3440.5
1864.65	3407
1865.65	3375.5
1866.65	3377.5
1867.65	3383
1868.65	3386
1869.65	3394
1870.65	3377.5
1871.65	3371
1872.65	3394
1873.65	3376
1874.65	3379
1875.65	3373
1876.65	3360
1877.65	3340
1878.65	3332
1879.65	3313
1880.65	3335.5
1881.64	3341.5
1882.64	3302
1883.64	3358
1884.64	3306.5
1885.63	3315
1886.63	3315.5
1887.63	3324
1888.63	3345
1889.62	3299.5
1890.62	3341.5
1891.62	3315
1892.61	3281.5
1893.61	3264
1894.61	3308
1895.6	3296.5
1896.6	3292
1897.59	3292.5
1898.59	3331
1899.58	3303
1900.58	3263
1901.57	3265.5
1902.57	3245.5
1903.56	3285.5
1904.56	3280
1905.55	3297
1906.55	3267
1907.54	3270.5
1908.54	3245
1909.53	3245
1910.52	3218.5
1911.52	3238
1912.51	3247
1913.5	3279
1914.5	3216.5
1915.49	3236.5
1916.48	3244.5
1917.48	3254.5
1918.47	3246
1919.46	3247
1920.45	3247.5
1921.44	3229
1922.44	3212
1923.43	3220.5
1924.42	3197
1925.41	3187.5
1926.4	3222
1927.39	3179
1928.38	3182
1929.38	3210.5
1930.37	3177.5
1931.36	3183.5
1932.35	3184.5
1933.34	3171
1934.33	3157
1935.32	3172
1936.31	3146.5
1937.3	3160
1938.29	3163
1939.28	3163
1940.26	3102
1941.25	3155.5
1942.24	3162.5
1943.23	3178.5
1944.22	3146.5
1945.21	3151
1946.2	3146
1947.18	3101.5
1948.17	3137
1949.16	3125.5
1950.15	3103
1951.13	3080
1952.12	3074
1953.11	3097.5
1954.1	3126
1955.08	3093
1956.07	3086
1957.06	3098.5
1958.04	3074.5
1959.03	3094
1960.01	3065
1961	3062
1961.99	3057.5
1962.97	3029.5
1963.96	3059
1964.94	3061
1965.93	3023.5
1966.91	3002.5
1967.9	3048
1968.88	3026
1969.87	3035.5
1970.85	2999.5
1971.84	3020.5
1972.82	3024.5
1973.81	3007.5
1974.79	3006.5
1975.77	3021
1976.76	2979
1977.74	3009
1978.72	2971
1979.71	3011
1980.69	3006.5
1981.67	3018
1982.65	3010.5
1983.64	2997.5
1984.62	2987
1985.6	2996
1986.58	2974.5
1987.56	2990.5
1988.55	2937.5
1989.53	2980
1990.51	2961.5
1991.49	2937.5
1992.47	2947
1993.45	2921.5
1994.43	2935
1995.41	2913.5
1996.39	2930
1997.37	2931.5
1998.36	2930
1999.34	2918.5
2000.31	2932.5
2001.29	2931.5
2002.27	2959
2003.25	2938.5
2004.23	2891.5
2005.21	2905.5
2006.19	2892
2007.17	2890.5
2008.15	2912
2009.13	2882
2010.11	2868.5
2011.08	2891
2012.06	2907.5
2013.04	2921
2014.02	2894
2015	2866
2015.97	2849.5
2016.95	2859.5
2017.93	2857
2018.91	2870
2019.88	2823
2020.86	2875.5
2021.83	2874
2022.81	2838
2023.79	2851.5
2024.76	2859.5
2025.74	2834.5
2026.72	2843.5
2027.69	2849.5
2028.67	2839
2029.64	2849
2030.62	2850
2031.59	2788.5
2032.57	2807.5
2033.54	2815
2034.52	2842.5
2035.49	2808.5
2036.47	2816
2037.44	2804.5
2038.41	2801.5
2039.39	2793.5
2040.36	2773
2041.34	2820.5
2042.31	2790
2043.28	2774.5
2044.26	2786
2045.23	2757.5
2046.2	2787
2047.17	2756
2048.15	2765.5
2049.12	2757
2050.09	2751
2051.06	2769.5
2052.04	2762
2053.01	2744.5
2053.98	2730.5
2054.95	2770.5
2055.92	2724.5
2056.89	2713.5
2057.86	2745.5
2058.84	2734
2059.81	2708
2060.78	2711.5
2061.75	2725
2062.72	2747.5
2063.69	2740
2064.66	2689.5
2065.63	2710
2066.6	2698
2067.57	2693
2068.54	2711
2069.51	2714.5
2070.48	2706
2071.44	2722.5
2072.41	2689
2073.38	2701.5
2074.35	2677.5
2075.32	2684
2076.29	2686
2077.26	2700.5
2078.22	2679.5
2079.19	2684
2080.16	2677
2081.13	2690
2082.09	2674.5
2083.06	2647.5
2084.03	2668
2085	2668.5
2085.96	2674.5
2086.93	2688.5
2087.9	2659.5
2088.86	2651
2089.83	2683
2090.79	2693.5
2091.76	2693
2092.73	2656.5
2093.69	2695
2094.66	2657
2095.62	2689.5
2096.59	2665
2097.55	2704.5
2098.52	2666
2099.48	2716.5
2100.45	2659
2101.41	2706
2102.38	2737
2103.34	2738
2104.3	2776
2105.27	2785
2106.23	2783
2107.19	2837.5
2108.16	2816
2109.12	2901.5
2110.08	2908
2111.05	2903
2112.01	2962.5
2112.97	3000
2113.94	3020
2114.9	3041
2115.86	3064
2116.82	3147
2117.78	3210
2118.75	3238.5
2119.71	3256
2120.67	3300
2121.63	3314
2122.59	3327
2123.55	3321
2124.51	3397.5
2125.47	3363
2126.43	3414
2127.4	3432.5
2128.36	3394
2129.32	3360
2130.28	3309.5
2131.24	3336.5
2132.2	3277
2133.16	3266
2134.11	3214.5
2135.07	3136.5
2136.03	3102
2136.99	3081
2137.95	3047
2138.91	2982.5
2139.87	2954.5
2140.83	2941
2141.78	2896.5
2142.74	2867
2143.7	2837
2144.66	2802
2145.62	2764.63
2146.57	2746.78
2147.53	2704.67
2148.49	2711.3
2149.45	2732.34
2150.4	2682.73
2151.36	2692.59
2152.32	2622.87
2153.27	2636.17
2154.23	2600.64
2155.19	2614.31
2156.14	2540.08
2157.1	2593.19
2158.05	2567.76
2159.01	2506.41
2159.96	2543.18
2160.92	2533.58
2161.88	2489.72
2162.83	2479.98
2163.78	2472.44
2164.74	2456.08
2165.69	2435.1
2166.65	2426.7
2167.6	2429.66
2168.56	2402.75
2169.51	2377.45
2170.47	2363.4
2171.42	2383.98
2172.37	2369.77
2173.33	2343.4
2174.28	2346.57
2175.23	2342.3
2176.19	2336.82
2177.14	2286.98
2178.09	2318.88
2179.04	2312.81
2180	2297.53
2180.95	2303.92
2181.9	2281.39
2182.85	2260.82
2183.81	2265.57
2184.76	2246.1
2185.71	2245.72
2186.66	2238.31
2187.61	2220.57
2188.56	2222.86
2189.51	2213.6
2190.46	2222.66
2191.42	2194.52
2192.37	2204.5
2193.32	2202.48
2194.27	2172.85
2195.22	2172.62
2196.17	2172.63
2197.12	2164.29
2198.07	2143.35
2199.02	2146.83
2199.97	2135.22
2200.92	2129.52
2201.86	2123.28
2202.81	2130.13
2203.76	2127.56
2204.71	2106.19
2205.66	2092.25
2206.61	2084.48
2207.56	2094.87
2208.5	2098.45
2209.45	2082.7
2210.4	2087.96
2211.35	2074.42
2212.3	2071.72
2213.24	2077.09
2214.19	2065.8
2215.14	2062.12
2216.08	2054.43
2217.03	2052.93
2217.98	2046.88
2218.92	2028.86
2219.87	2019.3
2220.82	2035.18
2221.76	2043.41
2222.71	2039.38
2223.65	2042.2
2224.6	2038.55
2225.55	2009.41
2226.49	2009.37
2227.44	2025.23
2228.38	2014.71
2229.33	2026.35
2230.27	2017.39
2231.22	2011.57
2232.16	2017.25
2233.11	2006.51
2234.05	1999.68
2234.99	2003.12
2235.94	2008.84
2236.88	2000.86
2237.83	1997.9
2238.77	2003.56
2239.71	2003.82
2240.66	2004.24
2241.6	2013.54
2242.06	2018.5
2243.01	2026.5
2243.96	2013.5
2244.91	2032
2245.85	1997
2246.8	2016.5
2247.75	2015.5
2248.7	1997.5
2249.64	2002.5
2250.59	2005
2251.54	2002.5
2252.48	2016.5
2253.43	1950.5
2254.38	1975
2255.32	1990.5
2256.27	1979.5
2257.21	1955.5
2258.16	1958
2259.1	1930.5
2260.05	1928
2260.99	1931
2261.94	1935.5
2262.89	1950.5
2263.83	1940.5
2264.77	1939
2265.72	1932
2266.66	1942
2267.61	1938.5
2268.55	1925
2269.5	1902.5
2270.44	1924
2271.38	1909
2272.33	1899
2273.27	1911
2274.21	1899.5
2275.16	1915.5
2276.1	1928
2277.04	1891.5
2277.98	1895
2278.93	1877
2279.87	1853
2280.81	1884.5
2281.75	1902
2282.7	1870
2283.64	1878
2284.58	1881.5
2285.52	1876.5
2286.46	1866
2287.4	1860.5
2288.34	1859.5
2289.29	1855.5
2290.23	1862.5
2291.17	1877.5
2292.11	1820.5
2293.05	1869
2293.99	1841.5
2294.93	1867
2295.87	1861
2296.81	1828
2297.75	1859.5
2298.69	1837
2299.63	1846.5
2300.57	1856
2301.51	1838
2302.44	1802
2303.38	1819.5
2304.32	1855.5
2305.26	1826.5
2306.2	1849.5
2307.14	1848
2308.08	1817
2309.01	1873.5
2309.95	1829
2310.89	1811.5
2311.83	1856.5
2312.77	1824
2313.7	1812
2314.64	1821.5
2315.58	1820.5
2316.51	1812.5
2317.45	1828
2318.39	1814
2319.32	1795.5
2320.26	1773.5
2321.2	1796.5
2322.13	1818.5
2323.07	1820
2324	1818.5
2324.94	1805
2325.88	1808.5
2326.81	1822.5
2327.75	1775
2328.68	1817.5
2329.62	1782.5
2330.55	1797
2331.49	1799
2332.42	1763
2333.35	1785.5
2334.29	1797
2335.22	1805
2336.16	1779
2337.09	1767
2338.02	1763
2338.96	1770.5
2339.89	1761
2340.82	1778.5
2341.76	1784.5
2342.69	1784.5
2343.62	1760
2344.56	1778.5
2345.49	1767.5
2346.42	1770.5
2347.35	1758
2348.29	1780.5
2349.22	1719.5
2350.15	1767
2351.08	1765.5
2352.01	1758.5
2352.94	1776.5
2353.88	1772
2354.81	1749
2355.74	1749.5
2356.67	1754
2357.6	1720.5
2358.53	1745.5
2359.46	1746.5
2360.39	1771.5
2361.32	1750
2362.25	1738
2363.18	1747.5
2364.11	1733
2365.04	1740.5
2365.97	1758.5
2366.9	1759
2367.83	1729.5
2368.76	1731
2369.69	1745
2370.62	1710.5
2371.55	1716
2372.47	1746
2373.4	1714
2374.33	1713.5
2375.26	1722
2376.19	1741
2377.11	1747.5
2378.04	1721.5
2378.97	1761.5
2379.9	1738
2380.83	1719
2381.75	1712.5
2382.68	1692
2383.61	1714.5
2384.53	1689
2385.46	1706.5
2386.39	1680
2387.31	1690.5
2388.24	1693.5
2389.17	1715.5
2390.09	1722
2391.02	1706
2391.94	1686
2392.87	1676
2393.79	1665
2394.72	1678.5
2395.64	1685
2396.57	1694
2397.49	1689.5
2398.42	1677
2399.34	1687.5
2400.27	1700.5
2401.19	1663
2402.12	1679.5
2403.04	1683
2403.96	1670
2404.89	1667.5
2405.81	1673
2406.74	1662
2407.66	1658.5
2408.58	1669.5
2409.51	1654.5
2410.43	1694.5
2411.35	1657.5
2412.27	1685.5
2413.2	1669
2414.12	1645.5
2415.04	1648.5
2415.96	1637.5
2416.89	1610
2417.81	1639.5
2418.73	1651
2419.65	1643
2420.57	1661.5
2421.49	1660
2422.41	1603
2423.34	1634
2424.26	1621
2425.18	1634
2426.1	1611
2427.02	1603
2427.94	1653.5
2428.86	1614.5
2429.78	1637
2430.7	1651
2431.62	1608
2432.54	1621
2433.46	1608.5
2434.38	1620.5
2435.3	1604
2436.22	1630
2437.13	1625
2438.05	1621.5
2438.97	1600.5
2439.89	1613.5
2440.81	1620.5
2441.73	1599
2442.65	1615
2443.56	1622
2444.48	1565
2445.4	1610.5
2446.32	1616.5
2447.24	1592.5
2448.15	1592.5
2449.07	1591.5
2449.99	1600.5
2450.9	1581.5
2451.82	1602
2452.74	1584.5
2453.65	1588
2454.57	1595
2455.49	1593.5
2456.4	1592.5
2457.32	1594.5
2458.23	1595
2459.15	1584.5
2460.07	1590.5
2460.98	1582
2461.9	1592.5
2462.81	1592.5
2463.73	1588.5
2464.64	1551.5
2465.56	1580
2466.47	1555.5
2467.39	1555.5
2468.3	1572.5
2469.21	1565.5
2470.13	1578
2471.04	1581.5
2471.96	1569.5
2472.87	1571.5
2473.78	1550.5
2474.7	1564
2475.61	1564
2476.52	1579.5
2477.44	1523
2478.35	1565
2479.26	1547.5
2480.17	1555.5
2481.09	1577.5
2482	1601
2482.91	1519
2483.82	1541
2484.74	1527.5
2485.65	1566
2486.56	1565
2487.47	1543
2488.38	1525.5
2489.29	1552
2490.21	1536.5
2491.12	1516.5
2492.03	1507.5
2492.94	1544.5
2493.85	1503
2494.76	1524
2495.67	1529
2496.58	1502
2497.49	1506
2498.4	1533
2499.31	1501.5
2500.22	1523
2501.13	1542
2502.04	1515
2502.95	1528
2503.86	1521
2504.76	1515.5
2505.67	1496
2506.58	1512.5
2507.49	1494.5
2508.4	1481
2509.31	1481.5
2510.22	1490
2511.12	1478.5
2512.03	1512.5
2512.94	1488
2513.85	1499
2514.76	1489
2515.66	1487.5
2516.57	1473.5
2517.48	1467.5
2518.38	1485.5
2519.29	1504
2520.2	1451.5
2521.1	1491.5
2522.01	1458
2522.92	1481.5
2523.82	1472
2524.73	1458
2525.64	1480
2526.54	1465
2527.45	1458.5
2528.35	1457
2529.26	1439.5
2530.16	1464
2531.07	1459
2531.97	1438
2532.88	1470
2533.78	1435
2534.69	1477
2535.59	1469.5
2536.5	1421
2537.4	1423.5
2538.31	1444
2539.21	1437.5
2540.11	1434.5
2541.02	1428.5
2541.92	1439
2542.82	1457.5
2543.73	1433.5
2544.63	1436
2545.53	1428.5
2546.44	1436
2547.34	1416
2548.24	1453
2549.14	1428
2550.05	1449.5
2550.95	1434.5
2551.85	1414
2552.75	1414.5
2553.65	1445
2554.56	1422
2555.46	1420
2556.36	1410
2557.26	1406.5
2558.16	1406
2559.06	1422
2559.96	1416
2560.86	1420
2561.76	1404
2562.67	1423
2563.57	1428
2564.47	1400.5
2565.37	1392
2566.27	1410.5
2567.17	1416.5
2568.06	1385
2568.96	1376.5
2569.86	1400
2570.76	1375.5
2571.66	1391.5
2572.56	1401.5
2573.46	1382.5
2574.36	1389
2575.26	1378.5
2576.16	1385
2577.05	1387.5
2577.95	1424.5
2578.85	1379.5
2579.75	1375
2580.65	1361.5
2581.54	1358.5
2582.44	1355.5
2583.34	1366
2584.24	1366
2585.13	1370
2586.03	1354.5
2586.93	1379
2587.83	1375
2588.72	1390
2589.62	1361
2590.51	1355
2591.41	1350.5
2592.31	1370
2593.2	1337
2594.1	1358
2594.99	1344.5
2595.89	1355
2596.79	1343.5
2597.68	1355.5
2598.58	1358
2599.47	1382
2600.37	1326
2601.26	1328
2602.16	1326.5
2603.05	1355
2603.94	1332
2604.84	1337.5
2605.73	1352
2606.63	1335
2607.52	1328.5
2608.42	1350
2609.31	1333
2610.2	1323.5
2611.1	1327
2611.99	1323
2612.88	1306
2613.78	1319
2614.67	1332.5
2615.56	1330
2616.45	1331.5
2617.35	1302
2618.24	1329.5
2619.13	1308
2620.02	1317.5
2620.91	1319
2621.81	1300.5
2622.7	1321.5
2623.59	1308.5
2624.48	1318
2625.37	1308
2626.26	1293.5
2627.15	1302.5
2628.04	1277.5
2628.94	1296.5
2629.83	1284.5
2630.72	1289
2631.61	1296.5
2632.5	1278
2633.39	1274.5
2634.28	1286
2635.17	1286.5
2636.06	1262
2636.95	1274.5
2637.84	1254.5
2638.73	1242
2639.61	1290
2640.5	1256.5
2641.39	1275
2642.28	1289.5
2643.17	1272
2644.06	1265
2644.95	1259.5
2645.84	1277.5
2646.72	1234.5
2647.61	1218
2648.5	1280.5
2649.39	1243
2650.28	1277.5
2651.16	1267
2652.05	1261.5
2652.94	1224.5
2653.82	1233.5
2654.71	1275.5
2655.6	1254
2656.49	1254.5
2657.37	1235
2658.26	1284.5
2659.14	1235
2660.03	1252.5
2660.92	1243
2661.8	1222
2662.69	1238
2663.57	1227.5
2664.46	1236.5
2665.35	1216
2666.23	1231
2667.12	1210
2668	1228.5
2668.89	1227
2669.77	1259
2670.66	1241
2671.54	1238
2672.42	1208
2673.31	1216.5
2674.19	1230
2675.08	1231.5
2675.96	1210
2676.84	1218.5
2677.73	1226
2678.61	1219
2679.49	1221.5
2680.38	1210.5
2681.26	1196
2682.14	1215.5
2683.03	1206
2683.91	1204
2684.79	1227
2685.68	1238
2686.56	1191.5
2687.44	1189.5
2688.32	1215.5
2689.2	1181
2690.09	1207.5
2690.97	1215
2691.85	1174.5
2692.73	1196.5
2693.61	1202.5
2694.49	1179.5
2695.37	1192.5
2696.25	1193
2697.14	1179.5
2698.02	1170.5
2698.9	1141
2699.78	1189.5
2700.66	1177
2701.54	1183
2702.42	1173.5
2703.3	1168.5
2704.18	1158.5
2705.06	1149
2705.94	1168.5
2706.82	1158.5
2707.7	1167.5
2708.57	1160.5
2709.45	1182.5
2710.33	1157
2711.21	1142.5
2712.09	1162
2712.97	1151
2713.85	1140.5
2714.72	1151
2715.6	1154.5
2716.48	1162
2717.36	1143
2718.24	1175.5
2719.11	1155.5
2719.99	1162
2720.87	1159.5
2721.75	1159.5
2722.62	1133.5
2723.5	1137
2724.38	1130.5
2725.25	1146
2726.13	1142.5
2727.01	1118
2727.88	1131
2728.76	1130.5
2729.63	1130
2730.51	1127.5
2731.39	1129
2732.26	1118
2733.14	1132
2734.01	1137
2734.89	1107.5
2735.76	1109
2736.64	1132
2737.51	1108
2738.39	1106
2739.26	1118.5
2740.14	1108
2741.01	1115
2741.89	1101.5
2742.76	1120.5
2743.63	1097
2744.51	1105
2745.38	1098
2746.26	1095
2747.13	1091.5
2748	1107.5
2748.88	1104
2749.75	1102.5
2750.62	1119
2751.5	1100.5
2752.37	1121
2753.24	1073
2754.11	1068.5
2754.99	1067
2755.86	1079
2756.73	1066.5
2757.6	1075
2758.47	1072
2759.35	1082
2760.22	1064
2761.09	1070
2761.96	1083
2762.83	1064.5
2763.7	1068.5
2764.57	1069.5
2765.44	1068
2766.32	1082
2767.19	1084
2768.06	1061
2768.93	1068.5
2769.8	1071
2770.67	1054.5
2771.54	1038
2772.41	1049
2773.28	1030
2774.15	1061.5
2775.02	1052
2775.89	1031.5
2776.75	1069
2777.62	1057.5
2778.49	1031
2779.36	1048.5
2780.23	1048.5
2781.1	1046
2781.97	1050
2782.84	1019
2783.7	1032.5
2784.57	1031.5
2785.44	1030
2786.31	1030
2787.18	1022
2788.04	1015.5
2788.91	1041.5
2789.78	1029.5
2790.64	1029.5
2791.51	1011
2792.38	1027.5
2793.24	1035
2794.11	1024.5
2794.98	1024.5
2795.85	1040
2796.71	1024.5
2797.58	1022.5
2798.44	1037.5
2799.31	1005
2800.18	1020
2801.04	994.5
2801.91	1016.5
2802.77	1003.5
2803.64	1010.75
2804.5	1010.5
2805.37	994
2806.23	1040
2807.1	993
2807.96	1007
2808.83	992.5
2809.69	1000.5
2810.55	1001
2811.42	999
2812.28	995
2813.15	992.5
2814.01	989
2814.88	1004
2815.74	989.5
2816.6	989.5
2817.46	992
2818.33	979.5
2819.19	991.5
2820.05	979
2820.92	993.5
2821.78	993
2822.64	994.5
2823.51	1002.5
2824.37	1005.5
2825.23	992.5
2826.09	980
2826.95	966
2827.81	974
2828.68	988
2829.54	986
2830.4	995
2831.26	982
2832.12	972
2832.98	982
2833.84	1001.5
2834.71	958
2835.57	971.5
2836.43	1005
2837.29	983.5
2838.15	989
2839.01	985
2839.87	986.5
2840.73	972.5
2841.59	985
2842.45	998.5
2843.31	1018.5
2844.17	997.5
2845.02	1016
2845.88	1024
2846.74	1036
2847.6	1013.5
2848.46	1032.5
2849.32	1015
2850.18	1048.5
2851.04	1039.5
2851.9	1049
2852.75	1023
2853.61	1019
2854.47	1035
2855.33	1022.5
2856.19	1040.5
2857.04	1018.5
2857.9	1010.5
2858.76	1054.5
2859.61	1032
2860.47	1020.5
2861.33	1002
2862.19	996.5
2863.04	991.5
2863.9	1000.5
2864.76	1000
2865.61	992.5
2866.47	1011
2867.32	1005
2868.18	998.5
2869.04	998.5
2869.89	1013.5
2870.75	1000.5
2871.6	992.5
2872.46	993.5
2873.31	992.5
2874.17	1007
2875.02	1006.5
2875.88	1007
2876.73	983.5
2877.59	989
2878.44	993.5
2879.3	989.5
2880.15	997.5
2881	999
2881.86	1010
2882.71	992.5
2883.57	996
2884.42	970
2885.27	983
2886.13	981
2886.98	969
2887.83	960
2888.69	981.5
2889.54	985.5
2890.39	992
2891.24	994
2892.1	977
2892.95	983.5
2893.8	1001
2894.65	992.5
2895.51	982
2896.36	964
2897.21	978
2898.06	966.5
2898.91	968
2899.76	983
2900.62	984
2901.47	996
2902.32	980
2903.17	962
2904.02	967.5
2904.87	984.5
2905.72	980.5
2906.57	985.5
2907.42	963
2908.27	978.5
2909.12	962
2909.97	969
2910.82	960.5
2911.67	982
2912.52	974.5
2913.37	984
2914.22	978.5
2915.07	956
2915.92	983.5
2916.77	968.5
2917.62	977
2918.47	977
2919.31	972
2920.16	985
2921.01	962
2921.86	995.5
2922.71	969
2923.55	971
2924.4	959
2925.25	965.5
2926.1	975
2926.94	970.5
2927.79	964
2928.64	981.5
2929.49	980.5
2930.33	977
2931.18	976
2932.03	986
2932.87	970
2933.72	966
2934.57	970.5
2935.41	975.5
2936.26	949.5
2937.11	939
2937.95	946
2938.8	987.5
2939.64	957.5
2940.49	954.5
2941.33	943
2942.18	934
2943.02	919
2943.87	939
2944.71	923
2945.56	913
2946.4	910.5
2947.25	918
2948.09	890
2948.94	895.5
2949.78	909.5
2950.63	873.5
2951.47	860.5
2952.31	872.5
2953.16	849.5
2954	862
2954.84	875.5
2955.69	868
2956.53	870
2957.37	869.5
2958.22	877.5
2959.06	838
2959.9	861
2960.75	845
2961.59	842.5
2962.43	833
2963.27	859
2964.11	861
2964.96	839.5
2965.8	838
2966.64	823.5
2967.48	844.5
2968.32	830
2969.16	841
2970.01	831
2970.85	819.5
2971.69	814.5
2972.53	823
2973.37	821.5
2974.21	802.5
2975.05	808
2975.89	809.5
2976.73	826.5
2977.57	793
2978.41	802.5
2979.25	788
2980.09	801.5
2980.93	797
2981.77	796.5
2982.61	781.5
2983.45	785.5
2984.29	780.5
2985.13	782.5
2985.97	769
2986.81	786
2987.65	760
2988.49	779
2989.32	756.5
2990.16	765.5
2991	783
2991.84	756.5
2992.68	746.5
2993.51	763
2994.35	759
2995.19	736
2996.03	739.5
2996.86	750
2997.7	744.5
2998.54	745
2999.38	744.5
