#Acq. time (s)=	5
#Accumulations=	5
#Range (cm-¹)=	100...3000
#Windows=	3
#Autofocus=	Off
#AutoExposure=	Off
#Spike filter=	Multiple accum.
#Delay time (s)=	0
#Binning=	1
#Readout mode=	Signal
#DeNoise=	Off
#ICS correction=	Off
#Dark correction=	Off
#Inst. Process=	Off
#Instrument=	LabRAM HR Evol
#Detector=	Syncerity OE
#Objective=	x100_VIS_LWD
#Grating=	600 (500nm)
#ND Filter=	100%
#Laser=	633nm_Edge
#Hole=	100.021
#Range=	Visible
#Project=	Omar
#Sample=	chi
#Site=	f
#Title=	nsno
#Remark=	
#Date=	12.09.2023 17:43
#Acquired=	12.09.2023 17:43:38
101.026	4425.5
102.309	4492.5
103.592	4436
104.875	4369.5
106.158	4334
107.441	4294.5
108.723	4244.5
110.005	4244.5
111.289	4256
112.571	4135
113.852	4087
115.134	4092
116.415	4055.5
117.696	4021
118.976	3990
120.257	3988.5
121.537	3972.5
122.817	3956.5
124.097	3951
125.377	3872
126.656	3907
127.936	3890.5
129.215	3845.5
130.493	3812
131.772	3785
133.049	3809
134.327	3714
135.605	3714
136.883	3707
138.161	3677
139.438	3635.5
140.715	3628.5
141.992	3597.5
143.269	3582
144.545	3564
145.82	3496
147.096	3445.5
148.372	3482
149.648	3445.5
150.924	3396.5
152.199	3385
153.472	3375
154.747	3381
156.022	3343.5
157.296	3294.5
158.571	3256
159.843	3260
161.117	3261.5
162.391	3222
163.664	3267
164.937	3220
166.209	3251.5
167.482	3234.5
168.754	3204
170.025	3178
171.297	3141
172.569	3134
173.841	3132.5
175.111	3116
176.383	3138
177.654	3142.5
178.923	3121.5
180.194	3127
181.464	3109.5
182.733	3102.5
184.003	3097
185.273	3139
186.542	3072
187.811	3126
189.079	3124
190.348	3124
191.617	3112
192.884	3144
194.152	3113.5
195.419	3121.5
196.687	3139
197.955	3123
199.221	3144
200.489	3152.5
201.755	3096.5
203.022	3130.5
204.287	3124.5
205.554	3111
206.818	3176.5
208.085	3163.5
209.349	3166.5
210.615	3181
211.879	3143.5
213.144	3207.5
214.408	3141
215.673	3170
216.936	3184
218.201	3188
219.464	3167
220.728	3205
221.99	3179.5
223.253	3191
224.516	3148
225.778	3167.5
227.041	3224.5
228.303	3189
229.564	3198
230.826	3224
232.087	3207.5
233.348	3248
234.61	3246.5
235.87	3256.5
237.13	3229.5
238.391	3241
239.651	3241
240.91	3228
242.171	3219.5
243.43	3236
244.689	3264
245.949	3244
247.207	3196
248.465	3288
249.723	3282.5
250.983	3237.5
252.24	3262
253.498	3297
254.755	3227
256.013	3257
257.27	3275.5
258.526	3301.5
259.783	3251
261.039	3268
262.296	3247.5
263.552	3229.5
264.808	3245
266.063	3275.5
267.318	3277.5
268.573	3298.5
269.828	3247.5
271.084	3220
272.338	3299
273.592	3258.5
274.846	3260.5
276.1	3287.5
277.353	3231.5
278.607	3271
279.86	3269.5
281.113	3288.5
282.365	3301.5
283.619	3286.5
284.872	3284.5
286.124	3322.5
287.376	3276.5
288.627	3316
289.879	3370
291.13	3338
292.381	3348
293.632	3338
294.883	3377.5
296.133	3375
297.384	3379
298.634	3387
299.883	3377
301.133	3364
302.381	3387
303.63	3385.5
304.879	3370
306.128	3378
307.377	3375
308.625	3380
309.874	3396
311.122	3359.5
312.37	3373.5
313.617	3398
314.863	3353
316.111	3373.5
317.358	3392.5
318.604	3305
319.851	3358
321.098	3345
322.342	3299.5
323.588	3311.5
324.834	3299
326.08	3314
327.325	3285
328.569	3275.5
329.814	3278.5
331.059	3298.5
332.304	3267
333.548	3254.5
334.791	3250
336.035	3272
337.279	3236
338.521	3264.5
339.765	3251.5
341.008	3193
342.251	3182
343.492	3239.5
344.735	3225.5
345.977	3311
347.218	3232
348.46	3243
349.702	3257.5
350.942	3259
352.184	3231
353.425	3253.5
354.665	3261.5
355.905	3276.5
357.145	3252.5
358.385	3247.5
359.625	3254
360.864	3250
362.104	3247.5
363.342	3253
364.581	3288.5
365.819	3249.5
367.058	3255.5
368.296	3298.5
369.534	3236
370.771	3238
372.01	3236.5
373.246	3220
374.484	3243.5
375.72	3236.5
376.958	3239
378.194	3253.5
379.431	3262
380.666	3249
381.903	3216
383.138	3209.5
384.374	3253.5
385.609	3214.5
386.845	3227
388.079	3238
389.313	3228.5
390.548	3254.5
391.782	3207
393.016	3216
394.25	3231
395.483	3248.5
396.718	3246.5
397.95	3244
399.183	3234.5
400.416	3257.5
401.648	3248
402.88	3244.5
404.113	3252
405.345	3305
406.576	3312
407.807	3302
409.04	3298
410.27	3326
411.501	3376.5
412.731	3326.5
413.963	3362
415.193	3342
416.422	3370
417.652	3367.5
418.883	3411.5
420.112	3403
421.341	3390.5
422.569	3351.5
423.798	3404.5
425.028	3418.5
426.256	3399.5
427.484	3391
428.711	3427.5
429.939	3411.5
431.166	3377.5
432.394	3454
433.622	3471.5
434.849	3443
436.075	3417.5
437.302	3457
438.528	3478
439.754	3446
440.98	3488.5
442.205	3461
443.431	3438.5
444.656	3425.5
445.881	3440.5
447.106	3419
448.33	3401.5
449.555	3414
450.779	3453.5
452.003	3376
453.227	3430
454.45	3379
455.674	3375
456.897	3401.5
458.12	3362
459.343	3416
460.566	3408
461.788	3408
463.01	3410.5
464.232	3372.5
465.454	3368.5
466.676	3412
467.897	3399.5
469.119	3449
470.34	3394
471.559	3418
472.78	3395
474.001	3396.5
475.221	3370
476.441	3466
477.661	3414
478.879	3448.5
480.099	3414.5
481.318	3423.5
482.537	3437.5
483.756	3421
484.974	3414
486.192	3419.5
487.411	3427.5
488.629	3448
489.847	3446
491.063	3465.5
492.281	3454.5
493.498	3453.5
494.714	3494.5
495.931	3464
497.148	3451.5
498.365	3441
499.58	3455
500.796	3466.5
502.012	3480.5
503.226	3502
504.442	3484
505.657	3485.5
506.871	3502
508.086	3487.5
509.3	3438
510.515	3447.5
511.729	3489.5
512.942	3503.5
514.156	3460
515.369	3477
516.582	3481.5
517.796	3530
519.008	3502
520.221	3508
521.433	3476
522.645	3472
523.857	3462.5
525.069	3509.5
526.28	3452.5
527.492	3464.5
528.702	3469
529.914	3470
531.124	3522
532.335	3482
533.545	3515
534.756	3485.5
535.965	3491
537.175	3443
538.384	3452.5
539.593	3478.5
540.803	3461.5
542.011	3490
543.221	3475
544.429	3448.5
545.636	3489
546.845	3482.5
548.052	3442
549.261	3474.5
550.468	3434
551.675	3495.5
552.883	3484.5
554.089	3459
555.295	3463
556.503	3450.5
557.709	3475
558.914	3478.5
560.12	3436.5
561.326	3436
562.531	3469.5
563.736	3492.5
564.941	3458.5
566.147	3525
567.351	3494
568.555	3483.5
569.759	3450
570.964	3492.5
572.168	3439.5
573.371	3479
574.574	3488.5
575.777	3510
576.981	3505.5
578.184	3491
579.386	3509
580.588	3440
581.79	3502
582.992	3512.5
584.194	3491
585.395	3513.5
586.598	3479
587.799	3530
589	3561.5
590.201	3507.5
591.401	3533.5
592.601	3532
593.801	3499.5
595.001	3496
596.201	3504.5
597.401	3525.5
598.6	3509.5
599.799	3549
600.998	3549
602.197	3517.5
603.395	3520.5
604.594	3552.5
605.792	3513.5
606.99	3534.5
608.188	3575
609.386	3539
610.583	3528
611.78	3579.5
612.977	3538
614.174	3596
615.371	3565.5
616.566	3599
617.762	3592.5
618.958	3601.5
620.154	3604
621.35	3578.5
622.546	3590.5
623.741	3625
624.935	3612
626.13	3601.5
627.325	3634
628.519	3644
629.714	3620
630.908	3638
632.101	3663
633.295	3649
634.488	3677.5
635.682	3683.5
636.874	3693
638.067	3657.5
639.26	3686
640.453	3693.5
641.644	3702
642.836	3697
644.028	3717
645.219	3655.5
646.411	3703.5
647.602	3677
648.792	3662.5
649.984	3648
651.175	3678.5
652.364	3663.5
653.555	3665.5
654.745	3673.5
655.934	3666
657.124	3712
658.314	3687.5
659.503	3655
660.692	3612.5
661.88	3620.5
663.07	3643.5
664.257	3697.5
665.446	3663.5
666.635	3614.5
667.822	3608
669.01	3651.5
670.197	3653
671.384	3667
672.571	3637
673.758	3632
674.944	3611.5
676.131	3650.5
677.317	3602.5
678.502	3665.5
679.689	3606
680.874	3640
682.06	3616
683.245	3616
684.431	3620.5
685.615	3620
686.799	3555
687.984	3598.5
689.168	3672.5
690.353	3626
691.536	3605.5
692.719	3593.5
693.904	3590
695.086	3566.5
696.269	3583.5
697.453	3599
698.635	3610.5
699.817	3549
701	3600
702.182	3578.5
703.364	3625.5
704.545	3621
705.727	3578.5
706.908	3599.5
708.089	3617.5
709.27	3605.5
710.451	3601.5
711.632	3582
712.812	3591
713.991	3601.5
715.172	3573
716.352	3604.5
717.531	3620.5
718.71	3642.5
719.889	3558
721.068	3602.5
722.248	3599.5
723.426	3591.5
724.604	3636.5
725.782	3593
726.96	3643
728.138	3654
729.315	3679.5
730.492	3624.5
731.669	3608
732.846	3653
734.024	3618
735.201	3659.5
736.377	3632.5
737.553	3612
738.729	3645.5
739.905	3628
741.081	3593.5
742.256	3628
743.431	3617
744.606	3642
745.781	3644
746.956	3626
748.13	3619.5
749.303	3643.5
750.477	3573.5
751.651	3614.5
752.825	3660
753.999	3657.5
755.172	3625
756.345	3570
757.518	3637.5
758.691	3623
759.864	3623.5
761.035	3620.5
762.207	3613
763.379	3619
764.551	3577.5
765.723	3612
766.894	3580.5
768.064	3590
769.236	3589
770.407	3622.5
771.577	3578.5
772.748	3599
773.917	3603
775.088	3565.5
776.258	3582.5
777.427	3625.5
778.596	3587.5
779.765	3607
780.935	3614
782.104	3583
783.272	3568.5
784.44	3598
785.609	3626
786.776	3582
787.944	3582
789.113	3629.5
790.279	3601.5
791.447	3605
792.613	3574
793.78	3603
794.948	3604
796.113	3661.5
797.28	3591.5
798.445	3601.5
799.612	3647
800.778	3644
801.943	3620
803.109	3616.5
804.273	3694.5
805.439	3676
806.603	3608.5
807.768	3635.5
808.932	3650.5
810.096	3669.5
811.26	3673
812.424	3640
813.587	3664.5
814.751	3695.5
815.914	3666.5
817.078	3673
818.24	3691.5
819.402	3708.5
820.565	3672
821.727	3702
822.889	3690
824.051	3668.5
825.212	3704.5
826.374	3703.5
827.535	3732.5
828.697	3684.5
829.857	3684
831.018	3761.5
832.179	3689
833.339	3706.5
834.499	3696
835.659	3685.5
836.819	3706.5
837.978	3700.5
839.137	3726
840.297	3745
841.456	3669.5
842.614	3755.5
843.772	3687.5
844.932	3727.5
846.09	3696.5
847.247	3679.5
848.405	3768.5
849.562	3701.5
850.721	3705.5
851.878	3700.5
853.034	3714
854.191	3714
855.348	3763.5
856.504	3714.5
857.661	3727
858.817	3738
859.973	3739
861.129	3755
862.284	3740.5
863.439	3720
864.594	3729
865.749	3728
866.904	3763.5
868.058	3706.5
869.212	3704
870.367	3656.5
871.522	3675.5
872.676	3687
873.829	3698
874.983	3652
876.136	3637
877.289	3666
878.442	3597
879.593	3681
880.746	3650.5
881.898	3691.5
883.05	3659.5
884.202	3669
885.354	3649.5
886.506	3620.5
887.657	3631
888.808	3653.5
889.96	3603
891.11	3630
892.261	3612.5
893.41	3603
894.561	3643
895.711	3611.5
896.861	3586.5
898.011	3600
899.161	3614
900.309	3563.5
901.458	3603.5
902.607	3594
903.756	3578.5
904.904	3531.5
906.052	3554
907.201	3573
908.349	3580.5
909.496	3566
910.644	3560
911.791	3595
912.939	3603.5
914.085	3542
915.232	3564
916.379	3549.5
917.525	3560.5
918.671	3524
919.818	3591.5
920.963	3565
922.109	3599.5
923.255	3553.5
924.399	3548.5
925.545	3568.5
926.689	3522.5
927.834	3562.5
928.979	3555.5
930.123	3541
931.268	3601.5
932.411	3553.5
933.555	3579.5
934.698	3615.5
935.842	3576.5
936.985	3573.5
938.128	3583
939.271	3598.5
940.414	3618.5
941.556	3551
942.699	3575
943.84	3571
944.983	3548
946.124	3593
947.266	3610.5
948.407	3590
949.547	3601
950.689	3568
951.829	3589.5
952.971	3610.5
954.111	3548
955.25	3576
956.391	3607
957.531	3562
958.67	3595
959.81	3586
960.949	3597.5
962.088	3638
963.227	3626
964.366	3623
965.504	3595
966.643	3599
967.781	3627
968.919	3614
970.056	3609.5
971.195	3600
972.332	3577
973.469	3599
974.605	3643
975.743	3658
976.88	3612.5
978.016	3548.5
979.152	3643.5
980.288	3570.5
981.423	3630.5
982.56	3620
983.696	3608
984.831	3604
985.966	3619
987.101	3595.5
988.235	3647.5
989.37	3628.5
990.504	3622.5
991.638	3605.5
992.773	3612
993.907	3609
995.041	3676
996.174	3678.5
997.307	3696.5
998.44	3765
999.573	3785.5
1000.71	3756.5
1001.84	3710.5
1002.97	3671.5
1004.1	3661
1005.24	3626
1006.37	3555
1007.5	3604
1008.63	3592.5
1009.76	3546.5
1010.89	3584.5
1012.02	3568
1013.15	3545
1014.28	3609
1015.41	3626.5
1016.54	3615.5
1017.67	3559
1018.8	3571
1019.93	3580
1021.06	3539.5
1022.19	3589.5
1023.32	3569.5
1024.45	3558
1025.58	3596.5
1026.71	3590
1027.84	3606
1028.96	3612
1030.09	3589
1031.22	3616
1032.35	3606
1033.47	3593.5
1034.6	3590.5
1035.73	3559
1036.86	3595
1037.98	3570
1039.11	3601
1040.23	3573.5
1041.36	3539
1042.49	3623
1043.61	3600
1044.74	3606
1045.86	3609.5
1046.99	3633
1048.11	3581
1049.24	3612
1050.36	3639.5
1051.49	3599
1052.61	3652
1053.74	3625
1054.86	3630
1055.98	3608
1057.11	3638.5
1058.23	3602.5
1059.35	3619.5
1060.48	3605.5
1061.6	3661
1062.72	3577.5
1063.84	3634
1064.97	3601
1066.09	3620.5
1067.21	3624.5
1068.33	3616
1069.45	3610.5
1070.57	3616
1071.7	3647
1072.82	3616
1073.94	3600
1075.06	3629
1076.18	3595
1077.3	3604.5
1078.42	3622.5
1079.54	3561.5
1080.66	3601.5
1081.78	3608.5
1082.9	3592.5
1084.02	3619.5
1085.14	3624
1086.25	3562
1087.37	3607
1088.49	3602
1089.61	3579
1090.73	3602
1091.84	3600.5
1092.96	3601
1094.08	3590.5
1095.2	3627.5
1096.31	3597.5
1097.43	3610.5
1098.55	3588.5
1099.66	3627.5
1100.78	3559.5
1101.9	3630.5
1103.01	3604
1104.13	3578.5
1105.25	3590
1106.36	3581.5
1107.48	3554
1108.59	3619.5
1109.71	3564
1110.82	3584
1111.93	3573.5
1113.05	3553.5
1114.16	3588.5
1115.28	3588.5
1116.39	3585
1117.51	3562
1118.62	3590
1119.73	3549.5
1120.85	3626.5
1121.96	3587
1123.07	3561
1124.18	3581
1125.3	3600.5
1126.41	3583.5
1127.52	3604.5
1128.63	3625.5
1129.74	3615.5
1130.85	3592
1131.97	3572.5
1133.08	3587.5
1134.19	3584
1135.3	3600
1136.41	3639.5
1137.52	3664.5
1138.63	3596.5
1139.74	3560.5
1140.85	3637.5
1141.96	3647
1143.07	3629
1144.18	3631
1145.29	3689
1146.4	3635.5
1147.51	3687.5
1148.61	3650.5
1149.72	3665
1150.83	3664.5
1151.94	3700
1153.05	3700.5
1154.15	3725.5
1155.26	3737.5
1156.37	3767.5
1157.48	3760
1158.58	3809.5
1159.69	3798.5
1160.8	3799.5
1161.9	3799.5
1163.01	3859.5
1164.11	3813.5
1165.22	3873.5
1166.33	3858.5
1167.43	3903
1168.54	3869
1169.64	3873
1170.75	3867.5
1171.85	3883
1172.96	3856
1174.06	3832.5
1175.17	3844
1176.27	3848.5
1177.37	3842
1178.48	3851
1179.58	3817.5
1180.68	3763.5
1181.79	3808.5
1182.89	3794.5
1183.99	3750
1185.1	3753.5
1186.2	3779
1187.3	3790.5
1188.4	3751
1189.5	3769
1190.61	3771.5
1191.71	3760.5
1192.81	3711
1193.91	3739
1195.01	3732.5
1196.11	3715.86
1197.21	3739.78
1198.31	3775.63
1199.42	3742.49
1200.51	3750.55
1201.61	3739.19
1202.72	3709.43
1203.81	3748.99
1204.91	3724.66
1206.01	3709.34
1207.11	3725.21
1208.21	3706.63
1209.31	3752.24
1210.41	3703.29
1211.51	3681.15
1212.61	3700.86
1213.7	3702.05
1214.8	3731.59
1215.9	3711.51
1217	3687.66
1218.09	3681.9
1219.19	3658.7
1220.29	3700.75
1221.38	3701.75
1222.48	3711.7
1223.58	3699.55
1224.67	3690.08
1225.77	3675.96
1226.87	3683.27
1227.96	3715.87
1229.06	3691.84
1230.15	3688.73
1231.25	3675.91
1232.34	3702.97
1233.44	3683.15
1234.53	3711.42
1235.63	3704.46
1236.72	3711.7
1237.81	3693.15
1238.91	3674.99
1240	3704.58
1241.1	3707.94
1242.19	3718.04
1243.28	3715.83
1244.38	3720.19
1245.47	3699.64
1246.56	3689.87
1247.65	3712.16
1248.75	3721.13
1249.84	3757.3
1250.93	3733.95
1252.02	3744.9
1253.11	3769.05
1254.21	3749.38
1255.3	3763
1256.39	3752.88
1257.48	3781.2
1258.57	3748.41
1259.66	3769.45
1260.75	3771.62
1261.84	3773.3
1262.93	3776.63
1264.02	3781.55
1265.11	3781.27
1266.2	3790.49
1267.29	3785.01
1268.38	3776.07
1269.47	3803.04
1270.56	3806.45
1271.65	3788.58
1272.73	3779.52
1273.82	3807.84
1274.91	3826.99
1276	3793.69
1277.09	3780.38
1278.17	3791.19
1279.26	3814.73
1280.35	3775.35
1281.43	3783.25
1282.52	3798.36
1283.61	3801.64
1284.69	3810.63
1285.78	3837.29
1286.87	3846.7
1287.95	3824.88
1289.04	3835.51
1290.13	3854.55
1291.21	3827.62
1292.3	3819.28
1293.38	3817.71
1294.47	3863.01
1295.55	3798.27
1296.64	3791.18
1297.72	3815.5
1298.8	3809.32
1299.89	3789.91
1300.97	3820.04
1302.06	3774.03
1303.14	3766.86
1304.22	3768.23
1305.31	3776.33
1306.39	3776.71
1307.34	3746.5
1308.43	3799.5
1309.52	3780
1310.6	3804
1311.69	3796.5
1312.78	3721
1313.87	3734
1314.96	3730
1316.04	3728
1317.13	3744.5
1318.21	3777
1319.3	3717
1320.39	3736.5
1321.47	3752.5
1322.56	3765
1323.65	3720.5
1324.73	3716.5
1325.82	3737
1326.9	3718
1327.99	3729
1329.07	3692
1330.16	3695
1331.24	3732
1332.32	3697
1333.41	3709.5
1334.49	3730.5
1335.58	3764
1336.66	3702.5
1337.74	3704
1338.83	3619
1339.91	3714.5
1340.99	3677
1342.08	3727
1343.16	3684.5
1344.24	3669.5
1345.32	3680
1346.41	3673
1347.49	3673
1348.57	3679.5
1349.65	3665
1350.73	3611.5
1351.81	3682.5
1352.9	3704.5
1353.98	3655
1355.06	3680
1356.14	3675
1357.22	3678.5
1358.3	3626
1359.38	3640
1360.46	3648.5
1361.54	3589.5
1362.62	3660.5
1363.7	3600.5
1364.78	3605
1365.85	3646
1366.93	3635.5
1368.01	3593.5
1369.09	3616
1370.17	3652
1371.25	3567
1372.33	3605.5
1373.4	3589
1374.48	3602
1375.56	3597
1376.64	3617.5
1377.71	3570
1378.79	3613
1379.87	3601
1380.94	3549
1382.02	3560.5
1383.1	3599.5
1384.17	3586
1385.25	3563
1386.32	3549
1387.4	3532.5
1388.47	3551
1389.55	3509.5
1390.63	3527.5
1391.7	3497
1392.77	3489
1393.85	3478
1394.92	3484
1396	3470
1397.07	3489
1398.15	3494.5
1399.22	3515.5
1400.29	3495
1401.37	3491.5
1402.44	3518.5
1403.51	3480
1404.59	3468.5
1405.66	3504.5
1406.73	3486
1407.8	3514
1408.87	3449.5
1409.95	3450.5
1411.02	3459.5
1412.09	3448.5
1413.16	3424.5
1414.23	3470.5
1415.3	3429.5
1416.38	3460.5
1417.45	3401.5
1418.52	3480
1419.59	3455.5
1420.66	3425
1421.73	3391.5
1422.8	3442
1423.87	3443.5
1424.94	3454.5
1426.01	3440.5
1427.08	3424.5
1428.15	3417.5
1429.21	3461
1430.28	3441
1431.35	3454
1432.42	3488.5
1433.49	3422
1434.56	3452
1435.63	3448
1436.69	3437.5
1437.76	3450
1438.83	3478
1439.89	3486
1440.96	3451
1442.03	3474.5
1443.1	3469.5
1444.16	3464
1445.23	3500.5
1446.3	3455.5
1447.36	3431.5
1448.43	3510
1449.49	3502
1450.56	3442.5
1451.62	3434.5
1452.69	3454.5
1453.75	3449
1454.82	3436
1455.88	3441.5
1456.95	3479.5
1458.01	3524.5
1459.08	3469
1460.14	3486.5
1461.2	3454.5
1462.27	3486
1463.33	3469.5
1464.4	3470.5
1465.46	3521
1466.52	3418.5
1467.58	3454.5
1468.65	3456
1469.71	3458.5
1470.77	3482.5
1471.83	3468
1472.9	3484
1473.96	3457
1475.02	3479.5
1476.08	3446
1477.14	3496.5
1478.2	3492
1479.27	3509
1480.33	3493
1481.39	3481
1482.45	3469
1483.51	3505.5
1484.57	3547
1485.63	3480
1486.69	3472
1487.75	3477.5
1488.81	3502.5
1489.87	3536
1490.93	3499.5
1491.99	3547
1493.04	3554.5
1494.1	3588
1495.16	3535.5
1496.22	3521.5
1497.28	3489
1498.34	3568.5
1499.39	3545
1500.45	3544
1501.51	3559
1502.57	3559
1503.62	3562.5
1504.68	3592.5
1505.74	3581
1506.79	3561.5
1507.85	3549.5
1508.91	3572
1509.96	3572
1511.02	3633
1512.07	3582.5
1513.13	3585
1514.19	3638
1515.24	3628.5
1516.3	3589
1517.35	3647.5
1518.41	3657
1519.46	3635
1520.52	3637
1521.57	3638.5
1522.62	3668.5
1523.68	3653
1524.73	3650.5
1525.79	3639.5
1526.84	3639.5
1527.89	3589
1528.95	3666.5
1530	3645
1531.05	3641
1532.1	3673
1533.16	3606.5
1534.21	3610.5
1535.26	3606.5
1536.31	3600.5
1537.37	3609.5
1538.42	3635.5
1539.47	3573.5
1540.52	3620.5
1541.57	3606.5
1542.62	3610.5
1543.67	3575
1544.72	3645
1545.78	3623.5
1546.83	3640
1547.88	3626
1548.93	3613.5
1549.98	3618.5
1551.03	3652
1552.07	3623.5
1553.12	3644.5
1554.17	3659.5
1555.22	3656.5
1556.27	3636
1557.32	3668
1558.37	3648.5
1559.42	3627
1560.47	3639
1561.51	3665
1562.56	3670.5
1563.61	3684.5
1564.66	3655.5
1565.7	3656.5
1566.75	3605.5
1567.8	3620
1568.85	3621.5
1569.89	3625
1570.94	3644
1571.98	3611
1573.03	3588
1574.08	3630.5
1575.12	3627
1576.17	3658.5
1577.21	3612
1578.26	3607.5
1579.31	3597
1580.35	3643.5
1581.4	3618.5
1582.44	3616.5
1583.49	3630.5
1584.53	3594.5
1585.57	3589
1586.62	3619.5
1587.66	3628.5
1588.71	3624.5
1589.75	3637.5
1590.79	3666.5
1591.84	3624
1592.88	3635
1593.92	3617
1594.97	3648
1596.01	3629.5
1597.05	3626.5
1598.09	3571.5
1599.14	3604
1600.18	3590.5
1601.22	3553.5
1602.26	3539.5
1603.3	3534.5
1604.34	3490
1605.38	3488
1606.43	3442.5
1607.47	3453
1608.51	3478
1609.55	3361
1610.59	3389
1611.63	3330.5
1612.67	3281
1613.71	3309.5
1614.75	3250
1615.79	3263.5
1616.83	3286.5
1617.87	3210.5
1618.91	3224
1619.94	3209
1620.98	3157
1622.02	3164.5
1623.06	3099.5
1624.1	3104.5
1625.14	3060
1626.17	3074.5
1627.21	3031
1628.25	3009
1629.29	2993
1630.32	2949.5
1631.36	2954.5
1632.4	2937.5
1633.43	2940.5
1634.47	2868.5
1635.51	2870
1636.54	2819
1637.58	2817
1638.62	2820.5
1639.65	2818.5
1640.69	2758.5
1641.72	2769.5
1642.76	2715
1643.79	2761.5
1644.83	2695.5
1645.86	2619.5
1646.9	2672.5
1647.93	2664.5
1648.97	2599
1650	2599.5
1651.04	2608.5
1652.07	2584.5
1653.1	2581
1654.14	2544
1655.17	2533
1656.2	2515.5
1657.24	2511
1658.27	2495.5
1659.3	2478
1660.34	2466
1661.37	2459.5
1662.4	2425.5
1663.43	2416.5
1664.46	2439
1665.5	2411
1666.53	2436
1667.56	2377
1668.59	2395
1669.62	2324
1670.65	2347
1671.68	2357
1672.71	2334.5
1673.74	2294.5
1674.77	2334
1675.8	2339
1676.83	2297
1677.86	2316.5
1678.89	2317
1679.92	2300.5
1680.95	2280
1681.98	2274.5
1683.01	2299.5
1684.04	2252.5
1685.07	2288
1686.1	2237.5
1687.13	2219
1688.15	2206
1689.18	2237
1690.21	2226
1691.24	2201.5
1692.27	2217
1693.29	2223
1694.32	2201
1695.35	2229
1696.37	2169
1697.4	2186.5
1698.43	2162
1699.45	2170.5
1700.48	2173.5
1701.51	2209.5
1702.53	2170
1703.56	2159.5
1704.58	2142.5
1705.61	2164
1706.64	2143.5
1707.66	2110.5
1708.69	2138.5
1709.71	2120.5
1710.73	2115
1711.76	2111
1712.78	2087.5
1713.81	2099.5
1714.83	2085.5
1715.86	2089
1716.88	2083.5
1717.9	2109.5
1718.93	2092.5
1719.95	2060
1720.97	2063.5
1722	2084.5
1723.02	2058.5
1724.04	2047
1725.06	2043
1726.09	2071.5
1727.11	2046.5
1728.13	2024.5
1729.15	2043
1730.17	2053.5
1731.2	2026.5
1732.22	2018.5
1733.24	2031
1734.26	2013
1735.28	2002.5
1736.3	2022.5
1737.32	1976
1738.34	1998.5
1739.36	1980
1740.38	2035.5
1741.4	1965
1742.42	1998
1743.44	1956.5
1744.46	1959
1745.48	1983
1746.5	1968.5
1747.52	1963
1748.54	1942.5
1749.56	1933.5
1750.57	1963.5
1751.59	1897
1752.61	1928
1753.63	1929.5
1754.65	1926
1755.66	1938
1756.68	1925.5
1757.7	1903.5
1758.72	1909
1759.73	1892.5
1760.75	1926
1761.77	1937
1762.78	1891.5
1763.8	1877.5
1764.82	1905
1765.83	1877
1766.85	1881
1767.86	1886.5
1768.88	1873
1769.9	1854
1770.91	1881
1771.93	1883
1772.94	1863.5
1773.96	1861
1774.97	1850.5
1775.99	1897
1777	1857
1778.01	1854
1779.03	1830.5
1780.04	1839.5
1781.06	1828.5
1782.07	1825.5
1783.08	1846
1784.1	1841.5
1785.11	1822.5
1786.12	1854
1787.14	1821
1788.15	1815.5
1789.16	1825.5
1790.17	1854
1791.18	1777
1792.2	1797
1793.21	1806.5
1794.22	1787
1795.23	1821
1796.24	1759.5
1797.26	1786.5
1798.27	1808.5
1799.28	1758.5
1800.29	1779.5
1801.3	1766
1802.31	1794
1803.32	1788.5
1804.33	1780.5
1805.34	1760
1806.35	1747.5
1807.36	1719.5
1808.37	1741
1809.38	1726.5
1810.39	1748
1811.4	1732
1812.4	1726.5
1813.41	1716.5
1814.42	1736
1815.43	1722
1816.44	1750.5
1817.45	1725
1818.45	1734
1819.46	1710.5
1820.47	1694
1821.48	1725
1822.49	1713.5
1823.49	1719
1824.5	1689.5
1825.51	1693.5
1826.51	1666.5
1827.52	1709
1828.53	1691
1829.53	1703
1830.54	1694.5
1831.54	1687
1832.55	1674
1833.56	1680
1834.56	1694.5
1835.57	1659
1836.57	1675.5
1837.58	1676.5
1838.58	1646
1839.59	1636
1840.59	1624
1841.59	1646.5
1842.6	1629
1843.6	1634.5
1844.61	1642.5
1845.61	1651
1846.61	1643
1847.62	1635
1848.62	1622.5
1849.62	1621
1850.63	1622
1851.63	1642.5
1852.63	1629.5
1853.64	1608.5
1854.64	1614
1855.64	1613.5
1856.64	1612.5
1857.64	1610
1858.65	1581.5
1859.65	1626
1860.65	1610.5
1861.65	1614
1862.65	1591
1863.65	1594.5
1864.65	1604
1865.65	1573
1866.65	1613.5
1867.65	1573
1868.65	1595
1869.65	1569
1870.65	1585
1871.65	1565.5
1872.65	1571
1873.65	1555
1874.65	1552.5
1875.65	1573
1876.65	1537
1877.65	1550.5
1878.65	1540
1879.65	1543
1880.65	1538.5
1881.64	1553.5
1882.64	1521
1883.64	1538.5
1884.64	1547
1885.63	1570
1886.63	1543.5
1887.63	1543
1888.63	1515.5
1889.62	1563.5
1890.62	1530.5
1891.62	1529.5
1892.61	1550.5
1893.61	1514
1894.61	1500.5
1895.6	1504.5
1896.6	1511.5
1897.59	1537.5
1898.59	1526
1899.58	1497.5
1900.58	1498.5
1901.57	1488
1902.57	1519.5
1903.56	1525.5
1904.56	1529
1905.55	1526.5
1906.55	1496
1907.54	1514
1908.54	1508
1909.53	1487.5
1910.52	1497
1911.52	1511
1912.51	1486
1913.5	1485
1914.5	1472
1915.49	1500.5
1916.48	1522.5
1917.48	1494.5
1918.47	1495.5
1919.46	1489
1920.45	1473
1921.44	1449.5
1922.44	1488
1923.43	1484.5
1924.42	1478.5
1925.41	1464.5
1926.4	1440
1927.39	1473
1928.38	1479
1929.38	1467.5
1930.37	1467.5
1931.36	1451.5
1932.35	1465
1933.34	1455.5
1934.33	1460.5
1935.32	1459
1936.31	1441.5
1937.3	1454
1938.29	1430
1939.28	1440.5
1940.26	1467
1941.25	1464.5
1942.24	1479
1943.23	1453.5
1944.22	1454.5
1945.21	1438
1946.2	1451.5
1947.18	1442.5
1948.17	1437.5
1949.16	1463
1950.15	1444.75
1951.13	1426.5
1952.12	1422
1953.11	1431.5
1954.1	1420
1955.08	1399
1956.07	1401
1957.06	1414.5
1958.04	1377.5
1959.03	1416.5
1960.01	1432
1961	1417
1961.99	1408
1962.97	1388.5
1963.96	1414
1964.94	1391
1965.93	1395
1966.91	1399.5
1967.9	1383.5
1968.88	1395.5
1969.87	1400
1970.85	1397
1971.84	1369.5
1972.82	1367
1973.81	1382.5
1974.79	1367.5
1975.77	1409.5
1976.76	1366.5
1977.74	1367
1978.72	1391
1979.71	1390
1980.69	1370.5
1981.67	1367
1982.65	1370
1983.64	1373
1984.62	1369
1985.6	1367
1986.58	1360.5
1987.56	1369.5
1988.55	1355
1989.53	1382.5
1990.51	1331.5
1991.49	1372.5
1992.47	1352.5
1993.45	1345.5
1994.43	1342.5
1995.41	1347
1996.39	1364
1997.37	1346.5
1998.36	1327.5
1999.34	1328
2000.31	1345
2001.29	1336.5
2002.27	1333.5
2003.25	1316.5
2004.23	1342.5
2005.21	1335.5
2006.19	1317.5
2007.17	1315
2008.15	1343
2009.13	1351
2010.11	1314.5
2011.08	1322
2012.06	1330.5
2013.04	1330
2014.02	1311
2015	1306
2015.97	1279
2016.95	1330
2017.93	1313
2018.91	1289.5
2019.88	1326
2020.86	1300.5
2021.83	1307
2022.81	1311
2023.79	1312
2024.76	1291
2025.74	1302
2026.72	1307.5
2027.69	1296.5
2028.67	1251
2029.64	1295.5
2030.62	1276.5
2031.59	1290.5
2032.57	1292
2033.54	1292.5
2034.52	1292
2035.49	1276
2036.47	1256
2037.44	1279.5
2038.41	1284
2039.39	1284
2040.36	1277
2041.34	1281.5
2042.31	1256.5
2043.28	1270.5
2044.26	1273
2045.23	1287.5
2046.2	1273.5
2047.17	1258
2048.15	1282.5
2049.12	1283
2050.09	1274
2051.06	1266
2052.04	1260
2053.01	1276
2053.98	1257
2054.95	1259
2055.92	1241
2056.89	1234
2057.86	1249.5
2058.84	1236
2059.81	1283
2060.78	1234.5
2061.75	1255.5
2062.72	1257.5
2063.69	1223
2064.66	1230.5
2065.63	1245.5
2066.6	1228
2067.57	1213
2068.54	1235
2069.51	1219
2070.48	1234.5
2071.44	1220.5
2072.41	1232
2073.38	1232.5
2074.35	1198.5
2075.32	1208
2076.29	1223.5
2077.26	1234.5
2078.22	1235.5
2079.19	1210.5
2080.16	1198.5
2081.13	1209
2082.09	1245.5
2083.06	1234.5
2084.03	1233.5
2085	1209
2085.96	1210.5
2086.93	1209.5
2087.9	1234.5
2088.86	1223.5
2089.83	1227.5
2090.79	1203.5
2091.76	1211.5
2092.73	1202.5
2093.69	1201
2094.66	1206.5
2095.62	1207
2096.59	1205.5
2097.55	1236.5
2098.52	1205.5
2099.48	1212.5
2100.45	1197.5
2101.41	1219
2102.38	1227
2103.34	1240.5
2104.3	1234.5
2105.27	1239
2106.23	1214
2107.19	1240
2108.16	1250
2109.12	1257.5
2110.08	1285.5
2111.05	1257.5
2112.01	1296
2112.97	1269
2113.94	1321
2114.9	1321.5
2115.86	1323.5
2116.82	1330
2117.78	1368.5
2118.75	1400.5
2119.71	1380.5
2120.67	1405
2121.63	1432.5
2122.59	1433
2123.55	1433.5
2124.51	1464
2125.47	1427.5
2126.43	1473
2127.4	1468
2128.36	1472
2129.32	1478
2130.28	1490.5
2131.24	1498.5
2132.2	1440.5
2133.16	1468.5
2134.11	1460.5
2135.07	1474
2136.03	1456.5
2136.99	1423.5
2137.95	1400.5
2138.91	1410.5
2139.87	1379.5
2140.83	1381.5
2141.78	1366
2142.74	1406.5
2143.7	1366.5
2144.66	1350
2145.62	1338.62
2146.57	1337.63
2147.53	1337.22
2148.49	1337.5
2149.45	1309.13
2150.4	1302.61
2151.36	1293.95
2152.32	1275.43
2153.27	1275.76
2154.23	1282.66
2155.19	1265.4
2156.14	1282.5
2157.1	1275.74
2158.05	1264.99
2159.01	1243.03
2159.96	1254.94
2160.92	1221.02
2161.88	1231.84
2162.83	1221.91
2163.78	1210.15
2164.74	1196.78
2165.69	1180.51
2166.65	1167.54
2167.6	1191.13
2168.56	1172.11
2169.51	1163.55
2170.47	1176.3
2171.42	1175.69
2172.37	1164.76
2173.33	1150.01
2174.28	1138.37
2175.23	1136.35
2176.19	1140.03
2177.14	1131.99
2178.09	1131.57
2179.04	1128.87
2180	1100.62
2180.95	1100.16
2181.9	1102.95
2182.85	1100.31
2183.81	1100.88
2184.76	1071.26
2185.71	1093.83
2186.66	1082.58
2187.61	1074.63
2188.56	1073.42
2189.51	1058.38
2190.46	1063.15
2191.42	1072.83
2192.37	1050.7
2193.32	1042.82
2194.27	1050.47
2195.22	1030
2196.17	1051.35
2197.12	1045.49
2198.07	1037.62
2199.02	1036.17
2199.97	1046.46
2200.92	1037.46
2201.86	1025.55
2202.81	1039.45
2203.76	1026.82
2204.71	1018.64
2205.66	1018.47
2206.61	1024.68
2207.56	1020.49
2208.5	1018.89
2209.45	1029.95
2210.4	1036.68
2211.35	1022.37
2212.3	1017.38
2213.24	1029.33
2214.19	1021.32
2215.14	1017.92
2216.08	1017.22
2217.03	1012.03
2217.98	1003.18
2218.92	999.59
2219.87	1012.9
2220.82	1003.23
2221.76	1002.81
2222.71	1006.84
2223.65	995.566
2224.6	1001.55
2225.55	1002.71
2226.49	1003.51
2227.44	1005.82
2228.38	990.652
2229.33	989.361
2230.27	992.034
2231.22	1001.99
2232.16	995.863
2233.11	999.331
2234.05	992.305
2234.99	983.223
2235.94	983.329
2236.88	983.954
2237.83	979.085
2238.77	978.682
2239.71	993.3
2240.66	993.452
2241.6	998.854
2242.06	1010.5
2243.01	983.5
2243.96	1011.5
2244.91	984.5
2245.85	1009.5
2246.8	1021.5
2247.75	993.5
2248.7	1002
2249.64	976.5
2250.59	1001.5
2251.54	1005.5
2252.48	994.5
2253.43	984
2254.38	966.5
2255.32	982
2256.27	968.5
2257.21	967.5
2258.16	977.5
2259.1	945.5
2260.05	978
2260.99	953
2261.94	971
2262.89	955.5
2263.83	956.5
2264.77	934
2265.72	920
2266.66	920
2267.61	953
2268.55	942
2269.5	931.5
2270.44	922
2271.38	948
2272.33	906
2273.27	932
2274.21	917
2275.16	918
2276.1	909
2277.04	930
2277.98	904.5
2278.93	910
2279.87	926.5
2280.81	905
2281.75	918
2282.7	906.5
2283.64	914.5
2284.58	924.5
2285.52	898
2286.46	889.5
2287.4	893.5
2288.34	877
2289.29	887.5
2290.23	893
2291.17	912.5
2292.11	908
2293.05	898
2293.99	912.5
2294.93	893.5
2295.87	887
2296.81	881
2297.75	890.5
2298.69	900.5
2299.63	876.5
2300.57	891.5
2301.51	880.5
2302.44	881
2303.38	879
2304.32	887.5
2305.26	876.5
2306.2	888.5
2307.14	868
2308.08	867.5
2309.01	864.5
2309.95	881.5
2310.89	869
2311.83	863
2312.77	869
2313.7	882
2314.64	876.5
2315.58	857.5
2316.51	877
2317.45	873.5
2318.39	867
2319.32	853.5
2320.26	855.5
2321.2	868.5
2322.13	861.5
2323.07	864.5
2324	880.5
2324.94	857.5
2325.88	871.5
2326.81	840
2327.75	841
2328.68	874
2329.62	837
2330.55	844.5
2331.49	853
2332.42	849
2333.35	836.5
2334.29	850.5
2335.22	859
2336.16	840.5
2337.09	825
2338.02	826
2338.96	862.5
2339.89	853.5
2340.82	846.5
2341.76	844.5
2342.69	861
2343.62	822.5
2344.56	817
2345.49	838.5
2346.42	804
2347.35	827.5
2348.29	818.5
2349.22	847.5
2350.15	833
2351.08	841.5
2352.01	836
2352.94	845.5
2353.88	824
2354.81	811.5
2355.74	825
2356.67	814
2357.6	838.5
2358.53	830
2359.46	830
2360.39	834
2361.32	834.5
2362.25	834
2363.18	817.5
2364.11	823
2365.04	824.5
2365.97	822
2366.9	829.5
2367.83	826.5
2368.76	824
2369.69	825
2370.62	810.5
2371.55	808
2372.47	793.5
2373.4	822.5
2374.33	787
2375.26	810.5
2376.19	793.5
2377.11	823.5
2378.04	809
2378.97	778.5
2379.9	815
2380.83	799.5
2381.75	809.5
2382.68	785.5
2383.61	781
2384.53	804
2385.46	803
2386.39	797.5
2387.31	797
2388.24	798
2389.17	777.5
2390.09	788
2391.02	805.5
2391.94	786.5
2392.87	785
2393.79	777
2394.72	797
2395.64	786.5
2396.57	768.5
2397.49	780
2398.42	781.5
2399.34	793.5
2400.27	785
2401.19	794.5
2402.12	781.5
2403.04	788
2403.96	770
2404.89	777
2405.81	775
2406.74	774
2407.66	776
2408.58	773
2409.51	773
2410.43	766
2411.35	764.5
2412.27	750
2413.2	780
2414.12	759
2415.04	772.5
2415.96	781
2416.89	749
2417.81	756.5
2418.73	771
2419.65	766
2420.57	757
2421.49	760.5
2422.41	771
2423.34	766.5
2424.26	772
2425.18	747.5
2426.1	759.5
2427.02	757
2427.94	735
2428.86	760.5
2429.78	734
2430.7	743
2431.62	772
2432.54	758.5
2433.46	750.5
2434.38	767
2435.3	743
2436.22	740
2437.13	734.5
2438.05	746.5
2438.97	746
2439.89	732.5
2440.81	751.5
2441.73	737
2442.65	760
2443.56	738
2444.48	756.5
2445.4	748.5
2446.32	737
2447.24	737.5
2448.15	737
2449.07	727.5
2449.99	747
2450.9	750
2451.82	735
2452.74	750
2453.65	739.5
2454.57	732.5
2455.49	717
2456.4	733
2457.32	719
2458.23	720
2459.15	721
2460.07	720.5
2460.98	729.5
2461.9	724
2462.81	743.5
2463.73	705
2464.64	733
2465.56	715.5
2466.47	714
2467.39	696.5
2468.3	707
2469.21	717
2470.13	716
2471.04	724.5
2471.96	725.5
2472.87	703
2473.78	712.5
2474.7	706
2475.61	719
2476.52	709
2477.44	704.5
2478.35	728.5
2479.26	716.5
2480.17	704
2481.09	693
2482	728
2482.91	711
2483.82	707
2484.74	677
2485.65	719
2486.56	716.5
2487.47	730
2488.38	697
2489.29	708.5
2490.21	696
2491.12	688.5
2492.03	698
2492.94	715.5
2493.85	709.5
2494.76	692
2495.67	695
2496.58	706
2497.49	683
2498.4	698.5
2499.31	682.5
2500.22	674
2501.13	710.5
2502.04	697
2502.95	684
2503.86	688
2504.76	686.5
2505.67	677
2506.58	689.5
2507.49	678
2508.4	681
2509.31	683.5
2510.22	670
2511.12	673.5
2512.03	710
2512.94	687
2513.85	682
2514.76	679.5
2515.66	668.5
2516.57	670
2517.48	677
2518.38	684
2519.29	661.5
2520.2	677
2521.1	647
2522.01	666
2522.92	668
2523.82	664.5
2524.73	678
2525.64	655.5
2526.54	670.5
2527.45	660.5
2528.35	666
2529.26	658
2530.16	672.5
2531.07	665.5
2531.97	656.5
2532.88	659.5
2533.78	644
2534.69	651
2535.59	674.5
2536.5	666
2537.4	647
2538.31	639.5
2539.21	649.5
2540.11	667.5
2541.02	657
2541.92	650
2542.82	658.5
2543.73	644
2544.63	646
2545.53	672
2546.44	637
2547.34	650
2548.24	631
2549.14	639
2550.05	649.5
2550.95	656
2551.85	638
2552.75	641
2553.65	649.5
2554.56	648.5
2555.46	654.5
2556.36	629
2557.26	654
2558.16	645.5
2559.06	639
2559.96	628
2560.86	633.5
2561.76	618.5
2562.67	627
2563.57	617
2564.47	643
2565.37	616
2566.27	638.5
2567.17	634.5
2568.06	634
2568.96	631.5
2569.86	622
2570.76	641.5
2571.66	632
2572.56	630.5
2573.46	618.5
2574.36	604.5
2575.26	608
2576.16	609
2577.05	624
2577.95	622
2578.85	624
2579.75	621
2580.65	631
2581.54	621
2582.44	619.5
2583.34	630
2584.24	616.5
2585.13	606
2586.03	608
2586.93	603.5
2587.83	614.5
2588.72	598
2589.62	610.5
2590.51	618
2591.41	602
2592.31	616
2593.2	622
2594.1	598
2594.99	613.5
2595.89	601
2596.79	604
2597.68	601.5
2598.58	602
2599.47	594.5
2600.37	623.5
2601.26	616
2602.16	596
2603.05	591.5
2603.94	587.5
2604.84	601
2605.73	606.5
2606.63	601.5
2607.52	590
2608.42	602
2609.31	600
2610.2	608
2611.1	599.5
2611.99	604
2612.88	609.5
2613.78	599.5
2614.67	586
2615.56	599
2616.45	585
2617.35	600.5
2618.24	579.5
2619.13	584
2620.02	593.5
2620.91	594
2621.81	570.5
2622.7	587
2623.59	589
2624.48	581
2625.37	588.5
2626.26	577
2627.15	581
2628.04	583
2628.94	577
2629.83	564
2630.72	590
2631.61	564.5
2632.5	599
2633.39	568
2634.28	568
2635.17	561
2636.06	578
2636.95	564
2637.84	567.5
2638.73	575.5
2639.61	565.5
2640.5	560
2641.39	556
2642.28	582
2643.17	575
2644.06	562.5
2644.95	570.5
2645.84	570
2646.72	571
2647.61	574
2648.5	548
2649.39	562.5
2650.28	546
2651.16	563.5
2652.05	563
2652.94	551.5
2653.82	545.5
2654.71	531
2655.6	555
2656.49	567
2657.37	554.5
2658.26	541.5
2659.14	559
2660.03	557.5
2660.92	566.5
2661.8	535
2662.69	555
2663.57	548.5
2664.46	547
2665.35	549.5
2666.23	534
2667.12	537.5
2668	551
2668.89	547
2669.77	555.5
2670.66	554.5
2671.54	542
2672.42	543
2673.31	543
2674.19	546.5
2675.08	548.5
2675.96	539.5
2676.84	555
2677.73	558
2678.61	551
2679.49	538
2680.38	534
2681.26	535.5
2682.14	527.5
2683.03	541
2683.91	553
2684.79	530
2685.68	551
2686.56	540
2687.44	542.5
2688.32	539.5
2689.2	545.5
2690.09	542.5
2690.97	555
2691.85	537
2692.73	534
2693.61	534.5
2694.49	528
2695.37	540.5
2696.25	531
2697.14	515
2698.02	536.5
2698.9	523.5
2699.78	528
2700.66	514
2701.54	535
2702.42	519
2703.3	526
2704.18	538.5
2705.06	546.5
2705.94	518
2706.82	536
2707.7	506
2708.57	527
2709.45	517
2710.33	527.5
2711.21	529
2712.09	517.5
2712.97	526
2713.85	514
2714.72	537.5
2715.6	527.5
2716.48	508
2717.36	518.5
2718.24	524.5
2719.11	521
2719.99	526
2720.87	523.5
2721.75	495
2722.62	497
2723.5	531
2724.38	519
2725.25	517.5
2726.13	506
2727.01	502
2727.88	509
2728.76	509.5
2729.63	514
2730.51	508.5
2731.39	519
2732.26	503
2733.14	501.5
2734.01	509
2734.89	507.5
2735.76	499
2736.64	501.5
2737.51	513
2738.39	484
2739.26	499.5
2740.14	512
2741.01	511.5
2741.89	487
2742.76	503
2743.63	513
2744.51	510
2745.38	501
2746.26	494
2747.13	506
2748	493
2748.88	499.5
2749.75	495
2750.62	495.5
2751.5	499
2752.37	483
2753.24	482
2754.11	476
2754.99	497
2755.86	484
2756.73	492
2757.6	466
2758.47	493
2759.35	487
2760.22	476
2761.09	482.5
2761.96	487
2762.83	495
2763.7	495
2764.57	481.5
2765.44	478.5
2766.32	489.5
2767.19	481.5
2768.06	481
2768.93	476
2769.8	488.5
2770.67	488
2771.54	480
2772.41	467
2773.28	473
2774.15	460
2775.02	489
2775.89	476
2776.75	478.5
2777.62	476
2778.49	467.5
2779.36	478.5
2780.23	466
2781.1	459
2781.97	471.5
2782.84	459
2783.7	453
2784.57	477
2785.44	476
2786.31	464
2787.18	473.5
2788.04	455.5
2788.91	464.5
2789.78	487
2790.64	469.5
2791.51	455.5
2792.38	454
2793.24	459.5
2794.11	474
2794.98	453.5
2795.85	450.5
2796.71	468.5
2797.58	458
2798.44	457.5
2799.31	452
2800.18	455
2801.04	451
2801.91	454
2802.77	450
2803.64	451
2804.5	450
2805.37	454
2806.23	468.5
2807.1	457
2807.96	457
2808.83	461
2809.69	430
2810.55	452
2811.42	466
2812.28	456
2813.15	448.5
2814.01	443
2814.88	448
2815.74	449.5
2816.6	464
2817.46	458.5
2818.33	439
2819.19	444.5
2820.05	453
2820.92	441.5
2821.78	443
2822.64	425
2823.51	447
2824.37	433.5
2825.23	433
2826.09	447
2826.95	455
2827.81	434
2828.68	445
2829.54	451
2830.4	449
2831.26	440.5
2832.12	448
2832.98	443.5
2833.84	439
2834.71	457.5
2835.57	447
2836.43	448
2837.29	448.5
2838.15	438
2839.01	446.5
2839.87	460.5
2840.73	429
2841.59	444
2842.45	445.5
2843.31	440.5
2844.17	455.5
2845.02	448.5
2845.88	448
2846.74	453
2847.6	446
2848.46	467.5
2849.32	458.5
2850.18	472.5
2851.04	461.5
2851.9	464.5
2852.75	459
2853.61	467
2854.47	453
2855.33	446.5
2856.19	462
2857.04	454
2857.9	465
2858.76	457
2859.61	459
2860.47	467
2861.33	450.5
2862.19	455.5
2863.04	446
2863.9	455
2864.76	462
2865.61	460
2866.47	432
2867.32	460.5
2868.18	461
2869.04	452
2869.89	452
2870.75	455.5
2871.6	448.5
2872.46	453.5
2873.31	462.5
2874.17	463
2875.02	461
2875.88	453
2876.73	463
2877.59	460
2878.44	455.5
2879.3	442
2880.15	453
2881	468
2881.86	449
2882.71	466.5
2883.57	459.5
2884.42	457.5
2885.27	460.5
2886.13	458.5
2886.98	444
2887.83	456
2888.69	443
2889.54	434
2890.39	446.5
2891.24	464.5
2892.1	436.5
2892.95	448.5
2893.8	452.5
2894.65	456
2895.51	455
2896.36	450.5
2897.21	458
2898.06	455
2898.91	457
2899.76	449
2900.62	466
2901.47	478.5
2902.32	457
2903.17	450
2904.02	456
2904.87	451
2905.72	475
2906.57	446
2907.42	466
2908.27	453
2909.12	467
2909.97	473
2910.82	459
2911.67	463
2912.52	461
2913.37	452
2914.22	469
2915.07	475.5
2915.92	463
2916.77	475.5
2917.62	477.5
2918.47	480.5
2919.31	471.5
2920.16	463.5
2921.01	463
2921.86	472
2922.71	465
2923.55	470
2924.4	458
2925.25	474
2926.1	466
2926.94	461
2927.79	482.5
2928.64	453
2929.49	482.5
2930.33	472.5
2931.18	471.5
2932.03	463.5
2932.87	484
2933.72	475.5
2934.57	470.5
2935.41	476.5
2936.26	474
2937.11	470
2937.95	473
2938.8	458
2939.64	461.5
2940.49	465.5
2941.33	460
2942.18	469.5
2943.02	455
2943.87	472
2944.71	458
2945.56	450
2946.4	438
2947.25	450.5
2948.09	454.5
2948.94	431
2949.78	436
2950.63	444
2951.47	433
2952.31	426.5
2953.16	432
2954	420.5
2954.84	440
2955.69	400.5
2956.53	417
2957.37	412
2958.22	399
2959.06	427
2959.9	406.5
2960.75	412.5
2961.59	404.5
2962.43	418.5
2963.27	408.5
2964.11	414
2964.96	418.5
2965.8	403
2966.64	422.5
2967.48	399
2968.32	397.5
2969.16	392
2970.01	404
2970.85	392
2971.69	396
2972.53	402
2973.37	393
2974.21	411
2975.05	386
2975.89	374
2976.73	405
2977.57	387
2978.41	398.5
2979.25	380
2980.09	379
2980.93	393.5
2981.77	376.5
2982.61	385
2983.45	377
2984.29	383
2985.13	364
2985.97	379.5
2986.81	386.5
2987.65	369
2988.49	375
2989.32	364.5
2990.16	370
2991	363
2991.84	366.5
2992.68	361
2993.51	366.5
2994.35	368
2995.19	357.5
2996.03	359
2996.86	372
2997.7	345.5
2998.54	358.5
2999.38	359.5
