#Acq. time (s)=	5
#Accumulations=	5
#Range (cm-¹)=	100...3000
#Windows=	3
#Autofocus=	Off
#AutoExposure=	Off
#Spike filter=	Multiple accum.
#Delay time (s)=	0
#Binning=	1
#Readout mode=	Signal
#DeNoise=	Off
#ICS correction=	Off
#Dark correction=	Off
#Inst. Process=	Off
#Instrument=	LabRAM HR Evol
#Detector=	Syncerity OE
#Objective=	x100_VIS_LWD
#Grating=	600 (500nm)
#ND Filter=	100%
#Laser=	633nm_Edge
#Hole=	100.021
#Range=	Visible
#Project=	Omar
#Sample=	chi
#Site=	f
#Title=	nsno
#Remark=	
#Date=	12.09.2023 17:16
#Acquired=	12.09.2023 17:16:33
101.026	2152
102.309	2143.5
103.592	2133.5
104.875	2089
106.158	2079
107.441	2089
108.723	2041.5
110.005	2042
111.289	2024.5
112.571	2018
113.852	1998
115.134	1953.5
116.415	1940.5
117.696	1950.5
118.976	1915.5
120.257	1915.5
121.537	1900
122.817	1940.5
124.097	1908
125.377	1886
126.656	1890.5
127.936	1863.5
129.215	1878
130.493	1858
131.772	1842.5
133.049	1836.5
134.327	1822.5
135.605	1840.5
136.883	1785.5
138.161	1791.5
139.438	1770
140.715	1741
141.992	1696
143.269	1724
144.545	1742
145.82	1676.5
147.096	1688.5
148.372	1675.5
149.648	1679
150.924	1647
152.199	1619.5
153.472	1636.5
154.747	1588.5
156.022	1610
157.296	1577.5
158.571	1564
159.843	1563
161.117	1590.5
162.391	1554.5
163.664	1538.5
164.937	1565.5
166.209	1515
167.482	1562
168.754	1534
170.025	1516
171.297	1519
172.569	1494
173.841	1521
175.111	1504.5
176.383	1532
177.654	1471
178.923	1455
180.194	1482
181.464	1460
182.733	1471.5
184.003	1475.5
185.273	1460
186.542	1449
187.811	1490.5
189.079	1462
190.348	1479.5
191.617	1491.5
192.884	1477
194.152	1446.5
195.419	1493
196.687	1483.5
197.955	1481.5
199.221	1480.5
200.489	1507.5
201.755	1501
203.022	1489.5
204.287	1504.5
205.554	1497.5
206.818	1488
208.085	1510.5
209.349	1495
210.615	1483.5
211.879	1509.5
213.144	1497.5
214.408	1506
215.673	1506
216.936	1515
218.201	1502.5
219.464	1517.5
220.728	1529
221.99	1510.5
223.253	1527
224.516	1519.5
225.778	1521
227.041	1541.5
228.303	1510.5
229.564	1522.5
230.826	1516
232.087	1533
233.348	1533.5
234.61	1545.5
235.87	1526.5
237.13	1537
238.391	1564
239.651	1550.5
240.91	1568
242.171	1560
243.43	1566.5
244.689	1557
245.949	1554
247.207	1554.5
248.465	1566
249.723	1560.5
250.983	1568.5
252.24	1551
253.498	1572
254.755	1569.5
256.013	1557.5
257.27	1558.5
258.526	1565
259.783	1557
261.039	1580.5
262.296	1563
263.552	1553.5
264.808	1568.5
266.063	1541.5
267.318	1573
268.573	1578.5
269.828	1573.5
271.084	1573
272.338	1555
273.592	1580.5
274.846	1579.5
276.1	1564.5
277.353	1587.5
278.607	1572
279.86	1609.5
281.113	1566.5
282.365	1578
283.619	1588.5
284.872	1587.5
286.124	1585.5
287.376	1615.5
288.627	1626
289.879	1591
291.13	1625
292.381	1649.5
293.632	1621
294.883	1634
296.133	1615
297.384	1652.5
298.634	1631.5
299.883	1640.5
301.133	1621.5
302.381	1616
303.63	1637
304.879	1644.5
306.128	1628.5
307.377	1619.5
308.625	1639
309.874	1650
311.122	1645.5
312.37	1625.5
313.617	1629.5
314.863	1632.5
316.111	1597.5
317.358	1627
318.604	1649.5
319.851	1623.5
321.098	1629.5
322.342	1625
323.588	1609
324.834	1646
326.08	1605
327.325	1609
328.569	1582.5
329.814	1585
331.059	1580.5
332.304	1591.5
333.548	1575.5
334.791	1583
336.035	1550
337.279	1570
338.521	1565.5
339.765	1548
341.008	1561.5
342.251	1570.5
343.492	1542.5
344.735	1561
345.977	1561
347.218	1560.5
348.46	1552.5
349.702	1548.5
350.942	1557
352.184	1576
353.425	1577
354.665	1558
355.905	1565
357.145	1555.5
358.385	1545.5
359.625	1574.5
360.864	1529.5
362.104	1586.5
363.342	1544.5
364.581	1556.5
365.819	1564.5
367.058	1546
368.296	1536.5
369.534	1553.5
370.771	1548.5
372.01	1565
373.246	1541.5
374.484	1575
375.72	1554.5
376.958	1534.5
378.194	1545.5
379.431	1555.5
380.666	1544.5
381.903	1550.5
383.138	1560
384.374	1547
385.609	1517.5
386.845	1540
388.079	1550.5
389.313	1565.5
390.548	1548
391.782	1553
393.016	1542
394.25	1543
395.483	1565.5
396.718	1566
397.95	1561
399.183	1558
400.416	1531
401.648	1542
402.88	1569
404.113	1559
405.345	1565
406.576	1521.5
407.807	1586.5
409.04	1572
410.27	1615.5
411.501	1590
412.731	1586
413.963	1593
415.193	1607
416.422	1594.5
417.652	1592
418.883	1583.5
420.112	1627
421.341	1598
422.569	1575
423.798	1608
425.028	1626
426.256	1628
427.484	1627
428.711	1641.5
429.939	1639
431.166	1611
432.394	1647.5
433.622	1645
434.849	1611
436.075	1636.5
437.302	1628
438.528	1658
439.754	1636
440.98	1641
442.205	1663.5
443.431	1651.5
444.656	1649
445.881	1619
447.106	1649.5
448.33	1639
449.555	1614.5
450.779	1614.5
452.003	1651
453.227	1639
454.45	1639.5
455.674	1620
456.897	1644.5
458.12	1622.5
459.343	1651
460.566	1623
461.788	1643
463.01	1647
464.232	1627.5
465.454	1649.5
466.676	1642.5
467.897	1623
469.119	1630.5
470.34	1622
471.559	1639
472.78	1665
474.001	1663.5
475.221	1659
476.441	1658
477.661	1672
478.879	1632
480.099	1682.5
481.318	1634
482.537	1657
483.756	1667
484.974	1655
486.192	1667.5
487.411	1669
488.629	1686.5
489.847	1662
491.063	1666
492.281	1664.5
493.498	1677.5
494.714	1659
495.931	1689
497.148	1687
498.365	1697.5
499.58	1689
500.796	1678.5
502.012	1686
503.226	1704
504.442	1703.5
505.657	1700.5
506.871	1676
508.086	1669.5
509.3	1707
510.515	1683
511.729	1691
512.942	1695
514.156	1685
515.369	1678
516.582	1710
517.796	1670
519.008	1673
520.221	1702.5
521.433	1703.5
522.645	1682.5
523.857	1664.5
525.069	1685
526.28	1673
527.492	1686.5
528.702	1694.5
529.914	1687
531.124	1673.5
532.335	1689
533.545	1655.5
534.756	1678.5
535.965	1668.5
537.175	1663.5
538.384	1674
539.593	1655
540.803	1688.5
542.011	1658.5
543.221	1653
544.429	1683
545.636	1698
546.845	1685
548.052	1667
549.261	1669
550.468	1649.5
551.675	1671.5
552.883	1663
554.089	1681.5
555.295	1672.5
556.503	1668.5
557.709	1672.5
558.914	1685
560.12	1672
561.326	1651.5
562.531	1646
563.736	1671
564.941	1666.5
566.147	1665
567.351	1681.5
568.555	1664.5
569.759	1667.5
570.964	1676
572.168	1693
573.371	1677.5
574.574	1669.5
575.777	1669.5
576.981	1678
578.184	1673.5
579.386	1698.5
580.588	1662
581.79	1698
582.992	1688.5
584.194	1685
585.395	1715.5
586.598	1674
587.799	1691
589	1666
590.201	1695
591.401	1698.5
592.601	1687.5
593.801	1682.5
595.001	1687.5
596.201	1679.5
597.401	1689
598.6	1706
599.799	1686.5
600.998	1716.5
602.197	1703
603.395	1683.5
604.594	1699
605.792	1721
606.99	1733
608.188	1717.5
609.386	1715
610.583	1718.5
611.78	1730
612.977	1708.5
614.174	1741.5
615.371	1728
616.566	1737
617.762	1725
618.958	1743.5
620.154	1712
621.35	1725.5
622.546	1732
623.741	1755
624.935	1749.5
626.13	1743.5
627.325	1723
628.519	1737.5
629.714	1776.5
630.908	1771.5
632.101	1746.5
633.295	1769.5
634.488	1786.5
635.682	1795
636.874	1752.5
638.067	1757.5
639.26	1771
640.453	1770.5
641.644	1800.5
642.836	1771.5
644.028	1795
645.219	1755.5
646.411	1785
647.602	1805.5
648.792	1768.5
649.984	1783
651.175	1780.5
652.364	1752
653.555	1786
654.745	1761
655.934	1762
657.124	1809.5
658.314	1774.5
659.503	1756.5
660.692	1762
661.88	1783
663.07	1766
664.257	1793
665.446	1769.5
666.635	1759.5
667.822	1739
669.01	1763.5
670.197	1753
671.384	1751
672.571	1764.5
673.758	1768.5
674.944	1776
676.131	1764.5
677.317	1774
678.502	1743
679.689	1753.5
680.874	1762
682.06	1727
683.245	1746.5
684.431	1744.5
685.615	1776
686.799	1737
687.984	1745
689.168	1774
690.353	1724.5
691.536	1743.5
692.719	1741.5
693.904	1727
695.086	1750.5
696.269	1743
697.453	1751
698.635	1734.5
699.817	1734
701	1741.5
702.182	1734
703.364	1765
704.545	1760.5
705.727	1754
706.908	1762.5
708.089	1726
709.27	1736
710.451	1783.5
711.632	1733
712.812	1768.5
713.991	1744
715.172	1746.5
716.352	1721
717.531	1742
718.71	1740.5
719.889	1717.5
721.068	1757
722.248	1750.5
723.426	1767.5
724.604	1762
725.782	1759
726.96	1743.5
728.138	1747.5
729.315	1759
730.492	1755
731.669	1769
732.846	1786
734.024	1758
735.201	1758
736.377	1755.5
737.553	1757.5
738.729	1757
739.905	1743.5
741.081	1764.5
742.256	1758
743.431	1783.5
744.606	1767.5
745.781	1761
746.956	1780.5
748.13	1735
749.303	1771.5
750.477	1770.5
751.651	1711
752.825	1752.5
753.999	1760.5
755.172	1742.5
756.345	1734.5
757.518	1773.5
758.691	1769.5
759.864	1748.5
761.035	1743
762.207	1753.5
763.379	1725.5
764.551	1729
765.723	1739
766.894	1754.5
768.064	1741
769.236	1722.5
770.407	1748.5
771.577	1774.5
772.748	1739.5
773.917	1743.5
775.088	1757
776.258	1740
777.427	1747.5
778.596	1739.5
779.765	1750
780.935	1755
782.104	1753
783.272	1734.5
784.44	1753
785.609	1743
786.776	1784
787.944	1755
789.113	1733.5
790.279	1736.5
791.447	1751.5
792.613	1730.5
793.78	1751.5
794.948	1716.5
796.113	1760
797.28	1754
798.445	1753
799.612	1768
800.778	1761.5
801.943	1742.5
803.109	1724.5
804.273	1762.5
805.439	1745
806.603	1745.5
807.768	1754.5
808.932	1762.5
810.096	1739
811.26	1772.5
812.424	1787
813.587	1789
814.751	1764
815.914	1772
817.078	1784
818.24	1791
819.402	1776.5
820.565	1796.5
821.727	1801.5
822.889	1779.5
824.051	1806.5
825.212	1781.5
826.374	1809.5
827.535	1789.5
828.697	1794
829.857	1801.5
831.018	1804.5
832.179	1801
833.339	1802.5
834.499	1813
835.659	1811.5
836.819	1793
837.978	1782.5
839.137	1820.5
840.297	1796
841.456	1806
842.614	1812
843.772	1796
844.932	1782
846.09	1828.5
847.247	1818.5
848.405	1835
849.562	1811
850.721	1792
851.878	1809.5
853.034	1821.5
854.191	1812.5
855.348	1827
856.504	1804.5
857.661	1829
858.817	1836.5
859.973	1811.5
861.129	1821
862.284	1809.5
863.439	1800
864.594	1805.5
865.749	1798
866.904	1814
868.058	1799
869.212	1805.5
870.367	1777
871.522	1779
872.676	1780.5
873.829	1759
874.983	1786
876.136	1795.5
877.289	1783
878.442	1793.5
879.593	1768.5
880.746	1753
881.898	1763
883.05	1776
884.202	1773.5
885.354	1751.5
886.506	1728.5
887.657	1785
888.808	1775
889.96	1733
891.11	1769.5
892.261	1739.5
893.41	1756.5
894.561	1752
895.711	1726
896.861	1746
898.011	1744
899.161	1744.5
900.309	1729.5
901.458	1741.5
902.607	1727.5
903.756	1698.5
904.904	1744
906.052	1742.5
907.201	1721.5
908.349	1722
909.496	1703
910.644	1728
911.791	1726
912.939	1715.5
914.085	1729
915.232	1719
916.379	1738
917.525	1730
918.671	1748.5
919.818	1708.5
920.963	1759
922.109	1737
923.255	1708
924.399	1727.5
925.545	1709
926.689	1746.5
927.834	1720.5
928.979	1716.5
930.123	1733
931.268	1729
932.411	1738.5
933.555	1731
934.698	1728.5
935.842	1722
936.985	1694.5
938.128	1731.5
939.271	1726
940.414	1740.5
941.556	1678
942.699	1691.5
943.84	1732
944.983	1726.5
946.124	1709.5
947.266	1738.5
948.407	1747
949.547	1717.5
950.689	1713.5
951.829	1762
952.971	1729.5
954.111	1741.5
955.25	1725.5
956.391	1737
957.531	1716
958.67	1756
959.81	1750
960.949	1731
962.088	1718
963.227	1739
964.366	1746
965.504	1719
966.643	1726
967.781	1740
968.919	1731.5
970.056	1724.5
971.195	1742.75
972.332	1753
973.469	1732.5
974.605	1727
975.743	1715
976.88	1752
978.016	1724.5
979.152	1712.5
980.288	1744.5
981.423	1707.5
982.56	1751.5
983.696	1767.5
984.831	1740.5
985.966	1733
987.101	1707
988.235	1754.5
989.37	1741
990.504	1728.5
991.638	1735.5
992.773	1729.5
993.907	1731
995.041	1760.5
996.174	1727
997.307	1755.5
998.44	1787
999.573	1802
1000.71	1806
1001.84	1769.5
1002.97	1743
1004.1	1754
1005.24	1749
1006.37	1748.5
1007.5	1748.5
1008.63	1737
1009.76	1717
1010.89	1711
1012.02	1713.5
1013.15	1740.5
1014.28	1726
1015.41	1727.5
1016.54	1730
1017.67	1746
1018.8	1725
1019.93	1743
1021.06	1712.5
1022.19	1747.5
1023.32	1760
1024.45	1722.5
1025.58	1762.5
1026.71	1738.5
1027.84	1729.5
1028.96	1724
1030.09	1759
1031.22	1730.5
1032.35	1719
1033.47	1714.5
1034.6	1725.5
1035.73	1740.5
1036.86	1724
1037.98	1737
1039.11	1718.5
1040.23	1737.5
1041.36	1734.5
1042.49	1716.5
1043.61	1742
1044.74	1739
1045.86	1750
1046.99	1700.5
1048.11	1738
1049.24	1731
1050.36	1736
1051.49	1756.5
1052.61	1744.5
1053.74	1726
1054.86	1738
1055.98	1733
1057.11	1740.5
1058.23	1743.5
1059.35	1738
1060.48	1732
1061.6	1748.5
1062.72	1731
1063.84	1737
1064.97	1763.5
1066.09	1754
1067.21	1743.5
1068.33	1715.5
1069.45	1727
1070.57	1717.5
1071.7	1756
1072.82	1750
1073.94	1737.5
1075.06	1742
1076.18	1741
1077.3	1705
1078.42	1724.5
1079.54	1724.5
1080.66	1719
1081.78	1719
1082.9	1731.5
1084.02	1705
1085.14	1682
1086.25	1695
1087.37	1726.5
1088.49	1712
1089.61	1697
1090.73	1696
1091.84	1696
1092.96	1726
1094.08	1716
1095.2	1676
1096.31	1687.5
1097.43	1694.5
1098.55	1687
1099.66	1692
1100.78	1692
1101.9	1685.5
1103.01	1677.5
1104.13	1681.5
1105.25	1692
1106.36	1677
1107.48	1704.5
1108.59	1683.5
1109.71	1684
1110.82	1683.5
1111.93	1673.5
1113.05	1684
1114.16	1678
1115.28	1680
1116.39	1687.5
1117.51	1664.5
1118.62	1672
1119.73	1684
1120.85	1692
1121.96	1684
1123.07	1672.5
1124.18	1689
1125.3	1695
1126.41	1675.5
1127.52	1655
1128.63	1681.5
1129.74	1683
1130.85	1694
1131.97	1659
1133.08	1676
1134.19	1677
1135.3	1680
1136.41	1704.5
1137.52	1685
1138.63	1700.5
1139.74	1706
1140.85	1727
1141.96	1716
1143.07	1698.5
1144.18	1707.5
1145.29	1721
1146.4	1719.5
1147.51	1723.5
1148.61	1714.5
1149.72	1712.5
1150.83	1730.5
1151.94	1728.5
1153.05	1751
1154.15	1738.5
1155.26	1772
1156.37	1759
1157.48	1758
1158.58	1757
1159.69	1724.5
1160.8	1784
1161.9	1766
1163.01	1790.5
1164.11	1761
1165.22	1813
1166.33	1784
1167.43	1784
1168.54	1790.5
1169.64	1798.5
1170.75	1773.5
1171.85	1787.5
1172.96	1798
1174.06	1753
1175.17	1783
1176.27	1781.5
1177.37	1783.5
1178.48	1753
1179.58	1741
1180.68	1717.5
1181.79	1751
1182.89	1714
1183.99	1726
1185.1	1740
1186.2	1726.5
1187.3	1694
1188.4	1730
1189.5	1765
1190.61	1734
1191.71	1750
1192.81	1698
1193.91	1739
1195.01	1729
1196.11	1722.53
1197.21	1729.82
1198.31	1754.82
1199.42	1743.11
1200.51	1720.99
1201.61	1710.11
1202.72	1709.01
1203.81	1701.92
1204.91	1728.66
1206.01	1720.86
1207.11	1711.98
1208.21	1718.44
1209.31	1716.93
1210.41	1734.89
1211.51	1713.03
1212.61	1730.41
1213.7	1702.49
1214.8	1702.77
1215.9	1747.1
1217	1733.59
1218.09	1720.03
1219.19	1717.45
1220.29	1704.58
1221.38	1700.91
1222.48	1703.02
1223.58	1701.91
1224.67	1710.28
1225.77	1704.1
1226.87	1711.12
1227.96	1712.57
1229.06	1690.57
1230.15	1710.09
1231.25	1704.53
1232.34	1720.68
1233.44	1719.89
1234.53	1734.43
1235.63	1717.14
1236.72	1728.89
1237.81	1719.74
1238.91	1726.5
1240	1721.81
1241.1	1727.65
1242.19	1732.88
1243.28	1728.42
1244.38	1733.6
1245.47	1729.6
1246.56	1728.55
1247.65	1733.36
1248.75	1736.11
1249.84	1741.26
1250.93	1725.79
1252.02	1737.58
1253.11	1740.11
1254.21	1745
1255.3	1744.06
1256.39	1739.72
1257.48	1753.99
1258.57	1760.97
1259.66	1751.52
1260.75	1763.32
1261.84	1783.91
1262.93	1767.29
1264.02	1768.31
1265.11	1776.99
1266.2	1769.11
1267.29	1760.29
1268.38	1772.01
1269.47	1774.83
1270.56	1783.07
1271.65	1781.82
1272.73	1778.25
1273.82	1781.06
1274.91	1783.02
1276	1777.95
1277.09	1766.54
1278.17	1747.04
1279.26	1784.72
1280.35	1768.53
1281.43	1771.77
1282.52	1767.04
1283.61	1756.39
1284.69	1767.4
1285.78	1781.05
1286.87	1792.81
1287.95	1787.63
1289.04	1786.44
1290.13	1770.71
1291.21	1804.13
1292.3	1799.58
1293.38	1807.67
1294.47	1781.75
1295.55	1788.71
1296.64	1794.47
1297.72	1787.95
1298.8	1770.05
1299.89	1796.64
1300.97	1771.35
1302.06	1794.23
1303.14	1802.31
1304.22	1793.1
1305.31	1759.64
1306.39	1790.72
1307.34	1813.5
1308.43	1767
1309.52	1773.5
1310.6	1791
1311.69	1755.5
1312.78	1776
1313.87	1764.5
1314.96	1769
1316.04	1746
1317.13	1772.5
1318.21	1766.5
1319.3	1769.5
1320.39	1755
1321.47	1756
1322.56	1739
1323.65	1722
1324.73	1758
1325.82	1735
1326.9	1722
1327.99	1700.5
1329.07	1748.5
1330.16	1722
1331.24	1733.5
1332.32	1748
1333.41	1732
1334.49	1750
1335.58	1703
1336.66	1736
1337.74	1730.5
1338.83	1702.5
1339.91	1708
1340.99	1741
1342.08	1719.5
1343.16	1700.5
1344.24	1744
1345.32	1720.5
1346.41	1721.5
1347.49	1730
1348.57	1714
1349.65	1704
1350.73	1706
1351.81	1667
1352.9	1687.5
1353.98	1715
1355.06	1662.5
1356.14	1697.5
1357.22	1693
1358.3	1680.5
1359.38	1668.5
1360.46	1652.5
1361.54	1651
1362.62	1658
1363.7	1663
1364.78	1670.5
1365.85	1649
1366.93	1654
1368.01	1664.5
1369.09	1639.5
1370.17	1680
1371.25	1660
1372.33	1684.5
1373.4	1677
1374.48	1646.5
1375.56	1652
1376.64	1649.5
1377.71	1637
1378.79	1655.5
1379.87	1652.5
1380.94	1640
1382.02	1638
1383.1	1648.5
1384.17	1616.5
1385.25	1643.5
1386.32	1657
1387.4	1667.5
1388.47	1622.5
1389.55	1665.5
1390.63	1629
1391.7	1650
1392.77	1633
1393.85	1630
1394.92	1619.5
1396	1628
1397.07	1625.5
1398.15	1600
1399.22	1643
1400.29	1611.5
1401.37	1621
1402.44	1655.5
1403.51	1615.5
1404.59	1613.5
1405.66	1619
1406.73	1597.5
1407.8	1629.5
1408.87	1621.5
1409.95	1627
1411.02	1640
1412.09	1628.5
1413.16	1615
1414.23	1626.5
1415.3	1613.5
1416.38	1652
1417.45	1640.5
1418.52	1597
1419.59	1616.5
1420.66	1632.5
1421.73	1620
1422.8	1639
1423.87	1615
1424.94	1607.5
1426.01	1633
1427.08	1654
1428.15	1642.5
1429.21	1625
1430.28	1669.5
1431.35	1627.5
1432.42	1668
1433.49	1667
1434.56	1649
1435.63	1645
1436.69	1637
1437.76	1656
1438.83	1652.5
1439.89	1646
1440.96	1664
1442.03	1648.5
1443.1	1659.5
1444.16	1638
1445.23	1615
1446.3	1663
1447.36	1631.5
1448.43	1648.5
1449.49	1667.5
1450.56	1649.5
1451.62	1644.5
1452.69	1639
1453.75	1674.5
1454.82	1620.5
1455.88	1655.5
1456.95	1633.5
1458.01	1615
1459.08	1646
1460.14	1629
1461.2	1602
1462.27	1647
1463.33	1612.5
1464.4	1634.5
1465.46	1631
1466.52	1618
1467.58	1588
1468.65	1646
1469.71	1614
1470.77	1669.5
1471.83	1614.5
1472.9	1625
1473.96	1627
1475.02	1618
1476.08	1616.5
1477.14	1600
1478.2	1617.5
1479.27	1619.5
1480.33	1658
1481.39	1610
1482.45	1648
1483.51	1659.5
1484.57	1629
1485.63	1636
1486.69	1623
1487.75	1589
1488.81	1638
1489.87	1637.5
1490.93	1616
1491.99	1623
1493.04	1612.5
1494.1	1621.5
1495.16	1631.5
1496.22	1632.5
1497.28	1637.5
1498.34	1640.5
1499.39	1620
1500.45	1638
1501.51	1639
1502.57	1632
1503.62	1616
1504.68	1613
1505.74	1665
1506.79	1651.5
1507.85	1632
1508.91	1595
1509.96	1626
1511.02	1634.5
1512.07	1634.5
1513.13	1627.5
1514.19	1635
1515.24	1641
1516.3	1660.5
1517.35	1653.5
1518.41	1669
1519.46	1661
1520.52	1646
1521.57	1672
1522.62	1675.5
1523.68	1669.5
1524.73	1659
1525.79	1650.5
1526.84	1665.5
1527.89	1682.5
1528.95	1683
1530	1680
1531.05	1665
1532.1	1641
1533.16	1681.5
1534.21	1649.5
1535.26	1677.5
1536.31	1653.5
1537.37	1672.5
1538.42	1636
1539.47	1639
1540.52	1662
1541.57	1628.5
1542.62	1620
1543.67	1667
1544.72	1664.5
1545.78	1672.5
1546.83	1634.5
1547.88	1656.5
1548.93	1641
1549.98	1680.5
1551.03	1655
1552.07	1668.5
1553.12	1634
1554.17	1635
1555.22	1654
1556.27	1660
1557.32	1657.5
1558.37	1680
1559.42	1639
1560.47	1663.5
1561.51	1636
1562.56	1657.5
1563.61	1669.5
1564.66	1664.5
1565.7	1639.5
1566.75	1643
1567.8	1660.5
1568.85	1656.5
1569.89	1666
1570.94	1689
1571.98	1667
1573.03	1678.5
1574.08	1640
1575.12	1671
1576.17	1649.5
1577.21	1656
1578.26	1689
1579.31	1669
1580.35	1695
1581.4	1708
1582.44	1683.5
1583.49	1690.5
1584.53	1668
1585.57	1680.5
1586.62	1672.5
1587.66	1692
1588.71	1668
1589.75	1663.5
1590.79	1707
1591.84	1690.5
1592.88	1688
1593.92	1683
1594.97	1691
1596.01	1701
1597.05	1711
1598.09	1707
1599.14	1640
1600.18	1660
1601.22	1663.5
1602.26	1659
1603.3	1677
1604.34	1641
1605.38	1627.5
1606.43	1595
1607.47	1611
1608.51	1566
1609.55	1585.5
1610.59	1557
1611.63	1561.5
1612.67	1551.5
1613.71	1531
1614.75	1517
1615.79	1507
1616.83	1498.5
1617.87	1472.5
1618.91	1481.5
1619.94	1478
1620.98	1443
1622.02	1423
1623.06	1413.5
1624.1	1409.5
1625.14	1417
1626.17	1372
1627.21	1407
1628.25	1380
1629.29	1357.5
1630.32	1339
1631.36	1355.5
1632.4	1345
1633.43	1301.5
1634.47	1316
1635.51	1336.5
1636.54	1318
1637.58	1318
1638.62	1288.5
1639.65	1278
1640.69	1279
1641.72	1272
1642.76	1269
1643.79	1294
1644.83	1262
1645.86	1249
1646.9	1227
1647.93	1238
1648.97	1237
1650	1239.5
1651.04	1218.5
1652.07	1208
1653.1	1193
1654.14	1219
1655.17	1208
1656.2	1178.5
1657.24	1167.5
1658.27	1179.5
1659.3	1157
1660.34	1157.5
1661.37	1155.5
1662.4	1169
1663.43	1150.5
1664.46	1143.5
1665.5	1145
1666.53	1121
1667.56	1142.5
1668.59	1129
1669.62	1115.5
1670.65	1105
1671.68	1122
1672.71	1103
1673.74	1103
1674.77	1101
1675.8	1082.5
1676.83	1097
1677.86	1114
1678.89	1079.5
1679.92	1088.5
1680.95	1077
1681.98	1076
1683.01	1050
1684.04	1068
1685.07	1078
1686.1	1053.5
1687.13	1060
1688.15	1071.5
1689.18	1052
1690.21	1071
1691.24	1065
1692.27	1042.5
1693.29	1052
1694.32	1035.5
1695.35	1047.5
1696.37	1055.5
1697.4	1041
1698.43	1039.5
1699.45	1025
1700.48	1023
1701.51	1037
1702.53	1024
1703.56	1027
1704.58	1005.5
1705.61	1026.5
1706.64	1025
1707.66	1011.5
1708.69	1017
1709.71	1013
1710.73	1004
1711.76	999
1712.78	1008.5
1713.81	1018.5
1714.83	1004
1715.86	1005
1716.88	1010.5
1717.9	1005.5
1718.93	1021
1719.95	996
1720.97	998
1722	974
1723.02	975
1724.04	993
1725.06	962
1726.09	981
1727.11	982
1728.13	964
1729.15	973.5
1730.17	967
1731.2	957
1732.22	968
1733.24	971.5
1734.26	952
1735.28	964.5
1736.3	949.5
1737.32	970
1738.34	944.5
1739.36	949
1740.38	960.5
1741.4	950.5
1742.42	949
1743.44	964
1744.46	950.5
1745.48	964.5
1746.5	931.5
1747.52	962.5
1748.54	936
1749.56	948
1750.57	926
1751.59	920
1752.61	936
1753.63	934.5
1754.65	941
1755.66	935.5
1756.68	929
1757.7	929.5
1758.72	926
1759.73	915.5
1760.75	909
1761.77	927
1762.78	905
1763.8	893
1764.82	922
1765.83	902.5
1766.85	884.5
1767.86	922.5
1768.88	899.5
1769.9	903
1770.91	892
1771.93	905
1772.94	911.5
1773.96	894
1774.97	875
1775.99	904.5
1777	899
1778.01	883
1779.03	888
1780.04	890
1781.06	870
1782.07	868
1783.08	876.5
1784.1	885.5
1785.11	872
1786.12	895
1787.14	867.5
1788.15	872
1789.16	868.5
1790.17	876
1791.18	876
1792.2	861.5
1793.21	863.5
1794.22	866
1795.23	844.5
1796.24	852.5
1797.26	866
1798.27	866
1799.28	866.5
1800.29	821
1801.3	869.5
1802.31	844.5
1803.32	848
1804.33	835.5
1805.34	846
1806.35	857
1807.36	859
1808.37	854.5
1809.38	820
1810.39	847
1811.4	829.5
1812.4	841.5
1813.41	836
1814.42	857
1815.43	821.5
1816.44	813.5
1817.45	825
1818.45	829
1819.46	830
1820.47	837
1821.48	818
1822.49	825
1823.49	817.5
1824.5	802
1825.51	808.5
1826.51	809
1827.52	804.5
1828.53	811.5
1829.53	834
1830.54	818
1831.54	814
1832.55	823
1833.56	794
1834.56	799
1835.57	807.5
1836.57	808
1837.58	810.5
1838.58	792.5
1839.59	812
1840.59	798
1841.59	809
1842.6	802.5
1843.6	802
1844.61	800
1845.61	802
1846.61	796.5
1847.62	781
1848.62	789.5
1849.62	804
1850.63	785.5
1851.63	782
1852.63	774
1853.64	780.5
1854.64	775
1855.64	789.5
1856.64	784.5
1857.64	771
1858.65	744.5
1859.65	784.5
1860.65	768
1861.65	759
1862.65	765
1863.65	765.5
1864.65	768
1865.65	755
1866.65	758.5
1867.65	763
1868.65	760
1869.65	761
1870.65	744.5
1871.65	758
1872.65	766.5
1873.65	753
1874.65	734.5
1875.65	756.5
1876.65	747.5
1877.65	760
1878.65	749
1879.65	741
1880.65	765.5
1881.64	753
1882.64	758
1883.64	776.5
1884.64	748
1885.63	732
1886.63	750
1887.63	756
1888.63	746
1889.62	748
1890.62	765
1891.62	746
1892.61	741.5
1893.61	730
1894.61	736
1895.6	727
1896.6	727
1897.59	718.5
1898.59	730.5
1899.58	729.5
1900.58	739
1901.57	725
1902.57	740.5
1903.56	724.5
1904.56	716
1905.55	726
1906.55	732.5
1907.54	712
1908.54	724
1909.53	739.5
1910.52	722
1911.52	723.5
1912.51	709
1913.5	713
1914.5	718.5
1915.49	720
1916.48	738
1917.48	715
1918.47	733
1919.46	726
1920.45	714
1921.44	700
1922.44	711
1923.43	697
1924.42	726.5
1925.41	701
1926.4	723
1927.39	697.5
1928.38	712.5
1929.38	695
1930.37	699
1931.36	711.5
1932.35	717.5
1933.34	704.5
1934.33	694.5
1935.32	688
1936.31	705.5
1937.3	702
1938.29	709
1939.28	699.5
1940.26	701
1941.25	675
1942.24	706
1943.23	700
1944.22	697.5
1945.21	699.5
1946.2	701.5
1947.18	705
1948.17	692.5
1949.16	690
1950.15	686
1951.13	682
1952.12	683.5
1953.11	683
1954.1	697
1955.08	673
1956.07	688
1957.06	678.5
1958.04	699
1959.03	673.5
1960.01	677
1961	656.5
1961.99	686.5
1962.97	689.5
1963.96	674.5
1964.94	679
1965.93	657
1966.91	662.5
1967.9	673
1968.88	668
1969.87	678.5
1970.85	674
1971.84	667.5
1972.82	660
1973.81	665.5
1974.79	663
1975.77	655
1976.76	659
1977.74	654.5
1978.72	662
1979.71	650
1980.69	637
1981.67	640
1982.65	657
1983.64	670
1984.62	651
1985.6	669
1986.58	645.5
1987.56	659
1988.55	651
1989.53	649.5
1990.51	647
1991.49	648
1992.47	654
1993.45	641
1994.43	642
1995.41	651.5
1996.39	649
1997.37	651.5
1998.36	635
1999.34	630
2000.31	642.5
2001.29	646.5
2002.27	641
2003.25	639
2004.23	647.5
2005.21	643
2006.19	644
2007.17	635
2008.15	620
2009.13	633
2010.11	649
2011.08	630
2012.06	617
2013.04	630.5
2014.02	638
2015	639
2015.97	624.5
2016.95	637.5
2017.93	626
2018.91	640
2019.88	633
2020.86	637.5
2021.83	626.5
2022.81	623
2023.79	618.5
2024.76	628
2025.74	629
2026.72	616
2027.69	628
2028.67	617
2029.64	625.5
2030.62	628
2031.59	620
2032.57	616
2033.54	621.5
2034.52	615
2035.49	620.5
2036.47	606
2037.44	625.5
2038.41	635
2039.39	615
2040.36	610
2041.34	623
2042.31	617
2043.28	603
2044.26	593
2045.23	603
2046.2	613
2047.17	619
2048.15	602.5
2049.12	601.5
2050.09	590
2051.06	605
2052.04	603.5
2053.01	593.5
2053.98	599.5
2054.95	611.5
2055.92	593
2056.89	588
2057.86	584
2058.84	593.5
2059.81	593.5
2060.78	594.5
2061.75	591
2062.72	601.5
2063.69	595
2064.66	597
2065.63	589.5
2066.6	588
2067.57	595
2068.54	589.5
2069.51	588
2070.48	597
2071.44	596
2072.41	595
2073.38	582.5
2074.35	586.5
2075.32	584.5
2076.29	590
2077.26	586
2078.22	578.5
2079.19	581.5
2080.16	574
2081.13	592
2082.09	578.5
2083.06	580.5
2084.03	569
2085	578.5
2085.96	570
2086.93	584.5
2087.9	590.5
2088.86	570.5
2089.83	579
2090.79	590.5
2091.76	584
2092.73	588.5
2093.69	569
2094.66	580
2095.62	583
2096.59	584
2097.55	595.5
2098.52	567
2099.48	570.5
2100.45	574
2101.41	589
2102.38	593
2103.34	597.5
2104.3	607.5
2105.27	602
2106.23	590
2107.19	591.5
2108.16	612
2109.12	607
2110.08	626
2111.05	614
2112.01	628.5
2112.97	596
2113.94	622
2114.9	626
2115.86	632.5
2116.82	633.5
2117.78	656.5
2118.75	652
2119.71	632
2120.67	651
2121.63	673.5
2122.59	694
2123.55	665.5
2124.51	696
2125.47	695.5
2126.43	692
2127.4	700
2128.36	693.5
2129.32	715.5
2130.28	707
2131.24	720.5
2132.2	718
2133.16	726
2134.11	743.5
2135.07	724.5
2136.03	734
2136.99	736
2137.95	735.5
2138.91	728.5
2139.87	748
2140.83	745
2141.78	733.5
2142.74	754
2143.7	731
2144.66	743
2145.62	741.044
2146.57	746.809
2147.53	760.414
2148.49	741.358
2149.45	741.849
2150.4	751.53
2151.36	716.441
2152.32	746.604
2153.27	709.894
2154.23	739.177
2155.19	741.748
2156.14	732.699
2157.1	725.202
2158.05	717.912
2159.01	708.863
2159.96	717.42
2160.92	736.053
2161.88	717.111
2162.83	710.814
2163.78	703.534
2164.74	697.206
2165.69	698.423
2166.65	696.933
2167.6	686.775
2168.56	695.27
2169.51	677.075
2170.47	684.179
2171.42	673.115
2172.37	665.468
2173.33	656.278
2174.28	665.993
2175.23	662.338
2176.19	662.255
2177.14	657.065
2178.09	647.716
2179.04	645.382
2180	632.174
2180.95	629.834
2181.9	624.063
2182.85	611.59
2183.81	618.845
2184.76	593.491
2185.71	593.319
2186.66	581.663
2187.61	583.35
2188.56	572.292
2189.51	560.003
2190.46	550.664
2191.42	546.402
2192.37	540.331
2193.32	539.565
2194.27	536.717
2195.22	537.948
2196.17	522.719
2197.12	519.889
2198.07	519.003
2199.02	520.372
2199.97	517.251
2200.92	509.854
2201.86	517.762
2202.81	502.63
2203.76	503.222
2204.71	508.604
2205.66	512.164
2206.61	499.188
2207.56	494.477
2208.5	494.844
2209.45	495.582
2210.4	497.657
2211.35	485.902
2212.3	485.29
2213.24	492.691
2214.19	500.157
2215.14	487.203
2216.08	489.552
2217.03	486.517
2217.98	483.895
2218.92	488.874
2219.87	486.431
2220.82	483.207
2221.76	487.911
2222.71	494.667
2223.65	481.191
2224.6	481.678
2225.55	483.583
2226.49	484.52
2227.44	484.87
2228.38	484.324
2229.33	480.61
2230.27	479.552
2231.22	480.924
2232.16	481.526
2233.11	484.449
2234.05	484.323
2234.99	479.764
2235.94	483.628
2236.88	486.505
2237.83	479.52
2238.77	472.801
2239.71	487.706
2240.66	494.129
2241.6	489.998
2242.06	495
2243.01	501
2243.96	504.5
2244.91	499
2245.85	492.5
2246.8	497
2247.75	504.5
2248.7	505
2249.64	490.5
2250.59	503
2251.54	505
2252.48	484.5
2253.43	493
2254.38	494.5
2255.32	475.5
2256.27	477.5
2257.21	482.5
2258.16	471
2259.1	467.5
2260.05	463
2260.99	450
2261.94	460.5
2262.89	467
2263.83	460
2264.77	468
2265.72	470
2266.66	458
2267.61	463.5
2268.55	452
2269.5	457.5
2270.44	469
2271.38	452
2272.33	460
2273.27	441.5
2274.21	463
2275.16	456
2276.1	454
2277.04	454.5
2277.98	444
2278.93	441.5
2279.87	456.5
2280.81	462.5
2281.75	450
2282.7	457.5
2283.64	442.5
2284.58	448
2285.52	446
2286.46	447.5
2287.4	445
2288.34	457
2289.29	446.5
2290.23	454.5
2291.17	449
2292.11	431
2293.05	433
2293.99	440
2294.93	451.5
2295.87	436.5
2296.81	437
2297.75	444
2298.69	435.5
2299.63	417
2300.57	438.5
2301.51	430
2302.44	425
2303.38	413.5
2304.32	441.5
2305.26	424.5
2306.2	434.5
2307.14	424
2308.08	423
2309.01	434
2309.95	421
2310.89	429.5
2311.83	442.5
2312.77	428.5
2313.7	417.5
2314.64	424
2315.58	422
2316.51	425.5
2317.45	421.5
2318.39	423.5
2319.32	429
2320.26	408.5
2321.2	419.5
2322.13	419.5
2323.07	415.5
2324	428
2324.94	421.5
2325.88	426
2326.81	410.5
2327.75	417
2328.68	420.5
2329.62	414
2330.55	426
2331.49	418
2332.42	419.5
2333.35	398
2334.29	388
2335.22	418
2336.16	413
2337.09	401.5
2338.02	399
2338.96	413.5
2339.89	414
2340.82	411.5
2341.76	408.5
2342.69	406
2343.62	408.5
2344.56	414.5
2345.49	413
2346.42	401
2347.35	413
2348.29	421.5
2349.22	409
2350.15	404
2351.08	420
2352.01	415
2352.94	418
2353.88	394.5
2354.81	407
2355.74	407
2356.67	407
2357.6	409
2358.53	412
2359.46	398
2360.39	396
2361.32	414
2362.25	414.5
2363.18	403.5
2364.11	405
2365.04	392
2365.97	395.5
2366.9	384
2367.83	402.5
2368.76	398
2369.69	384
2370.62	394
2371.55	404
2372.47	391
2373.4	412.5
2374.33	406
2375.26	380.5
2376.19	394
2377.11	393.5
2378.04	397.5
2378.97	413.5
2379.9	391.5
2380.83	375
2381.75	384.5
2382.68	379.5
2383.61	398.5
2384.53	391.5
2385.46	397.5
2386.39	393
2387.31	383
2388.24	388.5
2389.17	382.5
2390.09	384.5
2391.02	400
2391.94	398
2392.87	378.5
2393.79	391.5
2394.72	385
2395.64	379.5
2396.57	378.5
2397.49	376
2398.42	377.5
2399.34	389
2400.27	386
2401.19	378
2402.12	380
2403.04	378.5
2403.96	374.5
2404.89	380
2405.81	370
2406.74	374
2407.66	385
2408.58	379
2409.51	396.5
2410.43	382.5
2411.35	380
2412.27	373
2413.2	366.5
2414.12	363.5
2415.04	368
2415.96	387.5
2416.89	375
2417.81	363
2418.73	367.5
2419.65	368.5
2420.57	364.5
2421.49	373.5
2422.41	369.5
2423.34	386.5
2424.26	371.5
2425.18	370.5
2426.1	380
2427.02	359.5
2427.94	373.5
2428.86	378.5
2429.78	369.5
2430.7	366
2431.62	370.5
2432.54	367.5
2433.46	374
2434.38	356
2435.3	357
2436.22	357.5
2437.13	378.5
2438.05	366.5
2438.97	357.5
2439.89	371
2440.81	366
2441.73	358.5
2442.65	357
2443.56	373
2444.48	359
2445.4	357.5
2446.32	362
2447.24	363
2448.15	359
2449.07	371
2449.99	363.5
2450.9	367
2451.82	354
2452.74	358.5
2453.65	352.5
2454.57	365
2455.49	350
2456.4	361.5
2457.32	364.5
2458.23	372
2459.15	360
2460.07	348.5
2460.98	366.5
2461.9	354
2462.81	348.5
2463.73	360
2464.64	361
2465.56	357
2466.47	355.5
2467.39	360.5
2468.3	364.5
2469.21	343
2470.13	343.5
2471.04	345.5
2471.96	354
2472.87	352
2473.78	358.5
2474.7	351.5
2475.61	351.5
2476.52	345
2477.44	345.5
2478.35	353.5
2479.26	350.5
2480.17	335.5
2481.09	341.5
2482	346
2482.91	350
2483.82	349
2484.74	357
2485.65	355.5
2486.56	338
2487.47	345.5
2488.38	354.5
2489.29	348
2490.21	336.5
2491.12	334.5
2492.03	353.5
2492.94	343
2493.85	345.5
2494.76	334
2495.67	340
2496.58	342.5
2497.49	346.5
2498.4	347
2499.31	328
2500.22	348
2501.13	338
2502.04	350.5
2502.95	345
2503.86	339.5
2504.76	340
2505.67	329.5
2506.58	341
2507.49	338
2508.4	337
2509.31	336.5
2510.22	331
2511.12	338.5
2512.03	328
2512.94	340
2513.85	316.5
2514.76	330
2515.66	332.5
2516.57	334
2517.48	333.5
2518.38	324.5
2519.29	338.5
2520.2	340
2521.1	329.5
2522.01	323
2522.92	341
2523.82	336.5
2524.73	330
2525.64	327
2526.54	326.5
2527.45	329
2528.35	328.5
2529.26	318.5
2530.16	319.5
2531.07	319
2531.97	327
2532.88	327.5
2533.78	325.5
2534.69	313
2535.59	325
2536.5	328
2537.4	329
2538.31	317
2539.21	314
2540.11	323.5
2541.02	325.5
2541.92	315
2542.82	321
2543.73	320
2544.63	311.5
2545.53	318.5
2546.44	316
2547.34	326.5
2548.24	314.5
2549.14	319.5
2550.05	309.5
2550.95	317.5
2551.85	316.5
2552.75	315
2553.65	311
2554.56	335
2555.46	321.5
2556.36	312.5
2557.26	303
2558.16	302.5
2559.06	306
2559.96	319
2560.86	312
2561.76	319
2562.67	303
2563.57	301.5
2564.47	302
2565.37	318
2566.27	305.5
2567.17	294
2568.06	302
2568.96	309.5
2569.86	308.5
2570.76	303.5
2571.66	301.5
2572.56	312.5
2573.46	294
2574.36	301.5
2575.26	325
2576.16	294.5
2577.05	315
2577.95	301.5
2578.85	301.5
2579.75	297.5
2580.65	302.5
2581.54	308.5
2582.44	290
2583.34	305.5
2584.24	309
2585.13	301
2586.03	301.5
2586.93	305.5
2587.83	304.5
2588.72	311
2589.62	294
2590.51	296
2591.41	300
2592.31	298.5
2593.2	293.5
2594.1	304
2594.99	296
2595.89	292
2596.79	297.5
2597.68	287.5
2598.58	303
2599.47	296
2600.37	288.5
2601.26	291.5
2602.16	298
2603.05	311.5
2603.94	291
2604.84	301.5
2605.73	297.5
2606.63	293.5
2607.52	292
2608.42	297.5
2609.31	290.5
2610.2	284.5
2611.1	296.5
2611.99	297.5
2612.88	292.5
2613.78	284.5
2614.67	292.5
2615.56	280.5
2616.45	292
2617.35	276
2618.24	292
2619.13	279
2620.02	288.5
2620.91	287
2621.81	284.5
2622.7	298.5
2623.59	287
2624.48	291
2625.37	282
2626.26	291.5
2627.15	280
2628.04	278
2628.94	281.5
2629.83	286
2630.72	283.5
2631.61	276.5
2632.5	282
2633.39	285.5
2634.28	282
2635.17	275
2636.06	277.5
2636.95	282
2637.84	275.5
2638.73	266
2639.61	284.5
2640.5	271
2641.39	280.5
2642.28	282
2643.17	277.5
2644.06	271
2644.95	268.5
2645.84	264.5
2646.72	279
2647.61	277.5
2648.5	259
2649.39	270.5
2650.28	271
2651.16	268
2652.05	278.5
2652.94	268
2653.82	265
2654.71	268
2655.6	265.5
2656.49	267.5
2657.37	275
2658.26	262
2659.14	274
2660.03	274
2660.92	262
2661.8	271.5
2662.69	281.5
2663.57	278.5
2664.46	274
2665.35	281
2666.23	264.5
2667.12	266.5
2668	270
2668.89	272
2669.77	271.5
2670.66	270
2671.54	269
2672.42	268
2673.31	269
2674.19	260.5
2675.08	250.5
2675.96	269.5
2676.84	264
2677.73	269.5
2678.61	273
2679.49	254.5
2680.38	253.5
2681.26	270
2682.14	269.5
2683.03	269
2683.91	272
2684.79	261.5
2685.68	267.5
2686.56	263.5
2687.44	261
2688.32	255
2689.2	260.5
2690.09	253.5
2690.97	250
2691.85	262
2692.73	252
2693.61	269.5
2694.49	267.5
2695.37	256.5
2696.25	259
2697.14	265
2698.02	260
2698.9	265
2699.78	250
2700.66	264.5
2701.54	262.5
2702.42	253
2703.3	265.5
2704.18	260.5
2705.06	266
2705.94	255
2706.82	252
2707.7	256
2708.57	262
2709.45	252.5
2710.33	261.5
2711.21	246.5
2712.09	250.5
2712.97	243
2713.85	257
2714.72	255.5
2715.6	250
2716.48	246
2717.36	253.5
2718.24	252.5
2719.11	246
2719.99	250.5
2720.87	258
2721.75	247
2722.62	248.5
2723.5	250
2724.38	245
2725.25	259
2726.13	253
2727.01	247.5
2727.88	249
2728.76	242.5
2729.63	242.5
2730.51	245.5
2731.39	255.5
2732.26	249
2733.14	247.5
2734.01	253.5
2734.89	246
2735.76	253.5
2736.64	257.5
2737.51	237
2738.39	243.5
2739.26	253
2740.14	244
2741.01	247
2741.89	251
2742.76	226
2743.63	238
2744.51	244
2745.38	239.5
2746.26	240
2747.13	238
2748	247
2748.88	245
2749.75	239
2750.62	232.5
2751.5	239
2752.37	242
2753.24	242.5
2754.11	234
2754.99	238.5
2755.86	245.5
2756.73	231
2757.6	232.5
2758.47	238
2759.35	220.5
2760.22	231.5
2761.09	226
2761.96	242
2762.83	227
2763.7	233
2764.57	242
2765.44	237.5
2766.32	229.5
2767.19	233
2768.06	232
2768.93	234.5
2769.8	229
2770.67	234
2771.54	231.5
2772.41	221
2773.28	226
2774.15	230.5
2775.02	236
2775.89	228
2776.75	224
2777.62	233
2778.49	238
2779.36	222
2780.23	229.5
2781.1	225.5
2781.97	231
2782.84	224
2783.7	227
2784.57	227
2785.44	229.5
2786.31	226
2787.18	224
2788.04	219.5
2788.91	220
2789.78	220.5
2790.64	229.5
2791.51	225.5
2792.38	227.5
2793.24	216.5
2794.11	227.5
2794.98	214
2795.85	226.5
2796.71	217
2797.58	225.5
2798.44	230
2799.31	217
2800.18	219
2801.04	224
2801.91	227.5
2802.77	226
2803.64	221.25
2804.5	213
2805.37	220.5
2806.23	211
2807.1	224.5
2807.96	215.5
2808.83	212.5
2809.69	221
2810.55	222.5
2811.42	205.5
2812.28	224.5
2813.15	217
2814.01	222
2814.88	221.5
2815.74	222.5
2816.6	217.5
2817.46	226
2818.33	218.5
2819.19	214.5
2820.05	214
2820.92	222.5
2821.78	212
2822.64	210
2823.51	217.5
2824.37	218.5
2825.23	217
2826.09	215
2826.95	211.5
2827.81	228
2828.68	215
2829.54	216
2830.4	218.5
2831.26	216.5
2832.12	214.5
2832.98	218.5
2833.84	210
2834.71	224
2835.57	213
2836.43	219
2837.29	229.5
2838.15	212
2839.01	224
2839.87	222
2840.73	221
2841.59	223
2842.45	227
2843.31	233.5
2844.17	223.5
2845.02	229.5
2845.88	229.5
2846.74	242
2847.6	238
2848.46	231.5
2849.32	231.5
2850.18	242
2851.04	231.5
2851.9	231
2852.75	240
2853.61	239.5
2854.47	237
2855.33	243
2856.19	236.5
2857.04	237.5
2857.9	235
2858.76	234.5
2859.61	233
2860.47	226.5
2861.33	234
2862.19	235.5
2863.04	236.5
2863.9	233
2864.76	229.5
2865.61	239
2866.47	228.5
2867.32	236
2868.18	233.5
2869.04	234.5
2869.89	230
2870.75	236.5
2871.6	243
2872.46	230
2873.31	226.5
2874.17	235
2875.02	234
2875.88	234
2876.73	236
2877.59	230.5
2878.44	236.5
2879.3	233
2880.15	222
2881	230.5
2881.86	237
2882.71	233
2883.57	227.5
2884.42	229.5
2885.27	227.5
2886.13	228.5
2886.98	225.5
2887.83	229.5
2888.69	221
2889.54	229
2890.39	233.5
2891.24	232
2892.1	226.5
2892.95	227
2893.8	229
2894.65	237.5
2895.51	239.5
2896.36	231
2897.21	232
2898.06	225.5
2898.91	234.5
2899.76	226
2900.62	226
2901.47	235
2902.32	231
2903.17	233
2904.02	226
2904.87	228
2905.72	226
2906.57	240.5
2907.42	236.5
2908.27	235.5
2909.12	236
2909.97	231
2910.82	228
2911.67	235.5
2912.52	234.5
2913.37	230
2914.22	240
2915.07	230.5
2915.92	238
2916.77	234
2917.62	234
2918.47	242
2919.31	235.5
2920.16	237
2921.01	231
2921.86	234
2922.71	239
2923.55	241.5
2924.4	236
2925.25	238.5
2926.1	235.5
2926.94	228
2927.79	236
2928.64	237
2929.49	236
2930.33	243
2931.18	240.5
2932.03	235.5
2932.87	243.5
2933.72	234.5
2934.57	249
2935.41	239.5
2936.26	233.5
2937.11	243
2937.95	235
2938.8	226
2939.64	235
2940.49	231
2941.33	235
2942.18	239.5
2943.02	233
2943.87	235
2944.71	230
2945.56	230
2946.4	234.5
2947.25	219.5
2948.09	222
2948.94	212.5
2949.78	220.5
2950.63	216
2951.47	219
2952.31	218
2953.16	217.5
2954	209
2954.84	214.5
2955.69	211
2956.53	210.5
2957.37	208
2958.22	206.5
2959.06	210
2959.9	205
2960.75	195.5
2961.59	204
2962.43	202
2963.27	205
2964.11	196
2964.96	199
2965.8	213
2966.64	191
2967.48	196
2968.32	190
2969.16	197.5
2970.01	197
2970.85	199
2971.69	204.5
2972.53	196
2973.37	192.5
2974.21	193
2975.05	192
2975.89	197
2976.73	193.5
2977.57	196.5
2978.41	185
2979.25	191
2980.09	185
2980.93	192
2981.77	183
2982.61	181
2983.45	192.5
2984.29	182
2985.13	181.5
2985.97	184
2986.81	188
2987.65	182.5
2988.49	180
2989.32	179
2990.16	177
2991	172.5
2991.84	181
2992.68	184.5
2993.51	173.5
2994.35	177.5
2995.19	176
2996.03	169
2996.86	174
2997.7	175
2998.54	173
2999.38	167
