#Acq. time (s)=	5
#Accumulations=	5
#Range (cm-¹)=	100...3000
#Windows=	3
#Autofocus=	Off
#AutoExposure=	Off
#Spike filter=	Multiple accum.
#Delay time (s)=	0
#Binning=	1
#Readout mode=	Signal
#DeNoise=	Off
#ICS correction=	Off
#Dark correction=	Off
#Inst. Process=	Off
#Instrument=	LabRAM HR Evol
#Detector=	Syncerity OE
#Objective=	x100_VIS_LWD
#Grating=	600 (500nm)
#ND Filter=	100%
#Laser=	633nm_Edge
#Hole=	100.021
#Range=	Visible
#Project=	Omar
#Sample=	chi
#Site=	f
#Title=	nsno
#Remark=	
#Date=	12.09.2023 17:30
#Acquired=	12.09.2023 17:30:41
101.026	2121
102.309	2087
103.592	2110
104.875	2022.5
106.158	2025
107.441	2007
108.723	2008.5
110.005	1985
111.289	1966.5
112.571	1957.5
113.852	1926.5
115.134	1932
116.415	1895
117.696	1889.5
118.976	1898
120.257	1909
121.537	1888.5
122.817	1868.5
124.097	1864.5
125.377	1802
126.656	1829.5
127.936	1848.5
129.215	1790
130.493	1816.5
131.772	1778.5
133.049	1782.5
134.327	1749
135.605	1742.5
136.883	1749
138.161	1748
139.438	1724.5
140.715	1702
141.992	1709
143.269	1663
144.545	1661.5
145.82	1637
147.096	1631.5
148.372	1600.5
149.648	1598
150.924	1604.5
152.199	1576
153.472	1583.5
154.747	1559
156.022	1522.5
157.296	1541.5
158.571	1525.5
159.843	1489
161.117	1527.5
162.391	1508
163.664	1514
164.937	1477.5
166.209	1471
167.482	1476.5
168.754	1466.5
170.025	1464
171.297	1432
172.569	1429
173.841	1445
175.111	1442.5
176.383	1433
177.654	1419.5
178.923	1434
180.194	1410.5
181.464	1410.5
182.733	1429
184.003	1418
185.273	1410
186.542	1418
187.811	1432.5
189.079	1387.5
190.348	1397.5
191.617	1401
192.884	1401
194.152	1426.5
195.419	1398
196.687	1420
197.955	1431.5
199.221	1441.5
200.489	1400
201.755	1442.5
203.022	1434
204.287	1434
205.554	1425
206.818	1425.5
208.085	1449
209.349	1429.5
210.615	1438
211.879	1457.5
213.144	1437.5
214.408	1417.5
215.673	1430
216.936	1437
218.201	1441.5
219.464	1435.5
220.728	1428
221.99	1428.5
223.253	1448
224.516	1436
225.778	1444.5
227.041	1459
228.303	1436
229.564	1452
230.826	1455
232.087	1447.5
233.348	1466
234.61	1463.5
235.87	1449
237.13	1460.5
238.391	1450.5
239.651	1468.5
240.91	1454.5
242.171	1454
243.43	1469.5
244.689	1448.5
245.949	1459
247.207	1474.5
248.465	1475.5
249.723	1497
250.983	1477.5
252.24	1478.5
253.498	1472.5
254.755	1489
256.013	1493
257.27	1506.5
258.526	1485.5
259.783	1478.5
261.039	1489.5
262.296	1484
263.552	1457.5
264.808	1475
266.063	1454
267.318	1469
268.573	1486.5
269.828	1481
271.084	1475
272.338	1496
273.592	1505.5
274.846	1504.5
276.1	1497
277.353	1491
278.607	1497.5
279.86	1466.5
281.113	1510.5
282.365	1517.5
283.619	1499
284.872	1527
286.124	1525.5
287.376	1505
288.627	1504.5
289.879	1505.5
291.13	1517.5
292.381	1525
293.632	1527
294.883	1541
296.133	1556.5
297.384	1543.5
298.634	1551
299.883	1540
301.133	1547
302.381	1541.5
303.63	1554.5
304.879	1545.5
306.128	1552.5
307.377	1539.5
308.625	1537
309.874	1531
311.122	1523
312.37	1541
313.617	1529
314.863	1515
316.111	1537
317.358	1536
318.604	1511
319.851	1514
321.098	1519.5
322.342	1518.5
323.588	1499
324.834	1498.5
326.08	1509
327.325	1497.5
328.569	1497
329.814	1481
331.059	1481.5
332.304	1474.5
333.548	1501
334.791	1483
336.035	1473.5
337.279	1474
338.521	1486.5
339.765	1473
341.008	1462.5
342.251	1458
343.492	1478
344.735	1453.5
345.977	1474
347.218	1479
348.46	1475
349.702	1465.5
350.942	1476.5
352.184	1472
353.425	1471
354.665	1478.5
355.905	1470
357.145	1448.5
358.385	1468
359.625	1470.5
360.864	1481
362.104	1479
363.342	1486
364.581	1477.5
365.819	1473.5
367.058	1471.5
368.296	1459
369.534	1463
370.771	1501.5
372.01	1448
373.246	1457.5
374.484	1465.5
375.72	1469
376.958	1453.5
378.194	1451
379.431	1464
380.666	1450
381.903	1478.5
383.138	1455
384.374	1469.5
385.609	1446.5
386.845	1471
388.079	1431.5
389.313	1458.5
390.548	1449
391.782	1467
393.016	1457
394.25	1436
395.483	1434
396.718	1463
397.95	1443
399.183	1444.5
400.416	1440.5
401.648	1444.5
402.88	1480.5
404.113	1483
405.345	1473
406.576	1482
407.807	1463.5
409.04	1480
410.27	1496.5
411.501	1488
412.731	1515.5
413.963	1520.5
415.193	1514
416.422	1532.5
417.652	1515
418.883	1527
420.112	1547
421.341	1534.5
422.569	1534
423.798	1536
425.028	1512
426.256	1509
427.484	1530
428.711	1515
429.939	1540
431.166	1514.5
432.394	1525
433.622	1519
434.849	1509.5
436.075	1534.5
437.302	1566
438.528	1535.5
439.754	1519.5
440.98	1529.5
442.205	1525
443.431	1548
444.656	1515
445.881	1525.5
447.106	1516
448.33	1535.5
449.555	1540.5
450.779	1524
452.003	1526
453.227	1521.5
454.45	1516.5
455.674	1524
456.897	1571
458.12	1515
459.343	1535
460.566	1529
461.788	1533
463.01	1537.5
464.232	1532.5
465.454	1537.5
466.676	1525
467.897	1498.5
469.119	1544
470.34	1534
471.559	1544.5
472.78	1530
474.001	1528.5
475.221	1550.5
476.441	1547
477.661	1504
478.879	1545
480.099	1532.5
481.318	1558.5
482.537	1547.5
483.756	1541.5
484.974	1565.5
486.192	1555
487.411	1576
488.629	1547
489.847	1578.5
491.063	1556
492.281	1561
493.498	1538
494.714	1560
495.931	1563.5
497.148	1563
498.365	1598.5
499.58	1574
500.796	1595
502.012	1568.5
503.226	1590
504.442	1582.5
505.657	1573.5
506.871	1589
508.086	1576.5
509.3	1589
510.515	1583.5
511.729	1558
512.942	1575
514.156	1581
515.369	1595
516.582	1564.5
517.796	1568
519.008	1579
520.221	1580.5
521.433	1578
522.645	1557
523.857	1555
525.069	1587
526.28	1598
527.492	1558
528.702	1561.5
529.914	1562.5
531.124	1590.5
532.335	1574.5
533.545	1570.5
534.756	1557
535.965	1572.5
537.175	1577
538.384	1558.5
539.593	1557.5
540.803	1556
542.011	1565.5
543.221	1575.5
544.429	1547
545.636	1550
546.845	1559
548.052	1582
549.261	1554.5
550.468	1534
551.675	1555
552.883	1573
554.089	1556
555.295	1564.5
556.503	1562
557.709	1544.5
558.914	1563.5
560.12	1571.5
561.326	1568
562.531	1556.5
563.736	1526.5
564.941	1549.5
566.147	1573
567.351	1551
568.555	1544
569.759	1564.5
570.964	1558.5
572.168	1574
573.371	1551
574.574	1562
575.777	1552.5
576.981	1577.5
578.184	1563
579.386	1563.5
580.588	1582
581.79	1563
582.992	1566.5
584.194	1574
585.395	1568
586.598	1573
587.799	1550
589	1571
590.201	1555
591.401	1580
592.601	1579.5
593.801	1551.5
595.001	1573
596.201	1580
597.401	1570
598.6	1554.5
599.799	1559.5
600.998	1574
602.197	1579
603.395	1581.5
604.594	1578
605.792	1578.5
606.99	1581.5
608.188	1579
609.386	1566.5
610.583	1582
611.78	1589.5
612.977	1559
614.174	1565
615.371	1612.5
616.566	1606.5
617.762	1608.5
618.958	1618
620.154	1593.5
621.35	1609.5
622.546	1620.5
623.741	1629
624.935	1617.5
626.13	1606.5
627.325	1611
628.519	1617
629.714	1605.5
630.908	1611.5
632.101	1639
633.295	1621
634.488	1626
635.682	1641.5
636.874	1642
638.067	1614
639.26	1634
640.453	1652
641.644	1638.5
642.836	1639.5
644.028	1634.5
645.219	1622
646.411	1635.5
647.602	1611
648.792	1643
649.984	1640
651.175	1628.5
652.364	1626.5
653.555	1610
654.745	1662.5
655.934	1664.5
657.124	1637
658.314	1611.5
659.503	1627.5
660.692	1629.5
661.88	1640
663.07	1638
664.257	1636
665.446	1627
666.635	1610
667.822	1645
669.01	1640
670.197	1608.5
671.384	1620.5
672.571	1604
673.758	1611
674.944	1629
676.131	1624.5
677.317	1606.5
678.502	1612
679.689	1598
680.874	1597.5
682.06	1583
683.245	1589.5
684.431	1580
685.615	1606
686.799	1622
687.984	1578.5
689.168	1593
690.353	1589.5
691.536	1609
692.719	1600.5
693.904	1640.5
695.086	1595
696.269	1617
697.453	1566.5
698.635	1597.5
699.817	1586
701	1592
702.182	1577
703.364	1585.5
704.545	1602
705.727	1608.5
706.908	1568.5
708.089	1589.5
709.27	1607
710.451	1579
711.632	1587.5
712.812	1602
713.991	1619
715.172	1614
716.352	1602
717.531	1600
718.71	1593
719.889	1566
721.068	1602.5
722.248	1577
723.426	1596.5
724.604	1593.5
725.782	1597
726.96	1624
728.138	1613.5
729.315	1597
730.492	1588
731.669	1572.5
732.846	1592.5
734.024	1607
735.201	1604.5
736.377	1598
737.553	1607
738.729	1594
739.905	1586.5
741.081	1617.5
742.256	1593.5
743.431	1601.5
744.606	1594
745.781	1616
746.956	1614
748.13	1611.5
749.303	1588.5
750.477	1610
751.651	1579
752.825	1604
753.999	1584
755.172	1600
756.345	1598
757.518	1597.5
758.691	1606.5
759.864	1593
761.035	1608.5
762.207	1598
763.379	1586
764.551	1617
765.723	1605
766.894	1568.5
768.064	1609
769.236	1585.5
770.407	1579.5
771.577	1600.5
772.748	1590
773.917	1584.5
775.088	1570
776.258	1577
777.427	1592
778.596	1564
779.765	1603
780.935	1606.5
782.104	1579.5
783.272	1589
784.44	1594
785.609	1577
786.776	1579.5
787.944	1599.5
789.113	1570.5
790.279	1586
791.447	1566.5
792.613	1591
793.78	1613.5
794.948	1606.5
796.113	1603
797.28	1613
798.445	1583.5
799.612	1600
800.778	1611
801.943	1568
803.109	1604.5
804.273	1610.5
805.439	1595
806.603	1597
807.768	1606
808.932	1615
810.096	1616
811.26	1595.5
812.424	1607
813.587	1624
814.751	1611
815.914	1606.5
817.078	1635
818.24	1614.5
819.402	1630.5
820.565	1607
821.727	1615.5
822.889	1655.5
824.051	1637.5
825.212	1630
826.374	1636
827.535	1634.5
828.697	1622
829.857	1660.5
831.018	1666.5
832.179	1643
833.339	1667
834.499	1641
835.659	1626
836.819	1657
837.978	1656.5
839.137	1666.5
840.297	1649
841.456	1654
842.614	1650.5
843.772	1652.5
844.932	1661
846.09	1653
847.247	1652
848.405	1647
849.562	1652
850.721	1622.5
851.878	1646
853.034	1633
854.191	1655.5
855.348	1649.5
856.504	1669.5
857.661	1655
858.817	1658
859.973	1671
861.129	1642.5
862.284	1644.5
863.439	1665
864.594	1627.5
865.749	1637.5
866.904	1624
868.058	1635.5
869.212	1638
870.367	1592.5
871.522	1599
872.676	1637
873.829	1615
874.983	1603
876.136	1613
877.289	1629.5
878.442	1621
879.593	1601.5
880.746	1598
881.898	1606.5
883.05	1626.5
884.202	1609.5
885.354	1633
886.506	1608.5
887.657	1578.5
888.808	1604.5
889.96	1580
891.11	1588.5
892.261	1613.5
893.41	1594
894.561	1577
895.711	1563.5
896.861	1580
898.011	1584.5
899.161	1575
900.309	1577
901.458	1582.5
902.607	1577.5
903.756	1566
904.904	1589.5
906.052	1582.5
907.201	1559.5
908.349	1550
909.496	1587.5
910.644	1568
911.791	1552.5
912.939	1575
914.085	1548
915.232	1545.5
916.379	1561.5
917.525	1562
918.671	1551.5
919.818	1580
920.963	1540
922.109	1561.5
923.255	1562.5
924.399	1552.5
925.545	1556.5
926.689	1544
927.834	1540
928.979	1548
930.123	1574
931.268	1547.5
932.411	1560
933.555	1549.5
934.698	1582.5
935.842	1560.5
936.985	1560
938.128	1552
939.271	1564.5
940.414	1559
941.556	1560
942.699	1550
943.84	1564.5
944.983	1569
946.124	1561
947.266	1562
948.407	1550
949.547	1543.5
950.689	1579
951.829	1579
952.971	1570.5
954.111	1569
955.25	1572.5
956.391	1580
957.531	1599.5
958.67	1567.5
959.81	1592
960.949	1581
962.088	1587
963.227	1572
964.366	1562
965.504	1566
966.643	1579
967.781	1586.5
968.919	1588.5
970.056	1574.5
971.195	1582
972.332	1582
973.469	1555.5
974.605	1594
975.743	1583
976.88	1587.5
978.016	1568.5
979.152	1579.5
980.288	1570
981.423	1562
982.56	1588.5
983.696	1572.5
984.831	1575.5
985.966	1573
987.101	1591.5
988.235	1579
989.37	1579
990.504	1609.5
991.638	1591
992.773	1584.5
993.907	1586
995.041	1583.5
996.174	1617.5
997.307	1610.5
998.44	1648.5
999.573	1631.5
1000.71	1644
1001.84	1619.5
1002.97	1617.5
1004.1	1597
1005.24	1586.5
1006.37	1582
1007.5	1595
1008.63	1567
1009.76	1571.5
1010.89	1559
1012.02	1546.5
1013.15	1588.5
1014.28	1579.5
1015.41	1589.5
1016.54	1544.5
1017.67	1543
1018.8	1581
1019.93	1566
1021.06	1570
1022.19	1566
1023.32	1555.5
1024.45	1544.5
1025.58	1568
1026.71	1567.5
1027.84	1564.5
1028.96	1581.5
1030.09	1558.5
1031.22	1574.5
1032.35	1560.5
1033.47	1591.5
1034.6	1587.5
1035.73	1572.5
1036.86	1573.5
1037.98	1586.5
1039.11	1597.5
1040.23	1598.5
1041.36	1590.5
1042.49	1613.5
1043.61	1592.5
1044.74	1566.5
1045.86	1574
1046.99	1603.5
1048.11	1581.5
1049.24	1598
1050.36	1582
1051.49	1595.5
1052.61	1604
1053.74	1594.5
1054.86	1589.5
1055.98	1571.5
1057.11	1584
1058.23	1581.5
1059.35	1556
1060.48	1587
1061.6	1596
1062.72	1574
1063.84	1586.5
1064.97	1570.5
1066.09	1602
1067.21	1570
1068.33	1572.5
1069.45	1591
1070.57	1592.5
1071.7	1591
1072.82	1586
1073.94	1576.5
1075.06	1571.5
1076.18	1593
1077.3	1581.5
1078.42	1578.5
1079.54	1572
1080.66	1531
1081.78	1574.5
1082.9	1569.5
1084.02	1568.5
1085.14	1574
1086.25	1554.5
1087.37	1584.5
1088.49	1570
1089.61	1572
1090.73	1564.5
1091.84	1530
1092.96	1556
1094.08	1567.5
1095.2	1569
1096.31	1559.5
1097.43	1564
1098.55	1532.5
1099.66	1564.5
1100.78	1551.5
1101.9	1568
1103.01	1532
1104.13	1551.5
1105.25	1562.5
1106.36	1556
1107.48	1553.5
1108.59	1544.5
1109.71	1530.5
1110.82	1555.5
1111.93	1543
1113.05	1541.5
1114.16	1513.5
1115.28	1538.5
1116.39	1554.5
1117.51	1520
1118.62	1540.5
1119.73	1526
1120.85	1541.5
1121.96	1562.5
1123.07	1534
1124.18	1563
1125.3	1521
1126.41	1578.5
1127.52	1554.5
1128.63	1566
1129.74	1558
1130.85	1573
1131.97	1564
1133.08	1577.5
1134.19	1560.5
1135.3	1564.5
1136.41	1548.5
1137.52	1604.5
1138.63	1577.5
1139.74	1565
1140.85	1553
1141.96	1591.5
1143.07	1567.5
1144.18	1564
1145.29	1570
1146.4	1591
1147.51	1625.5
1148.61	1613
1149.72	1598
1150.83	1591.5
1151.94	1614.5
1153.05	1602
1154.15	1621.5
1155.26	1584
1156.37	1636
1157.48	1619.5
1158.58	1610.5
1159.69	1632
1160.8	1621
1161.9	1635
1163.01	1624
1164.11	1630.5
1165.22	1656
1166.33	1649
1167.43	1646
1168.54	1647.5
1169.64	1646
1170.75	1630
1171.85	1637
1172.96	1647
1174.06	1646
1175.17	1637.5
1176.27	1640
1177.37	1599.5
1178.48	1637.5
1179.58	1635.5
1180.68	1622.5
1181.79	1631
1182.89	1604
1183.99	1626.5
1185.1	1589
1186.2	1599.5
1187.3	1580
1188.4	1602.5
1189.5	1609
1190.61	1582
1191.71	1621.5
1192.81	1592
1193.91	1585
1195.01	1579
1196.11	1599.28
1197.21	1606.24
1198.31	1599.59
1199.42	1620.22
1200.51	1578.56
1201.61	1592.38
1202.72	1600.79
1203.81	1582.51
1204.91	1589.34
1206.01	1581.42
1207.11	1573.35
1208.21	1589.74
1209.31	1619.86
1210.41	1570.68
1211.51	1595.53
1212.61	1603.08
1213.7	1589.11
1214.8	1595.79
1215.9	1589.01
1217	1574.83
1218.09	1617.17
1219.19	1586.61
1220.29	1576.61
1221.38	1576.87
1222.48	1586.55
1223.58	1578.14
1224.67	1588.2
1225.77	1587.37
1226.87	1597.55
1227.96	1579.8
1229.06	1568.27
1230.15	1586.82
1231.25	1608.5
1232.34	1578.27
1233.44	1604.78
1234.53	1583.89
1235.63	1590.1
1236.72	1606.26
1237.81	1595.76
1238.91	1595.22
1240	1598.26
1241.1	1603.14
1242.19	1607.55
1243.28	1608.5
1244.38	1590.87
1245.47	1613.31
1246.56	1593.6
1247.65	1589.76
1248.75	1598.12
1249.84	1600.6
1250.93	1601.01
1252.02	1602.11
1253.11	1611.88
1254.21	1618.88
1255.3	1600.54
1256.39	1619.35
1257.48	1604.03
1258.57	1597.8
1259.66	1606.85
1260.75	1613.75
1261.84	1613.15
1262.93	1627.7
1264.02	1612.64
1265.11	1625.57
1266.2	1617.52
1267.29	1640.04
1268.38	1634.08
1269.47	1627.65
1270.56	1641.85
1271.65	1638.28
1272.73	1639.44
1273.82	1642
1274.91	1649.13
1276	1655.42
1277.09	1651.49
1278.17	1668.82
1279.26	1654.02
1280.35	1648.98
1281.43	1665.74
1282.52	1658.59
1283.61	1650.14
1284.69	1654.95
1285.78	1647.75
1286.87	1650.37
1287.95	1651.14
1289.04	1649.41
1290.13	1653.71
1291.21	1655.99
1292.3	1653.88
1293.38	1658.51
1294.47	1660.13
1295.55	1659.15
1296.64	1670.12
1297.72	1659.57
1298.8	1645.32
1299.89	1676.14
1300.97	1651.04
1302.06	1651.49
1303.14	1666.68
1304.22	1660.85
1305.31	1650.72
1306.39	1641.45
1307.34	1624.5
1308.43	1659.5
1309.52	1637.5
1310.6	1643
1311.69	1645
1312.78	1642
1313.87	1637.5
1314.96	1633
1316.04	1634
1317.13	1619.5
1318.21	1631.5
1319.3	1629
1320.39	1635
1321.47	1623.5
1322.56	1628.5
1323.65	1632
1324.73	1618.5
1325.82	1642
1326.9	1626
1327.99	1604
1329.07	1654.5
1330.16	1623
1331.24	1648.5
1332.32	1634
1333.41	1623
1334.49	1640
1335.58	1649
1336.66	1637.5
1337.74	1593
1338.83	1592.5
1339.91	1627
1340.99	1598.5
1342.08	1585.5
1343.16	1601.5
1344.24	1597
1345.32	1608
1346.41	1589
1347.49	1582
1348.57	1565
1349.65	1575
1350.73	1573
1351.81	1575.5
1352.9	1570.5
1353.98	1527.5
1355.06	1569.5
1356.14	1571
1357.22	1540.5
1358.3	1566.5
1359.38	1572
1360.46	1556.5
1361.54	1571.5
1362.62	1541
1363.7	1567.5
1364.78	1538.5
1365.85	1530.5
1366.93	1522
1368.01	1538
1369.09	1550
1370.17	1547.5
1371.25	1506.5
1372.33	1511.5
1373.4	1507
1374.48	1537.5
1375.56	1517
1376.64	1528.5
1377.71	1509
1378.79	1518.5
1379.87	1517.5
1380.94	1522.5
1382.02	1496
1383.1	1518.5
1384.17	1526
1385.25	1513.5
1386.32	1510
1387.4	1524
1388.47	1477.5
1389.55	1522
1390.63	1510.5
1391.7	1486.5
1392.77	1509.5
1393.85	1487
1394.92	1479.5
1396	1499.5
1397.07	1493.5
1398.15	1497.5
1399.22	1477
1400.29	1509.5
1401.37	1481.5
1402.44	1481.5
1403.51	1503
1404.59	1497.5
1405.66	1490.5
1406.73	1537
1407.8	1495
1408.87	1491
1409.95	1501.5
1411.02	1510.5
1412.09	1508
1413.16	1516
1414.23	1509
1415.3	1492
1416.38	1515.5
1417.45	1514
1418.52	1500
1419.59	1475
1420.66	1492.5
1421.73	1500
1422.8	1499.5
1423.87	1519
1424.94	1503
1426.01	1530
1427.08	1524
1428.15	1501.5
1429.21	1524
1430.28	1505
1431.35	1519
1432.42	1518.5
1433.49	1499
1434.56	1510
1435.63	1498.5
1436.69	1511.5
1437.76	1496.5
1438.83	1515
1439.89	1495.5
1440.96	1502.5
1442.03	1514
1443.1	1521.5
1444.16	1531.5
1445.23	1518
1446.3	1513.5
1447.36	1528.5
1448.43	1535
1449.49	1535
1450.56	1530
1451.62	1535.5
1452.69	1532.5
1453.75	1513.5
1454.82	1529
1455.88	1529
1456.95	1529
1458.01	1517
1459.08	1536
1460.14	1510
1461.2	1529.5
1462.27	1518
1463.33	1509.5
1464.4	1515
1465.46	1523.5
1466.52	1530
1467.58	1517.5
1468.65	1527.5
1469.71	1521.5
1470.77	1541.5
1471.83	1518
1472.9	1506.5
1473.96	1525
1475.02	1550.5
1476.08	1522
1477.14	1539
1478.2	1552.5
1479.27	1532.5
1480.33	1551
1481.39	1555
1482.45	1549.5
1483.51	1536
1484.57	1557
1485.63	1566.5
1486.69	1547
1487.75	1562
1488.81	1540
1489.87	1561
1490.93	1576
1491.99	1575.5
1493.04	1586
1494.1	1570.5
1495.16	1575.5
1496.22	1567
1497.28	1572.5
1498.34	1578.5
1499.39	1542.5
1500.45	1565.5
1501.51	1599.5
1502.57	1585
1503.62	1581
1504.68	1564.5
1505.74	1582.5
1506.79	1584
1507.85	1570
1508.91	1591
1509.96	1590
1511.02	1615
1512.07	1605
1513.13	1588.5
1514.19	1602
1515.24	1611.5
1516.3	1589
1517.35	1619
1518.41	1646.5
1519.46	1656.5
1520.52	1624
1521.57	1648
1522.62	1627
1523.68	1641.5
1524.73	1631
1525.79	1636.5
1526.84	1648.5
1527.89	1642.5
1528.95	1635.5
1530	1638.5
1531.05	1607
1532.1	1630.5
1533.16	1646.5
1534.21	1622
1535.26	1617
1536.31	1625.5
1537.37	1641.5
1538.42	1631
1539.47	1603
1540.52	1621.5
1541.57	1597
1542.62	1603.5
1543.67	1602
1544.72	1598
1545.78	1624
1546.83	1605.5
1547.88	1635.5
1548.93	1592.5
1549.98	1602
1551.03	1601
1552.07	1586.5
1553.12	1602.5
1554.17	1600.5
1555.22	1590.5
1556.27	1585
1557.32	1599
1558.37	1602.5
1559.42	1606.5
1560.47	1578.5
1561.51	1592
1562.56	1555
1563.61	1597
1564.66	1575.5
1565.7	1588
1566.75	1571.5
1567.8	1590.5
1568.85	1569.5
1569.89	1596
1570.94	1575
1571.98	1592
1573.03	1578
1574.08	1582
1575.12	1564.5
1576.17	1605.5
1577.21	1597
1578.26	1599.5
1579.31	1592
1580.35	1605.5
1581.4	1604.5
1582.44	1614.5
1583.49	1586
1584.53	1619
1585.57	1599
1586.62	1604.5
1587.66	1606.5
1588.71	1587.5
1589.75	1616
1590.79	1615
1591.84	1599
1592.88	1582.5
1593.92	1598.5
1594.97	1593
1596.01	1610
1597.05	1602.5
1598.09	1569.5
1599.14	1590
1600.18	1584
1601.22	1563.5
1602.26	1562.5
1603.3	1532
1604.34	1519
1605.38	1547
1606.43	1511
1607.47	1533
1608.51	1499.5
1609.55	1472
1610.59	1463
1611.63	1446
1612.67	1438.5
1613.71	1431
1614.75	1409
1615.79	1425.5
1616.83	1397.5
1617.87	1401
1618.91	1383.5
1619.94	1358.5
1620.98	1371.5
1622.02	1323.5
1623.06	1333
1624.1	1316
1625.14	1329.5
1626.17	1315
1627.21	1298
1628.25	1288
1629.29	1290
1630.32	1267
1631.36	1244.5
1632.4	1290
1633.43	1239.5
1634.47	1221.5
1635.51	1234.5
1636.54	1229.5
1637.58	1216.5
1638.62	1198.5
1639.65	1199.5
1640.69	1196
1641.72	1210.5
1642.76	1189.5
1643.79	1160
1644.83	1188.5
1645.86	1176.5
1646.9	1154
1647.93	1126.5
1648.97	1173
1650	1147.5
1651.04	1157
1652.07	1130
1653.1	1148.5
1654.14	1113.5
1655.17	1102.5
1656.2	1130
1657.24	1091
1658.27	1107
1659.3	1094
1660.34	1090.5
1661.37	1091
1662.4	1088
1663.43	1061.5
1664.46	1069
1665.5	1078.5
1666.53	1077
1667.56	1079.5
1668.59	1061
1669.62	1060
1670.65	1055.5
1671.68	1053
1672.71	1050.5
1673.74	1058.5
1674.77	1030.5
1675.8	1041
1676.83	1030
1677.86	1035
1678.89	1035
1679.92	1026.5
1680.95	1036
1681.98	1034
1683.01	1021.5
1684.04	1012.5
1685.07	1011
1686.1	1023.5
1687.13	1004.5
1688.15	1011.5
1689.18	1004
1690.21	1015.5
1691.24	996
1692.27	978
1693.29	998.5
1694.32	973
1695.35	1005
1696.37	993
1697.4	987.5
1698.43	998
1699.45	989.5
1700.48	995
1701.51	971
1702.53	956.5
1703.56	979.5
1704.58	966.5
1705.61	946
1706.64	962.5
1707.66	963
1708.69	934.5
1709.71	936
1710.73	956
1711.76	954.5
1712.78	937.5
1713.81	952
1714.83	929.5
1715.86	920
1716.88	960
1717.9	938.5
1718.93	949
1719.95	940.5
1720.97	927
1722	933.5
1723.02	932.5
1724.04	935
1725.06	931.5
1726.09	930.5
1727.11	932
1728.13	937.5
1729.15	903.5
1730.17	923
1731.2	912.5
1732.22	923
1733.24	918
1734.26	909.5
1735.28	895
1736.3	897.5
1737.32	899
1738.34	883
1739.36	904
1740.38	903
1741.4	916
1742.42	894.5
1743.44	888
1744.46	898
1745.48	890
1746.5	895
1747.52	899.5
1748.54	886
1749.56	885.5
1750.57	892
1751.59	879.5
1752.61	890.5
1753.63	858.5
1754.65	874
1755.66	884.5
1756.68	865
1757.7	882.5
1758.72	858
1759.73	872
1760.75	863.5
1761.77	873
1762.78	864
1763.8	862
1764.82	877.5
1765.83	851
1766.85	866
1767.86	863.5
1768.88	846
1769.9	834
1770.91	848
1771.93	847
1772.94	851.5
1773.96	844
1774.97	827
1775.99	839
1777	838
1778.01	835.5
1779.03	830.5
1780.04	832
1781.06	833.5
1782.07	817
1783.08	822.5
1784.1	825
1785.11	852
1786.12	833.5
1787.14	814
1788.15	827
1789.16	827
1790.17	802
1791.18	814
1792.2	832
1793.21	811.5
1794.22	815.5
1795.23	819
1796.24	808
1797.26	817
1798.27	808
1799.28	814.5
1800.29	801.5
1801.3	816
1802.31	815
1803.32	805
1804.33	800
1805.34	784
1806.35	788
1807.36	795
1808.37	790
1809.38	816
1810.39	798
1811.4	776
1812.4	794.5
1813.41	807
1814.42	773.5
1815.43	784
1816.44	770.5
1817.45	795
1818.45	795.5
1819.46	777
1820.47	771
1821.48	782.5
1822.49	780.5
1823.49	757
1824.5	773
1825.51	773.5
1826.51	776
1827.52	775.5
1828.53	770.5
1829.53	768.5
1830.54	756.5
1831.54	774.5
1832.55	762
1833.56	768
1834.56	767.5
1835.57	759
1836.57	756
1837.58	746.5
1838.58	761
1839.59	755
1840.59	756
1841.59	746
1842.6	753
1843.6	736
1844.61	756
1845.61	759
1846.61	738
1847.62	732.5
1848.62	739
1849.62	735.5
1850.63	755.5
1851.63	750.5
1852.63	752.5
1853.64	739
1854.64	729.5
1855.64	724
1856.64	733
1857.64	736.5
1858.65	743
1859.65	738
1860.65	707
1861.65	734.5
1862.65	738
1863.65	728
1864.65	710.5
1865.65	735.5
1866.65	703.5
1867.65	694
1868.65	701.5
1869.65	715.5
1870.65	723
1871.65	725
1872.65	726
1873.65	705.5
1874.65	699
1875.65	719
1876.65	705.5
1877.65	710.5
1878.65	722.5
1879.65	716
1880.65	723.5
1881.64	700.5
1882.64	705.5
1883.64	719
1884.64	699
1885.63	712.5
1886.63	710
1887.63	689
1888.63	711.5
1889.62	704.5
1890.62	694.5
1891.62	693
1892.61	695.5
1893.61	700.5
1894.61	685.5
1895.6	696
1896.6	688
1897.59	701
1898.59	681
1899.58	694
1900.58	689.5
1901.57	702.5
1902.57	714
1903.56	688
1904.56	693
1905.55	697.5
1906.55	694
1907.54	696
1908.54	685.5
1909.53	683
1910.52	691.5
1911.52	681.5
1912.51	690
1913.5	671.5
1914.5	679.5
1915.49	672
1916.48	680
1917.48	685
1918.47	663
1919.46	690.5
1920.45	685
1921.44	685
1922.44	675
1923.43	674
1924.42	679
1925.41	669.5
1926.4	678
1927.39	674
1928.38	672.5
1929.38	668.5
1930.37	659
1931.36	637.5
1932.35	676
1933.34	655
1934.33	669
1935.32	650
1936.31	665
1937.3	668
1938.29	678.5
1939.28	668.5
1940.26	661
1941.25	656
1942.24	673.5
1943.23	654
1944.22	665
1945.21	651.5
1946.2	662
1947.18	654
1948.17	662
1949.16	641.5
1950.15	652
1951.13	650
1952.12	636
1953.11	651
1954.1	637
1955.08	648
1956.07	649
1957.06	633
1958.04	651.5
1959.03	652
1960.01	640
1961	649
1961.99	652
1962.97	657
1963.96	650
1964.94	644
1965.93	634.5
1966.91	642.5
1967.9	644.5
1968.88	658
1969.87	637.5
1970.85	625
1971.84	649.5
1972.82	630
1973.81	630
1974.79	631
1975.77	633
1976.76	626.5
1977.74	616.5
1978.72	623.5
1979.71	644
1980.69	636
1981.67	634.5
1982.65	615
1983.64	613.5
1984.62	607.5
1985.6	618.5
1986.58	631.5
1987.56	633
1988.55	623
1989.53	637.5
1990.51	610.5
1991.49	626
1992.47	603.5
1993.45	621
1994.43	634
1995.41	624.5
1996.39	626.5
1997.37	608.5
1998.36	609
1999.34	606
2000.31	621.5
2001.29	619
2002.27	599.5
2003.25	601
2004.23	613.5
2005.21	590
2006.19	616
2007.17	617.5
2008.15	608.5
2009.13	596
2010.11	598.5
2011.08	585
2012.06	595.5
2013.04	609
2014.02	615.5
2015	618
2015.97	614
2016.95	610
2017.93	582.5
2018.91	600
2019.88	608
2020.86	603
2021.83	606
2022.81	586.5
2023.79	604
2024.76	579
2025.74	605.5
2026.72	597.5
2027.69	601.5
2028.67	582.5
2029.64	604.5
2030.62	581
2031.59	593
2032.57	595.5
2033.54	592.5
2034.52	603.5
2035.49	588.5
2036.47	589
2037.44	596.5
2038.41	590.5
2039.39	599.5
2040.36	592
2041.34	579
2042.31	580
2043.28	578.5
2044.26	586
2045.23	583.5
2046.2	563.5
2047.17	587.5
2048.15	589
2049.12	576.5
2050.09	577.5
2051.06	572.5
2052.04	579.5
2053.01	576
2053.98	568.5
2054.95	577.5
2055.92	585.5
2056.89	579.5
2057.86	578.5
2058.84	583
2059.81	590
2060.78	583.5
2061.75	576
2062.72	574
2063.69	572.5
2064.66	569.5
2065.63	574.5
2066.6	582.5
2067.57	575
2068.54	573
2069.51	560
2070.48	572
2071.44	562
2072.41	569.5
2073.38	546
2074.35	572
2075.32	550.5
2076.29	568
2077.26	561.5
2078.22	560
2079.19	549.5
2080.16	555
2081.13	564
2082.09	564
2083.06	578.5
2084.03	551
2085	556.5
2085.96	554.5
2086.93	554
2087.9	565
2088.86	565
2089.83	544.5
2090.79	555
2091.76	563.5
2092.73	558.5
2093.69	550.5
2094.66	568
2095.62	558
2096.59	565
2097.55	554
2098.52	562
2099.48	549
2100.45	552.5
2101.41	576.5
2102.38	571.5
2103.34	573
2104.3	566.5
2105.27	572.5
2106.23	569.5
2107.19	572.5
2108.16	591
2109.12	583.5
2110.08	580
2111.05	590.5
2112.01	594
2112.97	598
2113.94	601
2114.9	594.5
2115.86	596
2116.82	603.5
2117.78	629
2118.75	613
2119.71	638
2120.67	635.5
2121.63	638
2122.59	638
2123.55	650
2124.51	651
2125.47	650.5
2126.43	674
2127.4	668
2128.36	668.5
2129.32	667
2130.28	672.5
2131.24	665
2132.2	653.5
2133.16	671
2134.11	690
2135.07	705.5
2136.03	696.5
2136.99	704
2137.95	697.5
2138.91	687
2139.87	682.5
2140.83	693.5
2141.78	688.5
2142.74	710.5
2143.7	709
2144.66	711
2145.62	686.816
2146.57	717.02
2147.53	736.258
2148.49	728.191
2149.45	709.818
2150.4	742.873
2151.36	749.901
2152.32	754.236
2153.27	727.426
2154.23	750.885
2155.19	740.66
2156.14	751.101
2157.1	738.898
2158.05	735.551
2159.01	764.341
2159.96	744.815
2160.92	754.428
2161.88	768.434
2162.83	765.683
2163.78	758.499
2164.74	769.769
2165.69	757.438
2166.65	753.573
2167.6	745.101
2168.56	751.601
2169.51	736.901
2170.47	730.028
2171.42	733.075
2172.37	737.566
2173.33	735.599
2174.28	727.053
2175.23	732.587
2176.19	720.62
2177.14	731.398
2178.09	711.129
2179.04	727.138
2180	710.105
2180.95	707.491
2181.9	706.924
2182.85	692.045
2183.81	690.668
2184.76	678.543
2185.71	669.544
2186.66	654.194
2187.61	663.748
2188.56	652.5
2189.51	629.906
2190.46	625.098
2191.42	616.483
2192.37	606.464
2193.32	594.153
2194.27	585.361
2195.22	583.956
2196.17	564.333
2197.12	565.314
2198.07	551.132
2199.02	545.847
2199.97	536.296
2200.92	525.213
2201.86	521.799
2202.81	510.17
2203.76	512.531
2204.71	512.363
2205.66	505.298
2206.61	511.247
2207.56	506.314
2208.5	498.148
2209.45	496.725
2210.4	489.103
2211.35	494.434
2212.3	494.18
2213.24	485.392
2214.19	478.078
2215.14	476.445
2216.08	478.76
2217.03	479.543
2217.98	470.903
2218.92	467.776
2219.87	472.822
2220.82	475.831
2221.76	475.026
2222.71	478.516
2223.65	474.795
2224.6	473.413
2225.55	481.265
2226.49	478.331
2227.44	477.772
2228.38	475.551
2229.33	476.574
2230.27	481.116
2231.22	473.71
2232.16	462.5
2233.11	465.913
2234.05	467.965
2234.99	467.987
2235.94	474.428
2236.88	472.055
2237.83	465.879
2238.77	472.49
2239.71	481.114
2240.66	475.226
2241.6	477.868
2242.06	486
2243.01	485
2243.96	498
2244.91	468
2245.85	491.5
2246.8	489.5
2247.75	495
2248.7	506.5
2249.64	484
2250.59	466
2251.54	497.5
2252.48	477
2253.43	475.5
2254.38	463.5
2255.32	469.5
2256.27	480
2257.21	458.5
2258.16	458
2259.1	468
2260.05	457.5
2260.99	456.5
2261.94	446
2262.89	456.5
2263.83	453
2264.77	463
2265.72	447
2266.66	460
2267.61	452
2268.55	434
2269.5	450.5
2270.44	427.5
2271.38	445
2272.33	440.5
2273.27	434
2274.21	447
2275.16	437
2276.1	434
2277.04	442.5
2277.98	427.5
2278.93	439.5
2279.87	423.5
2280.81	433.5
2281.75	430
2282.7	432
2283.64	434
2284.58	427
2285.52	420
2286.46	437
2287.4	431
2288.34	431.5
2289.29	433
2290.23	425
2291.17	420.5
2292.11	438.5
2293.05	433
2293.99	435
2294.93	416
2295.87	435
2296.81	426.5
2297.75	413
2298.69	424
2299.63	415
2300.57	414
2301.51	428
2302.44	420
2303.38	424.5
2304.32	414
2305.26	415
2306.2	420
2307.14	424
2308.08	432
2309.01	403
2309.95	414
2310.89	410.5
2311.83	406
2312.77	424.5
2313.7	407
2314.64	412
2315.58	414.5
2316.51	414
2317.45	409
2318.39	396
2319.32	421
2320.26	408
2321.2	406.5
2322.13	405
2323.07	421.5
2324	411.5
2324.94	412
2325.88	410
2326.81	396
2327.75	416.5
2328.68	405
2329.62	408.5
2330.55	413
2331.49	402.5
2332.42	404.5
2333.35	413
2334.29	403
2335.22	401
2336.16	415
2337.09	414
2338.02	408
2338.96	405
2339.89	395
2340.82	403
2341.76	401
2342.69	399
2343.62	390
2344.56	399
2345.49	397
2346.42	400
2347.35	405
2348.29	402.5
2349.22	404.5
2350.15	404.5
2351.08	393
2352.01	395
2352.94	398
2353.88	398
2354.81	404.5
2355.74	390.5
2356.67	407.5
2357.6	403
2358.53	403
2359.46	400.5
2360.39	402.5
2361.32	401.5
2362.25	402
2363.18	404
2364.11	390
2365.04	398
2365.97	403
2366.9	405.5
2367.83	399.5
2368.76	398
2369.69	385
2370.62	382.5
2371.55	392
2372.47	396.5
2373.4	388
2374.33	382.5
2375.26	390
2376.19	402
2377.11	388.5
2378.04	390
2378.97	395.5
2379.9	388
2380.83	387.5
2381.75	398
2382.68	396.5
2383.61	388
2384.53	384
2385.46	375
2386.39	372
2387.31	381
2388.24	389
2389.17	380
2390.09	377
2391.02	385
2391.94	383
2392.87	383.5
2393.79	382.5
2394.72	385
2395.64	385
2396.57	371
2397.49	387.5
2398.42	373
2399.34	371
2400.27	379.5
2401.19	376
2402.12	371.5
2403.04	369.5
2403.96	378.5
2404.89	377.5
2405.81	375
2406.74	379
2407.66	365
2408.58	369
2409.51	368.5
2410.43	380
2411.35	372.5
2412.27	376
2413.2	372.5
2414.12	369.5
2415.04	374
2415.96	369.5
2416.89	359
2417.81	363
2418.73	366
2419.65	369
2420.57	363
2421.49	377
2422.41	351
2423.34	366
2424.26	367
2425.18	372
2426.1	351
2427.02	368
2427.94	361
2428.86	358.5
2429.78	357
2430.7	361
2431.62	354.5
2432.54	358
2433.46	354.5
2434.38	364
2435.3	355
2436.22	353.5
2437.13	364.5
2438.05	363.5
2438.97	366
2439.89	365
2440.81	368.5
2441.73	363
2442.65	348.5
2443.56	368.5
2444.48	354
2445.4	365
2446.32	368
2447.24	358
2448.15	345
2449.07	363
2449.99	363
2450.9	353
2451.82	345.5
2452.74	352
2453.65	354.5
2454.57	352
2455.49	352.5
2456.4	365
2457.32	357.5
2458.23	357.5
2459.15	369
2460.07	356
2460.98	362
2461.9	354
2462.81	363.5
2463.73	354
2464.64	337
2465.56	351.5
2466.47	357
2467.39	352.5
2468.3	347
2469.21	350
2470.13	351.5
2471.04	360.5
2471.96	349
2472.87	351
2473.78	336
2474.7	336
2475.61	355
2476.52	353
2477.44	349.5
2478.35	352.5
2479.26	346
2480.17	333.5
2481.09	341
2482	338
2482.91	344
2483.82	350
2484.74	350
2485.65	345
2486.56	335
2487.47	329
2488.38	336
2489.29	351.5
2490.21	342
2491.12	340
2492.03	340.5
2492.94	342.5
2493.85	338
2494.76	345
2495.67	331.5
2496.58	334
2497.49	336
2498.4	345
2499.31	323
2500.22	339
2501.13	329.5
2502.04	325
2502.95	346
2503.86	338
2504.76	339
2505.67	335.5
2506.58	341
2507.49	331.5
2508.4	334
2509.31	327.5
2510.22	328.5
2511.12	327.5
2512.03	352
2512.94	336.5
2513.85	329
2514.76	331
2515.66	334
2516.57	332.5
2517.48	325
2518.38	330.5
2519.29	327.5
2520.2	327.5
2521.1	333
2522.01	330.5
2522.92	309
2523.82	322.5
2524.73	318.5
2525.64	329
2526.54	339.5
2527.45	327
2528.35	320
2529.26	342
2530.16	325.5
2531.07	334.5
2531.97	327
2532.88	329.5
2533.78	331
2534.69	331
2535.59	332
2536.5	325.5
2537.4	326
2538.31	319
2539.21	311
2540.11	312.5
2541.02	322
2541.92	319
2542.82	328
2543.73	338
2544.63	330
2545.53	318
2546.44	319
2547.34	318
2548.24	318.5
2549.14	321
2550.05	315
2550.95	312
2551.85	320.5
2552.75	329
2553.65	310
2554.56	314
2555.46	302
2556.36	321.5
2557.26	322
2558.16	312
2559.06	306
2559.96	318
2560.86	317.5
2561.76	318.5
2562.67	320
2563.57	311
2564.47	310
2565.37	315
2566.27	310.5
2567.17	311
2568.06	314
2568.96	317
2569.86	318
2570.76	315
2571.66	319
2572.56	306
2573.46	302.5
2574.36	314
2575.26	312.5
2576.16	309
2577.05	308.5
2577.95	309.5
2578.85	310.5
2579.75	311
2580.65	303
2581.54	311
2582.44	308.5
2583.34	303
2584.24	305.5
2585.13	297
2586.03	315
2586.93	297
2587.83	302
2588.72	302.5
2589.62	307
2590.51	304.5
2591.41	313.5
2592.31	304.5
2593.2	314
2594.1	303
2594.99	309
2595.89	312
2596.79	311
2597.68	306
2598.58	303
2599.47	289.5
2600.37	297
2601.26	302
2602.16	296
2603.05	290.5
2603.94	302
2604.84	307
2605.73	310.5
2606.63	301
2607.52	298
2608.42	311
2609.31	307
2610.2	313
2611.1	306
2611.99	299
2612.88	299.5
2613.78	296
2614.67	292
2615.56	295
2616.45	289
2617.35	293
2618.24	287
2619.13	300
2620.02	294.5
2620.91	297
2621.81	300
2622.7	298.5
2623.59	295.5
2624.48	302.5
2625.37	307.5
2626.26	292.5
2627.15	289
2628.04	300
2628.94	287
2629.83	284.5
2630.72	280
2631.61	279
2632.5	287
2633.39	297
2634.28	287.5
2635.17	287
2636.06	292
2636.95	282
2637.84	283
2638.73	292
2639.61	277.5
2640.5	291
2641.39	289
2642.28	284.5
2643.17	286
2644.06	293
2644.95	282
2645.84	277.5
2646.72	291
2647.61	282.5
2648.5	288.5
2649.39	289
2650.28	282
2651.16	279
2652.05	284
2652.94	287.5
2653.82	286
2654.71	277.5
2655.6	288.5
2656.49	278.5
2657.37	289
2658.26	291.5
2659.14	275.5
2660.03	285
2660.92	274
2661.8	288
2662.69	278
2663.57	281.5
2664.46	279.5
2665.35	284
2666.23	275
2667.12	267.5
2668	277.5
2668.89	287
2669.77	278
2670.66	276
2671.54	280
2672.42	273
2673.31	279
2674.19	281.5
2675.08	275
2675.96	269
2676.84	283
2677.73	274
2678.61	277
2679.49	274
2680.38	275.5
2681.26	272.5
2682.14	274.5
2683.03	266.5
2683.91	270.5
2684.79	263
2685.68	275.5
2686.56	280
2687.44	279.5
2688.32	279.5
2689.2	279
2690.09	273
2690.97	267
2691.85	272.5
2692.73	267
2693.61	272
2694.49	275
2695.37	272
2696.25	274
2697.14	267
2698.02	270
2698.9	271.5
2699.78	275
2700.66	280
2701.54	277
2702.42	268
2703.3	269
2704.18	268
2705.06	271
2705.94	277.5
2706.82	267.5
2707.7	269
2708.57	277
2709.45	258
2710.33	272
2711.21	263.5
2712.09	259
2712.97	269
2713.85	274.5
2714.72	273
2715.6	276
2716.48	266
2717.36	258
2718.24	265
2719.11	273.5
2719.99	265
2720.87	275
2721.75	269.5
2722.62	266
2723.5	267
2724.38	279
2725.25	268
2726.13	269.5
2727.01	268
2727.88	266.5
2728.76	267
2729.63	272.5
2730.51	264
2731.39	255
2732.26	257
2733.14	273.5
2734.01	269.5
2734.89	261.5
2735.76	274
2736.64	245
2737.51	260
2738.39	264
2739.26	248.5
2740.14	260.5
2741.01	259
2741.89	267
2742.76	257.5
2743.63	270.5
2744.51	265
2745.38	254.5
2746.26	262
2747.13	249
2748	267
2748.88	259
2749.75	258
2750.62	258
2751.5	257.5
2752.37	264
2753.24	250
2754.11	248.5
2754.99	244
2755.86	259
2756.73	256
2757.6	253.5
2758.47	249.5
2759.35	256.5
2760.22	252
2761.09	258
2761.96	257
2762.83	254
2763.7	255.5
2764.57	248
2765.44	249.5
2766.32	248.5
2767.19	252
2768.06	252
2768.93	249.5
2769.8	244
2770.67	251.5
2771.54	256.5
2772.41	241
2773.28	255
2774.15	257
2775.02	253
2775.89	240
2776.75	249.5
2777.62	245.5
2778.49	247
2779.36	247.5
2780.23	249.5
2781.1	254.5
2781.97	240
2782.84	241
2783.7	236
2784.57	240.5
2785.44	245.5
2786.31	248.5
2787.18	255
2788.04	246
2788.91	238
2789.78	239
2790.64	247
2791.51	245
2792.38	234
2793.24	237
2794.11	242
2794.98	249.5
2795.85	241
2796.71	241
2797.58	248
2798.44	242.5
2799.31	245
2800.18	251
2801.04	239.5
2801.91	243.5
2802.77	232.5
2803.64	236.75
2804.5	241
2805.37	233
2806.23	240
2807.1	239
2807.96	240
2808.83	233
2809.69	244.5
2810.55	236.5
2811.42	231.5
2812.28	241.5
2813.15	237
2814.01	227
2814.88	232
2815.74	236
2816.6	233.5
2817.46	242.5
2818.33	244
2819.19	236
2820.05	237
2820.92	243.5
2821.78	234
2822.64	229
2823.51	249
2824.37	231
2825.23	236.5
2826.09	233
2826.95	233
2827.81	236
2828.68	241
2829.54	235.5
2830.4	224.5
2831.26	233
2832.12	239
2832.98	237.5
2833.84	230
2834.71	237.5
2835.57	240.5
2836.43	235
2837.29	239
2838.15	234
2839.01	229
2839.87	235
2840.73	242
2841.59	237
2842.45	228
2843.31	237.5
2844.17	238
2845.02	232
2845.88	231
2846.74	238.5
2847.6	246
2848.46	244.5
2849.32	241.5
2850.18	235
2851.04	250
2851.9	242.5
2852.75	238.5
2853.61	251
2854.47	239
2855.33	240
2856.19	239
2857.04	240.5
2857.9	237.5
2858.76	232.5
2859.61	238.5
2860.47	244.5
2861.33	232
2862.19	232.5
2863.04	232
2863.9	243
2864.76	235.5
2865.61	240
2866.47	248
2867.32	229
2868.18	245.5
2869.04	239
2869.89	234
2870.75	237
2871.6	237.5
2872.46	246
2873.31	238.5
2874.17	241
2875.02	236.5
2875.88	240.5
2876.73	244
2877.59	238.5
2878.44	233
2879.3	243
2880.15	244.5
2881	250
2881.86	238
2882.71	235
2883.57	255.5
2884.42	245.5
2885.27	245.5
2886.13	237.5
2886.98	239
2887.83	232.5
2888.69	245
2889.54	235.5
2890.39	233.5
2891.24	253
2892.1	250
2892.95	234
2893.8	242
2894.65	232.5
2895.51	237
2896.36	239
2897.21	245.5
2898.06	244
2898.91	250.5
2899.76	245
2900.62	237
2901.47	246.5
2902.32	250
2903.17	237.5
2904.02	237
2904.87	235.5
2905.72	239
2906.57	240
2907.42	240
2908.27	249
2909.12	242
2909.97	246
2910.82	252.5
2911.67	250.5
2912.52	249.5
2913.37	242.5
2914.22	244.5
2915.07	246.5
2915.92	249
2916.77	239.5
2917.62	240.5
2918.47	249.5
2919.31	248.5
2920.16	244.5
2921.01	242
2921.86	267
2922.71	240.5
2923.55	254
2924.4	254
2925.25	251
2926.1	252
2926.94	257
2927.79	239
2928.64	255
2929.49	257.5
2930.33	253.5
2931.18	255
2932.03	263.5
2932.87	261.5
2933.72	246.5
2934.57	244
2935.41	260
2936.26	259
2937.11	247
2937.95	254.5
2938.8	246.5
2939.64	253
2940.49	260
2941.33	261
2942.18	254
2943.02	246
2943.87	254
2944.71	251.5
2945.56	253
2946.4	247
2947.25	234.5
2948.09	249.5
2948.94	235.5
2949.78	230
2950.63	235
2951.47	226
2952.31	235
2953.16	228
2954	235
2954.84	235.5
2955.69	224
2956.53	223
2957.37	216.5
2958.22	223
2959.06	211
2959.9	227.5
2960.75	218.5
2961.59	226.5
2962.43	228
2963.27	229.5
2964.11	227
2964.96	218
2965.8	213.5
2966.64	216
2967.48	221
2968.32	216
2969.16	215.5
2970.01	217
2970.85	214.5
2971.69	210
2972.53	211
2973.37	218
2974.21	216
2975.05	212
2975.89	207
2976.73	225
2977.57	205.5
2978.41	200.5
2979.25	215
2980.09	213.5
2980.93	212.5
2981.77	191.5
2982.61	208
2983.45	207.5
2984.29	206.5
2985.13	192.5
2985.97	212.5
2986.81	199
2987.65	196.5
2988.49	203.5
2989.32	194.5
2990.16	207.5
2991	199
2991.84	198
2992.68	200.5
2993.51	206
2994.35	195
2995.19	200
2996.03	200.5
2996.86	187
2997.7	179.5
2998.54	198
2999.38	196
