#Acq. time (s)=	5
#Accumulations=	5
#Range (cm-¹)=	100...3000
#Windows=	3
#Autofocus=	Off
#AutoExposure=	Off
#Spike filter=	Multiple accum.
#Delay time (s)=	0
#Binning=	1
#Readout mode=	Signal
#DeNoise=	Off
#ICS correction=	Off
#Dark correction=	Off
#Inst. Process=	Off
#Instrument=	LabRAM HR Evol
#Detector=	Syncerity OE
#Objective=	x100_VIS_LWD
#Grating=	600 (500nm)
#ND Filter=	100%
#Laser=	633nm_Edge
#Hole=	100.021
#Range=	Visible
#Project=	Omar
#Sample=	chi
#Site=	f
#Title=	nsno
#Remark=	
#Date=	12.09.2023 17:20
#Acquired=	12.09.2023 17:20:18
101.026	3219
102.309	3144
103.592	3164.5
104.875	3132
106.158	3112
107.441	3067
108.723	3031.5
110.005	2989
111.289	2945.5
112.571	2955.5
113.852	2976
115.134	2959.5
116.415	2934.5
117.696	2889
118.976	2885
120.257	2860.5
121.537	2802.5
122.817	2813.5
124.097	2810
125.377	2791.5
126.656	2769
127.936	2792
129.215	2765.5
130.493	2744
131.772	2736.5
133.049	2708.5
134.327	2708
135.605	2640.5
136.883	2663
138.161	2612.5
139.438	2637.5
140.715	2616.5
141.992	2615
143.269	2561.5
144.545	2523
145.82	2526.5
147.096	2508.5
148.372	2503
149.648	2466
150.924	2406.5
152.199	2443.5
153.472	2405.5
154.747	2394
156.022	2368.5
157.296	2388
158.571	2373
159.843	2327
161.117	2317.5
162.391	2307
163.664	2297
164.937	2280.5
166.209	2315
167.482	2261.5
168.754	2258
170.025	2267
171.297	2275.5
172.569	2244.5
173.841	2262
175.111	2230.5
176.383	2248.5
177.654	2196
178.923	2192.5
180.194	2223
181.464	2222.5
182.733	2196.5
184.003	2223.5
185.273	2177.5
186.542	2224
187.811	2213.5
189.079	2202.5
190.348	2168
191.617	2221
192.884	2182.5
194.152	2181.5
195.419	2186.5
196.687	2208
197.955	2185
199.221	2204.5
200.489	2215
201.755	2221
203.022	2234
204.287	2205.5
205.554	2230.5
206.818	2225
208.085	2242.5
209.349	2270.5
210.615	2224.5
211.879	2204.5
213.144	2230
214.408	2243
215.673	2242
216.936	2225
218.201	2222.5
219.464	2261
220.728	2260.5
221.99	2249
223.253	2297
224.516	2232
225.778	2255
227.041	2264.5
228.303	2239
229.564	2308.5
230.826	2281
232.087	2303.5
233.348	2271
234.61	2297
235.87	2271
237.13	2295
238.391	2303.5
239.651	2299.5
240.91	2294.5
242.171	2287
243.43	2293.5
244.689	2284
245.949	2333
247.207	2335
248.465	2334
249.723	2348.5
250.983	2331
252.24	2348.5
253.498	2334
254.755	2339
256.013	2324
257.27	2333.5
258.526	2324.5
259.783	2349
261.039	2305.5
262.296	2319
263.552	2318
264.808	2310
266.063	2339.5
267.318	2311.5
268.573	2319
269.828	2302.5
271.084	2314.5
272.338	2317
273.592	2318.5
274.846	2347.5
276.1	2304.5
277.353	2362.5
278.607	2306.5
279.86	2327.5
281.113	2343.5
282.365	2351.5
283.619	2337.5
284.872	2346.5
286.124	2378.5
287.376	2393
288.627	2355.5
289.879	2365.5
291.13	2357.5
292.381	2382
293.632	2347.5
294.883	2402.5
296.133	2385
297.384	2390.5
298.634	2383.5
299.883	2427
301.133	2449.5
302.381	2413
303.63	2414
304.879	2413
306.128	2426
307.377	2398
308.625	2398
309.874	2424.5
311.122	2419.5
312.37	2389.5
313.617	2385.5
314.863	2368
316.111	2390
317.358	2359.5
318.604	2355.5
319.851	2380
321.098	2351
322.342	2349.5
323.588	2354.5
324.834	2334.5
326.08	2358.5
327.325	2352.5
328.569	2320.5
329.814	2323
331.059	2313.5
332.304	2317.5
333.548	2309
334.791	2313.5
336.035	2297
337.279	2294
338.521	2297
339.765	2309
341.008	2295.5
342.251	2297
343.492	2310
344.735	2283
345.977	2314
347.218	2295.5
348.46	2300
349.702	2287
350.942	2324.5
352.184	2300.5
353.425	2323
354.665	2300.5
355.905	2337.5
357.145	2294.5
358.385	2322
359.625	2325.5
360.864	2347.5
362.104	2318
363.342	2309.5
364.581	2296.5
365.819	2335
367.058	2320
368.296	2297.5
369.534	2345.5
370.771	2309.5
372.01	2298
373.246	2311.5
374.484	2295
375.72	2304.5
376.958	2290.5
378.194	2278.5
379.431	2289.5
380.666	2324.5
381.903	2310
383.138	2265.5
384.374	2252
385.609	2271.5
386.845	2289
388.079	2275.5
389.313	2279
390.548	2281.5
391.782	2272.5
393.016	2286
394.25	2305
395.483	2274
396.718	2285.5
397.95	2269
399.183	2267
400.416	2288.5
401.648	2265
402.88	2255.5
404.113	2309.5
405.345	2298
406.576	2334.5
407.807	2317
409.04	2319
410.27	2301.5
411.501	2304
412.731	2317.5
413.963	2341
415.193	2295
416.422	2323.5
417.652	2344
418.883	2329
420.112	2336.5
421.341	2368.5
422.569	2358
423.798	2379
425.028	2359.5
426.256	2367.5
427.484	2354
428.711	2367.5
429.939	2374
431.166	2374
432.394	2408
433.622	2371.5
434.849	2401.5
436.075	2390
437.302	2382.5
438.528	2412.5
439.754	2413
440.98	2380.5
442.205	2378
443.431	2386.5
444.656	2362.5
445.881	2374
447.106	2389.5
448.33	2365.5
449.555	2395.5
450.779	2356
452.003	2359.5
453.227	2363.5
454.45	2408
455.674	2395
456.897	2394.5
458.12	2389.5
459.343	2395.5
460.566	2393.5
461.788	2366.5
463.01	2403
464.232	2370
465.454	2400.5
466.676	2353.5
467.897	2406
469.119	2393.5
470.34	2421
471.559	2367.5
472.78	2376.5
474.001	2391
475.221	2374.5
476.441	2412.5
477.661	2380.5
478.879	2379
480.099	2419
481.318	2440
482.537	2386
483.756	2401
484.974	2400.5
486.192	2399
487.411	2373.5
488.629	2443.5
489.847	2411.5
491.063	2414
492.281	2415.5
493.498	2432.5
494.714	2430.5
495.931	2407
497.148	2426
498.365	2442.5
499.58	2447.5
500.796	2430
502.012	2471
503.226	2453
504.442	2442
505.657	2422
506.871	2479
508.086	2411.5
509.3	2431
510.515	2433
511.729	2420.5
512.942	2459
514.156	2455
515.369	2438.5
516.582	2478
517.796	2461
519.008	2461
520.221	2469.5
521.433	2428
522.645	2446
523.857	2448.5
525.069	2403.5
526.28	2427.5
527.492	2454
528.702	2425
529.914	2433
531.124	2385
532.335	2441
533.545	2434.5
534.756	2427.5
535.965	2413.5
537.175	2410.5
538.384	2405
539.593	2415.5
540.803	2429.5
542.011	2406
543.221	2424
544.429	2444.5
545.636	2385.5
546.845	2396
548.052	2437.5
549.261	2417
550.468	2415.5
551.675	2442
552.883	2417
554.089	2447.5
555.295	2451.5
556.503	2431
557.709	2439.5
558.914	2421.5
560.12	2390
561.326	2437
562.531	2451.5
563.736	2467
564.941	2451
566.147	2449
567.351	2451.5
568.555	2443
569.759	2459.5
570.964	2453.5
572.168	2475.5
573.371	2417
574.574	2467.5
575.777	2437.5
576.981	2433
578.184	2461
579.386	2455
580.588	2465.5
581.79	2443
582.992	2439
584.194	2415.5
585.395	2459
586.598	2451.5
587.799	2427
589	2434.5
590.201	2468.5
591.401	2468.5
592.601	2456
593.801	2435.5
595.001	2422.5
596.201	2497
597.401	2476.5
598.6	2466.5
599.799	2445
600.998	2482.5
602.197	2474.5
603.395	2483.5
604.594	2492.5
605.792	2423
606.99	2489
608.188	2481.5
609.386	2509
610.583	2499
611.78	2481.5
612.977	2506
614.174	2485
615.371	2536.5
616.566	2502.5
617.762	2477
618.958	2529
620.154	2510
621.35	2518
622.546	2493.5
623.741	2516
624.935	2518.5
626.13	2503.5
627.325	2538.5
628.519	2512.5
629.714	2542
630.908	2554
632.101	2558.5
633.295	2547
634.488	2530.5
635.682	2533.5
636.874	2564
638.067	2555
639.26	2576
640.453	2599
641.644	2582.5
642.836	2563
644.028	2570
645.219	2553
646.411	2583
647.602	2569.5
648.792	2566.5
649.984	2548
651.175	2578.5
652.364	2584
653.555	2565
654.745	2565.5
655.934	2587
657.124	2521
658.314	2559.5
659.503	2518
660.692	2544
661.88	2551
663.07	2578
664.257	2548.5
665.446	2561
666.635	2541
667.822	2524.5
669.01	2524
670.197	2514
671.384	2565
672.571	2559.5
673.758	2554.5
674.944	2525
676.131	2523.5
677.317	2524
678.502	2527
679.689	2515.5
680.874	2541.5
682.06	2524.5
683.245	2549
684.431	2534
685.615	2555.5
686.799	2493
687.984	2526
689.168	2527
690.353	2512.5
691.536	2524
692.719	2498
693.904	2482.5
695.086	2491.5
696.269	2520.5
697.453	2509.5
698.635	2487
699.817	2541
701	2500
702.182	2500.5
703.364	2503
704.545	2508.5
705.727	2552.5
706.908	2535
708.089	2524
709.27	2505
710.451	2559.5
711.632	2514.5
712.812	2515.5
713.991	2562
715.172	2545
716.352	2513
717.531	2535.5
718.71	2575.5
719.889	2555.5
721.068	2477
722.248	2541
723.426	2522.5
724.604	2529.5
725.782	2542.5
726.96	2554
728.138	2556.5
729.315	2557
730.492	2567.5
731.669	2581
732.846	2543
734.024	2564
735.201	2543
736.377	2513
737.553	2569
738.729	2545.5
739.905	2525
741.081	2530
742.256	2537
743.431	2538.5
744.606	2539.5
745.781	2550
746.956	2553.5
748.13	2545.5
749.303	2505
750.477	2535.5
751.651	2520.5
752.825	2495.5
753.999	2506
755.172	2475
756.345	2512
757.518	2495.5
758.691	2494
759.864	2511
761.035	2506
762.207	2519.5
763.379	2509
764.551	2526
765.723	2523.5
766.894	2502
768.064	2507
769.236	2510
770.407	2493.5
771.577	2530
772.748	2515
773.917	2519
775.088	2517
776.258	2523
777.427	2539.5
778.596	2487
779.765	2529
780.935	2546.5
782.104	2545.5
783.272	2555
784.44	2520
785.609	2518
786.776	2508
787.944	2533.5
789.113	2525.5
790.279	2510
791.447	2523
792.613	2502
793.78	2553
794.948	2521
796.113	2544.5
797.28	2509
798.445	2496
799.612	2500
800.778	2533.5
801.943	2510
803.109	2514.5
804.273	2535
805.439	2515.5
806.603	2481.5
807.768	2511.5
808.932	2567
810.096	2530.5
811.26	2548.5
812.424	2552
813.587	2557
814.751	2565
815.914	2539
817.078	2540.5
818.24	2580.5
819.402	2544
820.565	2555.5
821.727	2558.5
822.889	2546
824.051	2605
825.212	2544.5
826.374	2556
827.535	2558.5
828.697	2558
829.857	2567.5
831.018	2585
832.179	2593.5
833.339	2597
834.499	2575.5
835.659	2582
836.819	2597
837.978	2564
839.137	2562
840.297	2579
841.456	2573
842.614	2585
843.772	2588
844.932	2613.5
846.09	2598.5
847.247	2578.5
848.405	2589.5
849.562	2575.5
850.721	2600.5
851.878	2612
853.034	2592.5
854.191	2625
855.348	2615
856.504	2610
857.661	2601
858.817	2613.5
859.973	2634.5
861.129	2611
862.284	2616.5
863.439	2610
864.594	2578.5
865.749	2596.5
866.904	2594.5
868.058	2582
869.212	2556
870.367	2569.5
871.522	2586.5
872.676	2584
873.829	2561
874.983	2549.5
876.136	2514.5
877.289	2577
878.442	2561.5
879.593	2555
880.746	2570.5
881.898	2533.5
883.05	2523
884.202	2526
885.354	2521
886.506	2524
887.657	2505
888.808	2510
889.96	2498
891.11	2501
892.261	2462.5
893.41	2476.5
894.561	2490.5
895.711	2504.5
896.861	2499.5
898.011	2465.5
899.161	2484
900.309	2487
901.458	2482
902.607	2496
903.756	2500.5
904.904	2476
906.052	2461.5
907.201	2477.5
908.349	2442.5
909.496	2469
910.644	2478.5
911.791	2449
912.939	2445.5
914.085	2422.5
915.232	2475.5
916.379	2485
917.525	2441.5
918.671	2475
919.818	2475.5
920.963	2462
922.109	2482.5
923.255	2487.5
924.399	2433
925.545	2491.5
926.689	2463.5
927.834	2493.5
928.979	2490
930.123	2465
931.268	2461.5
932.411	2481
933.555	2473
934.698	2507.5
935.842	2504
936.985	2515
938.128	2486
939.271	2504
940.414	2483
941.556	2474.5
942.699	2487
943.84	2500.5
944.983	2440.5
946.124	2471
947.266	2514.5
948.407	2467
949.547	2489.5
950.689	2463
951.829	2519
952.971	2433
954.111	2460.5
955.25	2482
956.391	2525
957.531	2526
958.67	2474
959.81	2491
960.949	2481
962.088	2495.5
963.227	2502
964.366	2507.5
965.504	2552.5
966.643	2530.5
967.781	2514.5
968.919	2497.5
970.056	2491
971.195	2497.75
972.332	2504.5
973.469	2559
974.605	2544
975.743	2517.5
976.88	2500.5
978.016	2480.5
979.152	2525.5
980.288	2492.5
981.423	2456.5
982.56	2486.5
983.696	2502
984.831	2504.5
985.966	2491
987.101	2467
988.235	2504
989.37	2481.5
990.504	2473.5
991.638	2447
992.773	2462.5
993.907	2482.5
995.041	2496
996.174	2503.5
997.307	2521
998.44	2549.5
999.573	2545
1000.71	2572.5
1001.84	2548
1002.97	2489.5
1004.1	2483.5
1005.24	2485
1006.37	2484.5
1007.5	2459.5
1008.63	2475.5
1009.76	2465.5
1010.89	2443
1012.02	2448.5
1013.15	2461
1014.28	2478.5
1015.41	2432
1016.54	2493.5
1017.67	2480
1018.8	2432.5
1019.93	2426.5
1021.06	2473.5
1022.19	2466.5
1023.32	2457
1024.45	2464
1025.58	2454.5
1026.71	2436.5
1027.84	2464
1028.96	2473.5
1030.09	2455
1031.22	2500
1032.35	2493
1033.47	2476.5
1034.6	2455.5
1035.73	2471.5
1036.86	2479
1037.98	2491
1039.11	2465
1040.23	2469
1041.36	2471.5
1042.49	2494
1043.61	2477
1044.74	2471.5
1045.86	2477.5
1046.99	2481
1048.11	2440
1049.24	2486
1050.36	2482.5
1051.49	2501.5
1052.61	2470.5
1053.74	2490.5
1054.86	2464.5
1055.98	2469
1057.11	2475.5
1058.23	2439
1059.35	2443.5
1060.48	2452
1061.6	2450
1062.72	2468
1063.84	2497
1064.97	2446.5
1066.09	2511.5
1067.21	2492.5
1068.33	2485.5
1069.45	2454
1070.57	2446
1071.7	2443.5
1072.82	2487
1073.94	2499.5
1075.06	2491.5
1076.18	2495
1077.3	2479
1078.42	2464.5
1079.54	2470.5
1080.66	2466.5
1081.78	2448
1082.9	2458.5
1084.02	2470.5
1085.14	2462.5
1086.25	2460.5
1087.37	2467
1088.49	2454
1089.61	2457.5
1090.73	2440
1091.84	2457.5
1092.96	2470.5
1094.08	2426.5
1095.2	2436.5
1096.31	2449.5
1097.43	2467.5
1098.55	2475.5
1099.66	2435.5
1100.78	2439.5
1101.9	2438
1103.01	2434.5
1104.13	2409.5
1105.25	2443
1106.36	2435
1107.48	2436.5
1108.59	2433
1109.71	2393
1110.82	2414.5
1111.93	2436
1113.05	2431
1114.16	2421.5
1115.28	2405
1116.39	2443.5
1117.51	2420.5
1118.62	2418
1119.73	2435.5
1120.85	2416.5
1121.96	2415
1123.07	2427
1124.18	2411.5
1125.3	2423
1126.41	2425
1127.52	2461.5
1128.63	2446
1129.74	2422
1130.85	2409.5
1131.97	2386
1133.08	2419.5
1134.19	2400.5
1135.3	2417.5
1136.41	2453.5
1137.52	2432.5
1138.63	2456.5
1139.74	2424
1140.85	2441
1141.96	2434
1143.07	2438.5
1144.18	2433.5
1145.29	2442.5
1146.4	2451
1147.51	2469.5
1148.61	2512.5
1149.72	2451.5
1150.83	2447.5
1151.94	2482.5
1153.05	2477
1154.15	2492.5
1155.26	2478
1156.37	2496
1157.48	2505.5
1158.58	2497.5
1159.69	2492.5
1160.8	2529.5
1161.9	2519
1163.01	2547
1164.11	2531.5
1165.22	2545
1166.33	2529
1167.43	2532
1168.54	2520
1169.64	2536
1170.75	2549
1171.85	2588
1172.96	2532
1174.06	2521.5
1175.17	2527.5
1176.27	2494.5
1177.37	2522.5
1178.48	2536.5
1179.58	2502.5
1180.68	2516.5
1181.79	2490.5
1182.89	2487.5
1183.99	2495.5
1185.1	2469.5
1186.2	2473
1187.3	2464
1188.4	2511.5
1189.5	2464
1190.61	2484
1191.71	2448
1192.81	2497
1193.91	2489
1195.01	2456.5
1196.11	2490.76
1197.21	2470.64
1198.31	2454.36
1199.42	2450.05
1200.51	2477.22
1201.61	2473.1
1202.72	2458.29
1203.81	2461.94
1204.91	2450.23
1206.01	2432.08
1207.11	2451.59
1208.21	2424.49
1209.31	2430.96
1210.41	2470.35
1211.51	2434.28
1212.61	2397.7
1213.7	2411.69
1214.8	2429.1
1215.9	2428.33
1217	2438.24
1218.09	2432.52
1219.19	2433.34
1220.29	2416.38
1221.38	2413.46
1222.48	2429.5
1223.58	2395.87
1224.67	2417.16
1225.77	2409.61
1226.87	2411.29
1227.96	2398.69
1229.06	2426.68
1230.15	2443.05
1231.25	2426.63
1232.34	2425.14
1233.44	2425.91
1234.53	2435.2
1235.63	2425.3
1236.72	2414.5
1237.81	2442.94
1238.91	2429.07
1240	2447.32
1241.1	2455.81
1242.19	2426.09
1243.28	2452.87
1244.38	2440.44
1245.47	2443.28
1246.56	2436.25
1247.65	2451.81
1248.75	2445.68
1249.84	2449.83
1250.93	2462.26
1252.02	2451.85
1253.11	2472.46
1254.21	2456.88
1255.3	2455.31
1256.39	2460.03
1257.48	2457.84
1258.57	2459.71
1259.66	2456.39
1260.75	2445.16
1261.84	2451.75
1262.93	2467.81
1264.02	2466.28
1265.11	2463.65
1266.2	2466.39
1267.29	2466.63
1268.38	2464.76
1269.47	2460.94
1270.56	2471.1
1271.65	2471.6
1272.73	2475.95
1273.82	2498.62
1274.91	2491.7
1276	2501.48
1277.09	2496.92
1278.17	2489.82
1279.26	2502.75
1280.35	2510.32
1281.43	2491.35
1282.52	2507.5
1283.61	2514.39
1284.69	2501.48
1285.78	2485.48
1286.87	2467.57
1287.95	2483.1
1289.04	2479.12
1290.13	2468.32
1291.21	2513.51
1292.3	2500.3
1293.38	2488.73
1294.47	2471.72
1295.55	2468.16
1296.64	2499.34
1297.72	2492.22
1298.8	2492.52
1299.89	2481.7
1300.97	2483.09
1302.06	2477.48
1303.14	2461.37
1304.22	2458.79
1305.31	2468.1
1306.39	2476.4
1307.34	2482.5
1308.43	2467.5
1309.52	2440
1310.6	2448.5
1311.69	2472
1312.78	2429
1313.87	2444.5
1314.96	2460
1316.04	2479
1317.13	2437
1318.21	2459.5
1319.3	2457
1320.39	2441.5
1321.47	2430.5
1322.56	2420
1323.65	2408
1324.73	2442.5
1325.82	2386
1326.9	2436
1327.99	2412
1329.07	2422
1330.16	2376
1331.24	2425
1332.32	2402.5
1333.41	2411.5
1334.49	2380.5
1335.58	2373
1336.66	2423.5
1337.74	2393
1338.83	2410
1339.91	2375.5
1340.99	2373
1342.08	2348
1343.16	2395
1344.24	2377
1345.32	2387.5
1346.41	2395
1347.49	2388
1348.57	2380
1349.65	2359.5
1350.73	2360.5
1351.81	2338
1352.9	2366
1353.98	2341.5
1355.06	2341
1356.14	2368
1357.22	2357
1358.3	2369
1359.38	2334.5
1360.46	2300
1361.54	2322
1362.62	2341.5
1363.7	2330
1364.78	2320.5
1365.85	2318
1366.93	2331
1368.01	2325.5
1369.09	2326.5
1370.17	2328
1371.25	2302.5
1372.33	2330
1373.4	2323
1374.48	2306
1375.56	2346.5
1376.64	2276
1377.71	2328.5
1378.79	2324.5
1379.87	2289.5
1380.94	2310.5
1382.02	2309.5
1383.1	2306.5
1384.17	2320
1385.25	2304.5
1386.32	2264.5
1387.4	2292
1388.47	2310
1389.55	2299.5
1390.63	2270.5
1391.7	2278
1392.77	2272
1393.85	2276
1394.92	2260.5
1396	2274
1397.07	2311
1398.15	2307.5
1399.22	2275.5
1400.29	2238.5
1401.37	2292
1402.44	2271.5
1403.51	2285.5
1404.59	2287
1405.66	2309.5
1406.73	2251.5
1407.8	2274.5
1408.87	2273.5
1409.95	2281
1411.02	2283
1412.09	2283.5
1413.16	2273.5
1414.23	2261
1415.3	2274
1416.38	2282
1417.45	2279
1418.52	2263
1419.59	2307.5
1420.66	2259.5
1421.73	2293.5
1422.8	2261
1423.87	2275
1424.94	2270.5
1426.01	2308
1427.08	2276
1428.15	2273
1429.21	2274.5
1430.28	2301
1431.35	2284
1432.42	2303
1433.49	2304
1434.56	2305.5
1435.63	2316.5
1436.69	2312.5
1437.76	2309
1438.83	2317
1439.89	2320
1440.96	2317.5
1442.03	2309.5
1443.1	2346.5
1444.16	2338
1445.23	2305
1446.3	2344.5
1447.36	2306
1448.43	2300
1449.49	2317
1450.56	2316.5
1451.62	2280
1452.69	2304.5
1453.75	2305
1454.82	2288.5
1455.88	2272.5
1456.95	2277
1458.01	2231
1459.08	2299
1460.14	2290
1461.2	2274.5
1462.27	2254
1463.33	2286.5
1464.4	2308
1465.46	2294
1466.52	2315.5
1467.58	2268
1468.65	2300.5
1469.71	2312.5
1470.77	2281.5
1471.83	2300
1472.9	2275
1473.96	2273.5
1475.02	2257
1476.08	2287
1477.14	2273.5
1478.2	2288.5
1479.27	2282.5
1480.33	2293
1481.39	2281
1482.45	2284.5
1483.51	2280.5
1484.57	2286.5
1485.63	2332.5
1486.69	2303
1487.75	2277
1488.81	2291.5
1489.87	2289
1490.93	2287
1491.99	2286
1493.04	2291
1494.1	2313.5
1495.16	2313
1496.22	2312.5
1497.28	2301
1498.34	2315.5
1499.39	2318
1500.45	2286.5
1501.51	2309.5
1502.57	2293
1503.62	2311.5
1504.68	2341
1505.74	2308
1506.79	2295
1507.85	2315.5
1508.91	2296
1509.96	2282
1511.02	2270.5
1512.07	2296.5
1513.13	2305.5
1514.19	2302.5
1515.24	2311.5
1516.3	2310
1517.35	2291
1518.41	2283.5
1519.46	2273.5
1520.52	2321.5
1521.57	2306
1522.62	2297
1523.68	2275.5
1524.73	2274.5
1525.79	2279
1526.84	2319.5
1527.89	2270
1528.95	2264
1530	2279.5
1531.05	2272
1532.1	2292
1533.16	2286.5
1534.21	2270.5
1535.26	2272
1536.31	2308
1537.37	2270
1538.42	2295
1539.47	2269
1540.52	2280
1541.57	2249
1542.62	2244.5
1543.67	2273
1544.72	2285
1545.78	2263
1546.83	2260.5
1547.88	2263
1548.93	2264
1549.98	2280
1551.03	2252.5
1552.07	2252
1553.12	2267
1554.17	2256.5
1555.22	2270
1556.27	2246.5
1557.32	2207.5
1558.37	2210
1559.42	2254
1560.47	2241
1561.51	2230
1562.56	2255.5
1563.61	2290
1564.66	2254
1565.7	2237
1566.75	2225.5
1567.8	2240
1568.85	2252
1569.89	2252
1570.94	2236.5
1571.98	2226
1573.03	2227
1574.08	2230
1575.12	2217.5
1576.17	2199
1577.21	2238
1578.26	2224
1579.31	2208
1580.35	2246.5
1581.4	2251.5
1582.44	2264.5
1583.49	2193
1584.53	2227.5
1585.57	2241
1586.62	2265.5
1587.66	2232.5
1588.71	2227.5
1589.75	2264
1590.79	2252
1591.84	2286
1592.88	2249
1593.92	2279
1594.97	2283.5
1596.01	2276.5
1597.05	2287.5
1598.09	2239
1599.14	2259
1600.18	2264
1601.22	2217
1602.26	2235
1603.3	2222
1604.34	2211
1605.38	2179
1606.43	2178.5
1607.47	2164
1608.51	2154
1609.55	2120
1610.59	2116
1611.63	2068.5
1612.67	2094
1613.71	2047
1614.75	2044
1615.79	2026.5
1616.83	2033.5
1617.87	2014.5
1618.91	2006
1619.94	1998
1620.98	1960
1622.02	1957
1623.06	1957.5
1624.1	1954.5
1625.14	1946
1626.17	1921
1627.21	1910.5
1628.25	1920.5
1629.29	1912
1630.32	1893.5
1631.36	1873.5
1632.4	1868
1633.43	1857.5
1634.47	1810.5
1635.51	1829.5
1636.54	1833
1637.58	1805
1638.62	1809
1639.65	1796.5
1640.69	1738.5
1641.72	1767.5
1642.76	1778
1643.79	1748.5
1644.83	1743.5
1645.86	1727
1646.9	1704.5
1647.93	1733
1648.97	1698.5
1650	1701
1651.04	1723.5
1652.07	1693
1653.1	1687
1654.14	1667
1655.17	1659.5
1656.2	1678
1657.24	1661.5
1658.27	1632.5
1659.3	1648.5
1660.34	1633
1661.37	1645.5
1662.4	1635
1663.43	1643
1664.46	1617
1665.5	1619
1666.53	1583
1667.56	1614
1668.59	1598.5
1669.62	1587.5
1670.65	1584.5
1671.68	1589.5
1672.71	1589.5
1673.74	1568
1674.77	1549.5
1675.8	1586.5
1676.83	1540.5
1677.86	1550.5
1678.89	1548
1679.92	1540
1680.95	1536.5
1681.98	1527
1683.01	1532.5
1684.04	1511
1685.07	1524.5
1686.1	1508
1687.13	1488
1688.15	1528
1689.18	1509
1690.21	1507.5
1691.24	1500
1692.27	1478
1693.29	1477
1694.32	1457
1695.35	1476.5
1696.37	1486.5
1697.4	1460.5
1698.43	1496.5
1699.45	1497.5
1700.48	1452
1701.51	1461
1702.53	1475.5
1703.56	1466.5
1704.58	1455
1705.61	1438
1706.64	1449
1707.66	1463.5
1708.69	1447.5
1709.71	1448
1710.73	1426.5
1711.76	1436
1712.78	1426.5
1713.81	1447
1714.83	1445.5
1715.86	1417.5
1716.88	1425.5
1717.9	1415.5
1718.93	1417.5
1719.95	1393
1720.97	1428
1722	1401
1723.02	1413.5
1724.04	1411.5
1725.06	1380.5
1726.09	1411.5
1727.11	1392
1728.13	1393
1729.15	1403.5
1730.17	1368
1731.2	1375
1732.22	1393
1733.24	1373.5
1734.26	1388
1735.28	1364.5
1736.3	1385
1737.32	1370
1738.34	1376
1739.36	1386.5
1740.38	1372.5
1741.4	1350.5
1742.42	1366.5
1743.44	1360
1744.46	1371
1745.48	1369.5
1746.5	1333.5
1747.52	1367
1748.54	1332.5
1749.56	1359
1750.57	1316
1751.59	1328
1752.61	1357.5
1753.63	1332.5
1754.65	1325
1755.66	1318
1756.68	1348
1757.7	1336
1758.72	1309.5
1759.73	1314
1760.75	1291.5
1761.77	1306
1762.78	1316.5
1763.8	1307.5
1764.82	1292
1765.83	1299.5
1766.85	1302.5
1767.86	1269
1768.88	1275
1769.9	1312
1770.91	1285.5
1771.93	1275.5
1772.94	1284.5
1773.96	1259.5
1774.97	1292
1775.99	1269
1777	1284.5
1778.01	1273
1779.03	1271.5
1780.04	1266.5
1781.06	1279.5
1782.07	1251
1783.08	1249
1784.1	1248.5
1785.11	1266
1786.12	1266
1787.14	1254
1788.15	1239.5
1789.16	1263
1790.17	1269.5
1791.18	1245
1792.2	1240.5
1793.21	1232
1794.22	1232
1795.23	1232.5
1796.24	1221.5
1797.26	1224.5
1798.27	1224.5
1799.28	1241.5
1800.29	1245
1801.3	1216.5
1802.31	1204
1803.32	1206
1804.33	1235
1805.34	1214.5
1806.35	1213
1807.36	1201.5
1808.37	1221
1809.38	1204.5
1810.39	1210.5
1811.4	1200.5
1812.4	1198
1813.41	1222.5
1814.42	1225.5
1815.43	1196.5
1816.44	1207.5
1817.45	1204.5
1818.45	1203
1819.46	1189
1820.47	1195.5
1821.48	1181.5
1822.49	1200.5
1823.49	1193
1824.5	1188
1825.51	1189.5
1826.51	1153
1827.52	1186
1828.53	1182
1829.53	1175.5
1830.54	1182
1831.54	1154
1832.55	1158.5
1833.56	1177.5
1834.56	1162
1835.57	1171
1836.57	1171
1837.58	1156
1838.58	1163.5
1839.59	1141
1840.59	1158
1841.59	1133
1842.6	1143
1843.6	1170
1844.61	1132.5
1845.61	1122
1846.61	1122.5
1847.62	1131
1848.62	1135.5
1849.62	1148
1850.63	1138
1851.63	1133.5
1852.63	1141.5
1853.64	1127
1854.64	1121
1855.64	1152
1856.64	1127.5
1857.64	1137.5
1858.65	1115
1859.65	1144.5
1860.65	1113.5
1861.65	1119
1862.65	1106.5
1863.65	1128.5
1864.65	1109
1865.65	1101
1866.65	1074.5
1867.65	1084
1868.65	1109.5
1869.65	1105
1870.65	1102
1871.65	1094
1872.65	1097
1873.65	1087
1874.65	1068
1875.65	1084.5
1876.65	1099.5
1877.65	1083
1878.65	1087
1879.65	1056.5
1880.65	1076.5
1881.64	1073
1882.64	1060.5
1883.64	1078
1884.64	1093.5
1885.63	1065
1886.63	1070
1887.63	1082.5
1888.63	1086.5
1889.62	1070.5
1890.62	1074
1891.62	1079
1892.61	1045
1893.61	1066.5
1894.61	1055.5
1895.6	1049.5
1896.6	1030
1897.59	1051
1898.59	1046
1899.58	1053.5
1900.58	1061.5
1901.57	1057
1902.57	1049
1903.56	1055
1904.56	1040
1905.55	1065.5
1906.55	1030.5
1907.54	1051.5
1908.54	1071.5
1909.53	1053.5
1910.52	1054
1911.52	1029.5
1912.51	1062
1913.5	1045.5
1914.5	1040.5
1915.49	1041.5
1916.48	1022.5
1917.48	1023.5
1918.47	1047.5
1919.46	1038
1920.45	1037
1921.44	1032
1922.44	1020
1923.43	1066.5
1924.42	1022
1925.41	1024.5
1926.4	1037.5
1927.39	1036.5
1928.38	1026
1929.38	1021.5
1930.37	1028
1931.36	1012
1932.35	1022.5
1933.34	1012
1934.33	1020
1935.32	1009.5
1936.31	1020
1937.3	994.5
1938.29	1012.5
1939.28	1000.5
1940.26	1011
1941.25	996
1942.24	1001
1943.23	1000.5
1944.22	1009.5
1945.21	1006
1946.2	1012.5
1947.18	1015.5
1948.17	986
1949.16	993.5
1950.15	1000
1951.13	998.5
1952.12	997
1953.11	995.5
1954.1	992
1955.08	982.5
1956.07	1000
1957.06	986
1958.04	975
1959.03	988.5
1960.01	983.5
1961	991.5
1961.99	1000.5
1962.97	972
1963.96	979.5
1964.94	972.5
1965.93	956.5
1966.91	959
1967.9	976.5
1968.88	982
1969.87	961
1970.85	971.5
1971.84	960.5
1972.82	962.5
1973.81	960
1974.79	945.5
1975.77	963.5
1976.76	967
1977.74	969.5
1978.72	949
1979.71	957
1980.69	960
1981.67	944.5
1982.65	957.5
1983.64	951
1984.62	942.5
1985.6	957.5
1986.58	963.5
1987.56	950.5
1988.55	943.5
1989.53	945
1990.51	946.5
1991.49	946
1992.47	947.5
1993.45	932
1994.43	944.5
1995.41	947.5
1996.39	939
1997.37	910.5
1998.36	930
1999.34	946
2000.31	923
2001.29	936
2002.27	943.5
2003.25	908
2004.23	944
2005.21	936
2006.19	923
2007.17	939
2008.15	935.5
2009.13	926.5
2010.11	901.5
2011.08	921
2012.06	909.5
2013.04	923
2014.02	922
2015	933
2015.97	926.5
2016.95	911
2017.93	917.5
2018.91	925.5
2019.88	901
2020.86	910
2021.83	911.5
2022.81	911
2023.79	911.5
2024.76	900
2025.74	917
2026.72	883
2027.69	892.5
2028.67	890
2029.64	894.5
2030.62	901
2031.59	893.5
2032.57	893.5
2033.54	904
2034.52	878
2035.49	901
2036.47	912
2037.44	901.5
2038.41	900.5
2039.39	881
2040.36	895
2041.34	895
2042.31	889
2043.28	866.5
2044.26	887.5
2045.23	899
2046.2	890.5
2047.17	875.5
2048.15	896
2049.12	883
2050.09	878.5
2051.06	867
2052.04	875
2053.01	873
2053.98	879
2054.95	861
2055.92	868.5
2056.89	873.5
2057.86	853.5
2058.84	874.5
2059.81	872
2060.78	870
2061.75	864
2062.72	872
2063.69	855.5
2064.66	853
2065.63	874
2066.6	862.5
2067.57	872.5
2068.54	857
2069.51	841.5
2070.48	863
2071.44	833.5
2072.41	864
2073.38	856.5
2074.35	839.5
2075.32	844
2076.29	853
2077.26	850
2078.22	854
2079.19	869.5
2080.16	844
2081.13	856
2082.09	853
2083.06	838.5
2084.03	857
2085	834
2085.96	860
2086.93	832
2087.9	859
2088.86	826
2089.83	827
2090.79	845.5
2091.76	842
2092.73	830.5
2093.69	826.5
2094.66	823.5
2095.62	842.5
2096.59	837.5
2097.55	849.5
2098.52	845
2099.48	827
2100.45	830.5
2101.41	827.5
2102.38	837.5
2103.34	826.5
2104.3	841.5
2105.27	842.5
2106.23	849
2107.19	830.5
2108.16	831.5
2109.12	847
2110.08	868.5
2111.05	859.5
2112.01	869
2112.97	868.5
2113.94	880.5
2114.9	862.5
2115.86	874
2116.82	873.5
2117.78	876.5
2118.75	895.5
2119.71	880.5
2120.67	919.5
2121.63	916.5
2122.59	902.5
2123.55	906.5
2124.51	917.5
2125.47	932
2126.43	945.5
2127.4	930
2128.36	930.5
2129.32	945.5
2130.28	942
2131.24	937.5
2132.2	941
2133.16	936.5
2134.11	939.5
2135.07	942
2136.03	918
2136.99	915.5
2137.95	926.5
2138.91	933
2139.87	919
2140.83	914.5
2141.78	902.5
2142.74	895.5
2143.7	910
2144.66	893.5
2145.62	874.002
2146.57	875.943
2147.53	871.058
2148.49	888.186
2149.45	856.653
2150.4	858.707
2151.36	863.946
2152.32	850.895
2153.27	864.445
2154.23	847.615
2155.19	850.092
2156.14	833.112
2157.1	841.066
2158.05	835.043
2159.01	823.308
2159.96	816.382
2160.92	807.943
2161.88	811.658
2162.83	809.371
2163.78	816.396
2164.74	828.549
2165.69	791.959
2166.65	804.717
2167.6	805.985
2168.56	808.375
2169.51	789.303
2170.47	795.614
2171.42	792.203
2172.37	785.31
2173.33	778.8
2174.28	791.363
2175.23	780.597
2176.19	783.7
2177.14	779.547
2178.09	772.989
2179.04	768.683
2180	769.034
2180.95	769.621
2181.9	761.619
2182.85	755.438
2183.81	767.005
2184.76	761.033
2185.71	749.117
2186.66	752.272
2187.61	744.653
2188.56	746.86
2189.51	752.254
2190.46	737.337
2191.42	734.564
2192.37	737.008
2193.32	737.952
2194.27	733.869
2195.22	739.56
2196.17	724.863
2197.12	733.637
2198.07	726.522
2199.02	730.758
2199.97	731.207
2200.92	733.104
2201.86	724.172
2202.81	726.451
2203.76	726.35
2204.71	724.126
2205.66	729.182
2206.61	716.534
2207.56	714.892
2208.5	717.324
2209.45	724.578
2210.4	723.354
2211.35	710.884
2212.3	709.946
2213.24	714.918
2214.19	718.082
2215.14	721.341
2216.08	719.697
2217.03	711.358
2217.98	708.593
2218.92	718.743
2219.87	723.884
2220.82	716.64
2221.76	705.198
2222.71	718.841
2223.65	713.395
2224.6	709.616
2225.55	717.608
2226.49	721.453
2227.44	720.246
2228.38	716.112
2229.33	717.986
2230.27	727.323
2231.22	718.826
2232.16	715.129
2233.11	710.197
2234.05	708.819
2234.99	717.895
2235.94	722.153
2236.88	714.565
2237.83	707.472
2238.77	713.841
2239.71	716.893
2240.66	711.102
2241.6	721.143
2242.06	733
2243.01	747
2243.96	741.5
2244.91	704
2245.85	738
2246.8	739.5
2247.75	756
2248.7	740.5
2249.64	759.5
2250.59	718
2251.54	742.5
2252.48	727.5
2253.43	744.5
2254.38	709
2255.32	720.5
2256.27	707
2257.21	693.5
2258.16	707.5
2259.1	707.5
2260.05	695.5
2260.99	703.5
2261.94	697.5
2262.89	695
2263.83	690.5
2264.77	709.5
2265.72	696
2266.66	690.5
2267.61	677.5
2268.55	669
2269.5	683
2270.44	680.5
2271.38	681
2272.33	660
2273.27	667
2274.21	665
2275.16	657.5
2276.1	679
2277.04	667.5
2277.98	657
2278.93	655
2279.87	653.5
2280.81	652
2281.75	644.5
2282.7	650.5
2283.64	666.5
2284.58	653
2285.52	645.5
2286.46	652
2287.4	657.5
2288.34	677.5
2289.29	660
2290.23	647
2291.17	650
2292.11	656.5
2293.05	653.5
2293.99	659
2294.93	653.5
2295.87	657
2296.81	653
2297.75	650
2298.69	637
2299.63	666
2300.57	644.5
2301.51	659.5
2302.44	652.5
2303.38	651
2304.32	658.5
2305.26	662.5
2306.2	649
2307.14	653.5
2308.08	636
2309.01	648
2309.95	650
2310.89	634
2311.83	647.5
2312.77	621
2313.7	632.5
2314.64	629.5
2315.58	638
2316.51	641.5
2317.45	634.5
2318.39	636
2319.32	635
2320.26	627
2321.2	634.5
2322.13	629.5
2323.07	629
2324	634
2324.94	618.5
2325.88	623.5
2326.81	630
2327.75	635
2328.68	636.5
2329.62	625
2330.55	624
2331.49	616
2332.42	638.5
2333.35	632.5
2334.29	614
2335.22	622
2336.16	617
2337.09	606
2338.02	623
2338.96	620
2339.89	618.5
2340.82	624
2341.76	623.5
2342.69	612.5
2343.62	609
2344.56	623
2345.49	612.5
2346.42	619.5
2347.35	613
2348.29	594.5
2349.22	612
2350.15	611
2351.08	595
2352.01	608.5
2352.94	605
2353.88	602
2354.81	627
2355.74	616.5
2356.67	616
2357.6	615
2358.53	607
2359.46	613.5
2360.39	604.5
2361.32	607
2362.25	606
2363.18	608
2364.11	606
2365.04	628
2365.97	597.5
2366.9	607
2367.83	595
2368.76	601.5
2369.69	598
2370.62	585
2371.55	601.5
2372.47	593.5
2373.4	597.5
2374.33	593
2375.26	590.5
2376.19	604.5
2377.11	597
2378.04	607.5
2378.97	598.5
2379.9	586.5
2380.83	603
2381.75	599
2382.68	605
2383.61	585
2384.53	595
2385.46	602
2386.39	589.5
2387.31	590.5
2388.24	594
2389.17	587.5
2390.09	605
2391.02	583.5
2391.94	591.5
2392.87	588
2393.79	581.5
2394.72	591
2395.64	586.5
2396.57	576
2397.49	587.5
2398.42	577
2399.34	569
2400.27	602
2401.19	574
2402.12	586
2403.04	578.5
2403.96	578
2404.89	569
2405.81	574
2406.74	564
2407.66	578.5
2408.58	580.5
2409.51	575
2410.43	573.5
2411.35	574.5
2412.27	596
2413.2	577.5
2414.12	573
2415.04	578.5
2415.96	578
2416.89	583
2417.81	562
2418.73	572
2419.65	573
2420.57	572.5
2421.49	572
2422.41	568.5
2423.34	568
2424.26	571
2425.18	564
2426.1	573.5
2427.02	558
2427.94	554
2428.86	572.5
2429.78	568.5
2430.7	553
2431.62	552
2432.54	575
2433.46	572.5
2434.38	549
2435.3	555.5
2436.22	562
2437.13	557
2438.05	555
2438.97	560
2439.89	568.5
2440.81	573
2441.73	568
2442.65	539
2443.56	562.5
2444.48	556
2445.4	554
2446.32	559
2447.24	549
2448.15	540
2449.07	528
2449.99	556.5
2450.9	541.5
2451.82	546
2452.74	555
2453.65	540.5
2454.57	545
2455.49	556
2456.4	544
2457.32	548.5
2458.23	536
2459.15	555
2460.07	550
2460.98	535.5
2461.9	541
2462.81	551
2463.73	539
2464.64	541.5
2465.56	559.5
2466.47	550
2467.39	551
2468.3	543
2469.21	554
2470.13	561.5
2471.04	527
2471.96	545
2472.87	537.5
2473.78	541
2474.7	535
2475.61	540
2476.52	539.5
2477.44	547.5
2478.35	530
2479.26	540.5
2480.17	532
2481.09	516
2482	538.5
2482.91	534
2483.82	532
2484.74	545.5
2485.65	520
2486.56	530
2487.47	538
2488.38	513
2489.29	531.5
2490.21	524.5
2491.12	531.5
2492.03	535
2492.94	522
2493.85	521.5
2494.76	529
2495.67	523.5
2496.58	519
2497.49	527
2498.4	531.5
2499.31	515
2500.22	519
2501.13	524.5
2502.04	523.5
2502.95	527
2503.86	521.5
2504.76	517.5
2505.67	508.5
2506.58	510.5
2507.49	517.5
2508.4	514.5
2509.31	514.5
2510.22	507
2511.12	531
2512.03	520
2512.94	512
2513.85	506.5
2514.76	529.5
2515.66	527
2516.57	513
2517.48	523
2518.38	505.5
2519.29	512.5
2520.2	509
2521.1	519.5
2522.01	510.5
2522.92	511
2523.82	505
2524.73	513
2525.64	511
2526.54	523
2527.45	517.5
2528.35	526
2529.26	507
2530.16	501
2531.07	510.5
2531.97	516.5
2532.88	497.5
2533.78	502.5
2534.69	519.5
2535.59	492.5
2536.5	506.5
2537.4	487.5
2538.31	505.5
2539.21	504
2540.11	512
2541.02	501
2541.92	506
2542.82	503.5
2543.73	484
2544.63	500
2545.53	497
2546.44	500.5
2547.34	509.5
2548.24	492
2549.14	493
2550.05	496
2550.95	490
2551.85	488.5
2552.75	486.5
2553.65	489
2554.56	490.5
2555.46	493.5
2556.36	501
2557.26	499.5
2558.16	499.5
2559.06	490
2559.96	482
2560.86	476
2561.76	487.5
2562.67	488
2563.57	477
2564.47	490.5
2565.37	483
2566.27	481
2567.17	490
2568.06	495.5
2568.96	494
2569.86	473
2570.76	488.5
2571.66	488
2572.56	483
2573.46	473
2574.36	483.5
2575.26	468
2576.16	468.5
2577.05	461
2577.95	460
2578.85	469.5
2579.75	475
2580.65	483.5
2581.54	475
2582.44	461
2583.34	475.5
2584.24	472.5
2585.13	470
2586.03	465
2586.93	482.5
2587.83	478
2588.72	490
2589.62	471
2590.51	467
2591.41	479
2592.31	488
2593.2	464.5
2594.1	478.5
2594.99	460
2595.89	461.5
2596.79	468
2597.68	455
2598.58	469
2599.47	461
2600.37	463
2601.26	465.5
2602.16	460
2603.05	467.5
2603.94	471
2604.84	460
2605.73	464
2606.63	444.5
2607.52	460
2608.42	466.5
2609.31	463.5
2610.2	449
2611.1	451.5
2611.99	450
2612.88	458.5
2613.78	460
2614.67	459.5
2615.56	457
2616.45	447
2617.35	459
2618.24	458
2619.13	450
2620.02	458.5
2620.91	448
2621.81	458
2622.7	449.5
2623.59	456
2624.48	461
2625.37	438.5
2626.26	433.5
2627.15	447.5
2628.04	454.5
2628.94	442
2629.83	440.5
2630.72	444
2631.61	444.5
2632.5	445
2633.39	442
2634.28	438.5
2635.17	437.5
2636.06	444
2636.95	443.5
2637.84	433.5
2638.73	434.5
2639.61	434
2640.5	449
2641.39	437
2642.28	433
2643.17	436
2644.06	441.5
2644.95	431
2645.84	429
2646.72	429.5
2647.61	420
2648.5	422
2649.39	435.5
2650.28	437.5
2651.16	421
2652.05	419
2652.94	428
2653.82	419
2654.71	410.5
2655.6	431.5
2656.49	426
2657.37	424
2658.26	434
2659.14	429
2660.03	442
2660.92	432.5
2661.8	421
2662.69	423
2663.57	416.5
2664.46	434
2665.35	403
2666.23	435.5
2667.12	421.5
2668	424
2668.89	432
2669.77	428
2670.66	422.5
2671.54	424
2672.42	424
2673.31	426.5
2674.19	423
2675.08	410.5
2675.96	419.5
2676.84	416.5
2677.73	418
2678.61	427
2679.49	404
2680.38	425.5
2681.26	419.5
2682.14	404
2683.03	424
2683.91	414.5
2684.79	418.5
2685.68	415.5
2686.56	408
2687.44	414
2688.32	418.5
2689.2	419
2690.09	402.5
2690.97	417.5
2691.85	402
2692.73	396.5
2693.61	414.5
2694.49	411
2695.37	409
2696.25	396
2697.14	409
2698.02	404
2698.9	404
2699.78	409
2700.66	402
2701.54	395
2702.42	399.5
2703.3	415
2704.18	409
2705.06	406
2705.94	400
2706.82	406.5
2707.7	403.5
2708.57	406
2709.45	398.5
2710.33	410
2711.21	401
2712.09	402.5
2712.97	396
2713.85	399
2714.72	397
2715.6	389
2716.48	402.5
2717.36	409
2718.24	407.5
2719.11	399
2719.99	393.5
2720.87	404.5
2721.75	400
2722.62	394
2723.5	405.5
2724.38	400
2725.25	386.5
2726.13	388.5
2727.01	400
2727.88	393
2728.76	391
2729.63	386.5
2730.51	386
2731.39	382.5
2732.26	390
2733.14	386.5
2734.01	389.5
2734.89	400.5
2735.76	389
2736.64	395
2737.51	390
2738.39	388.5
2739.26	372.5
2740.14	377
2741.01	390
2741.89	379.5
2742.76	380
2743.63	391.5
2744.51	376
2745.38	380.5
2746.26	393
2747.13	376
2748	388
2748.88	372.5
2749.75	382.5
2750.62	388.5
2751.5	384
2752.37	379.5
2753.24	363
2754.11	386
2754.99	368
2755.86	386.5
2756.73	368.5
2757.6	374
2758.47	381
2759.35	380
2760.22	371.5
2761.09	372
2761.96	380
2762.83	372
2763.7	384
2764.57	377.5
2765.44	372
2766.32	367.5
2767.19	368.5
2768.06	373
2768.93	370.5
2769.8	372
2770.67	373.5
2771.54	365.5
2772.41	363
2773.28	362
2774.15	361.5
2775.02	363.5
2775.89	362.5
2776.75	359.5
2777.62	356.5
2778.49	354.5
2779.36	370
2780.23	359
2781.1	373.5
2781.97	353
2782.84	360.5
2783.7	355
2784.57	372
2785.44	349
2786.31	356.5
2787.18	364
2788.04	355.5
2788.91	359
2789.78	362.5
2790.64	369.5
2791.51	349
2792.38	360.5
2793.24	361
2794.11	367
2794.98	357
2795.85	349
2796.71	354
2797.58	358.5
2798.44	358
2799.31	352
2800.18	349
2801.04	358
2801.91	358.5
2802.77	352
2803.64	351
2804.5	346.5
2805.37	348
2806.23	341.5
2807.1	357.5
2807.96	352
2808.83	342
2809.69	339.5
2810.55	343
2811.42	343.5
2812.28	351.5
2813.15	339
2814.01	356.5
2814.88	341.5
2815.74	346.5
2816.6	356.5
2817.46	341
2818.33	348.5
2819.19	350
2820.05	350
2820.92	338.5
2821.78	355
2822.64	345
2823.51	349.5
2824.37	342
2825.23	343
2826.09	330
2826.95	339
2827.81	354.5
2828.68	352
2829.54	340.5
2830.4	333.5
2831.26	332
2832.12	347
2832.98	331
2833.84	345
2834.71	345.5
2835.57	335
2836.43	335
2837.29	339
2838.15	341
2839.01	342.5
2839.87	337.5
2840.73	345.5
2841.59	354.5
2842.45	344
2843.31	347.5
2844.17	355
2845.02	356.5
2845.88	348.5
2846.74	360
2847.6	352
2848.46	362
2849.32	349
2850.18	351
2851.04	350.5
2851.9	350.5
2852.75	358.5
2853.61	366.5
2854.47	357
2855.33	356
2856.19	351
2857.04	357
2857.9	366.5
2858.76	358.5
2859.61	352.5
2860.47	353
2861.33	351.5
2862.19	353.5
2863.04	351
2863.9	348
2864.76	346.5
2865.61	351
2866.47	350
2867.32	344.5
2868.18	341
2869.04	351
2869.89	351
2870.75	356
2871.6	359.5
2872.46	359.5
2873.31	360
2874.17	352.5
2875.02	351
2875.88	358.5
2876.73	354
2877.59	343
2878.44	354.5
2879.3	356.5
2880.15	355.5
2881	359.5
2881.86	336.5
2882.71	358.5
2883.57	351
2884.42	344
2885.27	357
2886.13	357.5
2886.98	348.5
2887.83	346
2888.69	353
2889.54	342.5
2890.39	349
2891.24	356
2892.1	350
2892.95	361
2893.8	351.5
2894.65	341
2895.51	347.5
2896.36	360.5
2897.21	359
2898.06	349.5
2898.91	353.5
2899.76	351.5
2900.62	353
2901.47	353
2902.32	343
2903.17	349
2904.02	352.5
2904.87	347.5
2905.72	362.5
2906.57	347
2907.42	348
2908.27	359
2909.12	359.5
2909.97	346
2910.82	373.5
2911.67	369.5
2912.52	362.5
2913.37	356.5
2914.22	356
2915.07	352
2915.92	353
2916.77	355.5
2917.62	370.5
2918.47	358
2919.31	366
2920.16	368
2921.01	366
2921.86	358
2922.71	367
2923.55	361
2924.4	358
2925.25	378
2926.1	387
2926.94	364.5
2927.79	364.5
2928.64	369.5
2929.49	379.5
2930.33	371
2931.18	375.5
2932.03	364
2932.87	378
2933.72	374
2934.57	364
2935.41	381.5
2936.26	366.5
2937.11	380
2937.95	372.5
2938.8	374
2939.64	379.5
2940.49	367
2941.33	367.5
2942.18	364
2943.02	383
2943.87	365.5
2944.71	362.5
2945.56	353.5
2946.4	364
2947.25	345
2948.09	348.5
2948.94	344
2949.78	360
2950.63	348.5
2951.47	330
2952.31	333
2953.16	339.5
2954	331
2954.84	330.5
2955.69	327.5
2956.53	325.5
2957.37	328
2958.22	324
2959.06	325.5
2959.9	321
2960.75	316.5
2961.59	315
2962.43	317.5
2963.27	317
2964.11	324.5
2964.96	321.5
2965.8	312
2966.64	313.5
2967.48	301
2968.32	311
2969.16	312.5
2970.01	314
2970.85	315
2971.69	311
2972.53	317
2973.37	312.5
2974.21	313
2975.05	304
2975.89	313.5
2976.73	313.5
2977.57	306
2978.41	316.5
2979.25	303
2980.09	309
2980.93	298
2981.77	309.5
2982.61	283.5
2983.45	299
2984.29	280
2985.13	303
2985.97	297.5
2986.81	292
2987.65	285.5
2988.49	293.5
2989.32	284
2990.16	287
2991	287.5
2991.84	281.5
2992.68	276.5
2993.51	283
2994.35	272
2995.19	278
2996.03	282.5
2996.86	270
2997.7	275
2998.54	276.5
2999.38	268.5
