#Acq. time (s)=	5
#Accumulations=	5
#Range (cm-¹)=	100...3000
#Windows=	3
#Autofocus=	Off
#AutoExposure=	Off
#Spike filter=	Multiple accum.
#Delay time (s)=	0
#Binning=	1
#Readout mode=	Signal
#DeNoise=	Off
#ICS correction=	Off
#Dark correction=	Off
#Inst. Process=	Off
#Instrument=	LabRAM HR Evol
#Detector=	Syncerity OE
#Objective=	x100_VIS_LWD
#Grating=	600 (500nm)
#ND Filter=	100%
#Laser=	633nm_Edge
#Hole=	100.021
#Range=	Visible
#Project=	Omar
#Sample=	chi
#Site=	f
#Title=	nsno
#Remark=	
#Date=	12.09.2023 17:09
#Acquired=	12.09.2023 17:09:02
101.026	3504.5
102.309	3505
103.592	3493.5
104.875	3460
106.158	3444.5
107.441	3397.5
108.723	3392.5
110.005	3326.5
111.289	3317
112.571	3320
113.852	3299.5
115.134	3283
116.415	3243.5
117.696	3220
118.976	3204.5
120.257	3200.5
121.537	3179
122.817	3130
124.097	3149
125.377	3107
126.656	3113
127.936	3124.5
129.215	3082
130.493	3061.5
131.772	3041
133.049	3039.5
134.327	3035
135.605	3024
136.883	2971.5
138.161	2965.5
139.438	2919.5
140.715	2884.5
141.992	2888
143.269	2852.5
144.545	2879
145.82	2798.5
147.096	2808.5
148.372	2790.5
149.648	2767.5
150.924	2731.5
152.199	2732
153.472	2718
154.747	2688.5
156.022	2703.5
157.296	2674
158.571	2651
159.843	2642
161.117	2680
162.391	2642
163.664	2595
164.937	2588
166.209	2624.5
167.482	2613.5
168.754	2565
170.025	2585.5
171.297	2580
172.569	2552
173.841	2543
175.111	2538
176.383	2543.5
177.654	2524
178.923	2518
180.194	2531
181.464	2532
182.733	2537
184.003	2543.5
185.273	2527.5
186.542	2539
187.811	2491
189.079	2531
190.348	2532
191.617	2551
192.884	2534.5
194.152	2567
195.419	2551
196.687	2558.5
197.955	2569.5
199.221	2605
200.489	2562.5
201.755	2558
203.022	2611
204.287	2561.5
205.554	2570
206.818	2594.5
208.085	2586
209.349	2586
210.615	2606.5
211.879	2586
213.144	2588.5
214.408	2608.5
215.673	2593
216.936	2620.5
218.201	2594
219.464	2592.5
220.728	2596
221.99	2606
223.253	2591
224.516	2578
225.778	2595.5
227.041	2619
228.303	2614
229.564	2568.5
230.826	2610.5
232.087	2636.5
233.348	2609
234.61	2605
235.87	2604
237.13	2647
238.391	2629.5
239.651	2601.5
240.91	2629
242.171	2596
243.43	2640.5
244.689	2600.5
245.949	2668
247.207	2632
248.465	2626
249.723	2643
250.983	2601.5
252.24	2613
253.498	2655.5
254.755	2643.5
256.013	2646.5
257.27	2643
258.526	2666.5
259.783	2633.5
261.039	2619.5
262.296	2631.5
263.552	2623
264.808	2638
266.063	2644.5
267.318	2593
268.573	2638
269.828	2601
271.084	2611
272.338	2590.5
273.592	2627
274.846	2624.5
276.1	2622.5
277.353	2600.5
278.607	2655.5
279.86	2643.5
281.113	2662
282.365	2628
283.619	2667
284.872	2665.5
286.124	2674.5
287.376	2664.5
288.627	2693.5
289.879	2705
291.13	2701.5
292.381	2700.5
293.632	2689
294.883	2711.5
296.133	2719.5
297.384	2733.5
298.634	2709.5
299.883	2731
301.133	2674
302.381	2708
303.63	2710
304.879	2705.5
306.128	2719
307.377	2724
308.625	2717.5
309.874	2715
311.122	2701
312.37	2705.5
313.617	2716
314.863	2720
316.111	2695.5
317.358	2693.5
318.604	2718.5
319.851	2700
321.098	2703
322.342	2662
323.588	2672.5
324.834	2631.5
326.08	2663.5
327.325	2654
328.569	2620.5
329.814	2629.5
331.059	2627
332.304	2611.5
333.548	2620.5
334.791	2611
336.035	2598.5
337.279	2627
338.521	2573.5
339.765	2587.5
341.008	2606
342.251	2623
343.492	2579
344.735	2586
345.977	2580.5
347.218	2590.5
348.46	2595.5
349.702	2605
350.942	2606.5
352.184	2612.5
353.425	2616
354.665	2641.5
355.905	2627
357.145	2637.5
358.385	2608
359.625	2629.5
360.864	2607
362.104	2587.5
363.342	2615.5
364.581	2610
365.819	2604
367.058	2591.5
368.296	2616.5
369.534	2575.5
370.771	2601
372.01	2576.5
373.246	2584
374.484	2594
375.72	2592
376.958	2598
378.194	2573
379.431	2585
380.666	2610
381.903	2577.5
383.138	2595.5
384.374	2576
385.609	2563.5
386.845	2592
388.079	2584.5
389.313	2580
390.548	2577.5
391.782	2598.5
393.016	2587.5
394.25	2601.5
395.483	2592
396.718	2594
397.95	2590
399.183	2581
400.416	2580.5
401.648	2633
402.88	2584.5
404.113	2617
405.345	2636
406.576	2648
407.807	2645
409.04	2673.5
410.27	2648.5
411.501	2647.5
412.731	2663
413.963	2684
415.193	2740.5
416.422	2690
417.652	2712
418.883	2723.5
420.112	2708
421.341	2748.5
422.569	2757.5
423.798	2747
425.028	2728.5
426.256	2704
427.484	2729
428.711	2754
429.939	2756
431.166	2755
432.394	2792
433.622	2783.5
434.849	2789
436.075	2775.5
437.302	2777
438.528	2753
439.754	2741.5
440.98	2756
442.205	2761.5
443.431	2735
444.656	2737.5
445.881	2720.5
447.106	2721.5
448.33	2711
449.555	2707.5
450.779	2711
452.003	2718.5
453.227	2729.5
454.45	2691.5
455.674	2711
456.897	2705.5
458.12	2721.5
459.343	2703
460.566	2708
461.788	2662
463.01	2726
464.232	2722.5
465.454	2723
466.676	2694
467.897	2716.5
469.119	2671.5
470.34	2686
471.559	2734
472.78	2703
474.001	2722
475.221	2713
476.441	2688.5
477.661	2716
478.879	2708
480.099	2737
481.318	2711
482.537	2696.5
483.756	2728
484.974	2731.5
486.192	2736
487.411	2756
488.629	2752
489.847	2755
491.063	2756
492.281	2751.5
493.498	2742
494.714	2772
495.931	2787.5
497.148	2770.5
498.365	2752.5
499.58	2741
500.796	2765.5
502.012	2780.5
503.226	2796.5
504.442	2783
505.657	2800
506.871	2755
508.086	2758.5
509.3	2797.5
510.515	2786
511.729	2794
512.942	2753
514.156	2773.5
515.369	2767.5
516.582	2807.5
517.796	2786.5
519.008	2787.5
520.221	2826
521.433	2782
522.645	2767
523.857	2770.5
525.069	2783
526.28	2781.5
527.492	2779.5
528.702	2799.5
529.914	2772
531.124	2758
532.335	2810.5
533.545	2793
534.756	2757
535.965	2752.5
537.175	2770
538.384	2747
539.593	2753
540.803	2768.5
542.011	2755.5
543.221	2726
544.429	2739.5
545.636	2751
546.845	2752.5
548.052	2773
549.261	2754.5
550.468	2729
551.675	2738
552.883	2739.5
554.089	2744.5
555.295	2726
556.503	2755
557.709	2788
558.914	2755
560.12	2779.5
561.326	2752.5
562.531	2786
563.736	2786
564.941	2760
566.147	2754.5
567.351	2779.5
568.555	2746
569.759	2753.5
570.964	2756
572.168	2765.5
573.371	2757
574.574	2790.5
575.777	2796.5
576.981	2760.5
578.184	2784
579.386	2758.5
580.588	2780.5
581.79	2764.5
582.992	2747.5
584.194	2766
585.395	2768.5
586.598	2742.5
587.799	2794.5
589	2784.5
590.201	2772.5
591.401	2767
592.601	2728.5
593.801	2790
595.001	2743
596.201	2797.5
597.401	2779
598.6	2775.5
599.799	2761.5
600.998	2800
602.197	2771.5
603.395	2787
604.594	2821
605.792	2802.5
606.99	2777.5
608.188	2794
609.386	2783
610.583	2792.5
611.78	2785.5
612.977	2806
614.174	2823.5
615.371	2821.5
616.566	2832
617.762	2819.5
618.958	2842
620.154	2886.5
621.35	2841.5
622.546	2848.5
623.741	2825
624.935	2871.5
626.13	2838
627.325	2864
628.519	2856.5
629.714	2870.5
630.908	2873.5
632.101	2881
633.295	2892.5
634.488	2856
635.682	2874.5
636.874	2874
638.067	2877.5
639.26	2885.5
640.453	2861
641.644	2891
642.836	2896
644.028	2895
645.219	2889
646.411	2877.5
647.602	2886.5
648.792	2918.5
649.984	2877.5
651.175	2886.5
652.364	2871
653.555	2879
654.745	2860.5
655.934	2859.5
657.124	2903.5
658.314	2851.5
659.503	2865
660.692	2879.5
661.88	2831
663.07	2869
664.257	2842.5
665.446	2852
666.635	2900.5
667.822	2829
669.01	2877
670.197	2840
671.384	2828.5
672.571	2839.5
673.758	2847.5
674.944	2833.5
676.131	2836.5
677.317	2891
678.502	2819.5
679.689	2835
680.874	2848.5
682.06	2854
683.245	2847
684.431	2793
685.615	2840
686.799	2852
687.984	2823.5
689.168	2807.5
690.353	2796.5
691.536	2789
692.719	2810.5
693.904	2802
695.086	2840
696.269	2802
697.453	2804
698.635	2795
699.817	2809
701	2799.5
702.182	2811
703.364	2794.5
704.545	2803
705.727	2797.5
706.908	2807.5
708.089	2807
709.27	2812
710.451	2832.5
711.632	2823.5
712.812	2846.5
713.991	2808.5
715.172	2795
716.352	2835
717.531	2804
718.71	2814.5
719.889	2814.5
721.068	2812
722.248	2829
723.426	2810.5
724.604	2816
725.782	2811
726.96	2811
728.138	2819
729.315	2828.5
730.492	2841
731.669	2869.5
732.846	2797
734.024	2837
735.201	2804.5
736.377	2818.5
737.553	2780
738.729	2871.5
739.905	2797
741.081	2811
742.256	2796.5
743.431	2794
744.606	2835
745.781	2792
746.956	2799.5
748.13	2833
749.303	2800.5
750.477	2845
751.651	2824.5
752.825	2806.5
753.999	2798
755.172	2799
756.345	2835
757.518	2841
758.691	2824.5
759.864	2850.5
761.035	2855
762.207	2807.5
763.379	2771
764.551	2815
765.723	2799
766.894	2793.5
768.064	2804
769.236	2815
770.407	2790
771.577	2799
772.748	2776
773.917	2792.5
775.088	2755.5
776.258	2760.5
777.427	2770
778.596	2785
779.765	2809.5
780.935	2802
782.104	2825
783.272	2791.5
784.44	2779.5
785.609	2806.5
786.776	2820
787.944	2796.5
789.113	2816.5
790.279	2811
791.447	2789
792.613	2842.5
793.78	2808
794.948	2847
796.113	2819
797.28	2818.5
798.445	2847.5
799.612	2844.5
800.778	2832.5
801.943	2830.5
803.109	2806
804.273	2836.5
805.439	2858.5
806.603	2833.5
807.768	2861.5
808.932	2858.5
810.096	2858.5
811.26	2827
812.424	2839
813.587	2849
814.751	2860
815.914	2872.5
817.078	2840
818.24	2869.5
819.402	2868.5
820.565	2872.5
821.727	2882.5
822.889	2881.5
824.051	2855
825.212	2899
826.374	2896
827.535	2859.5
828.697	2842.5
829.857	2861.5
831.018	2850.5
832.179	2920.5
833.339	2854
834.499	2877
835.659	2854.5
836.819	2895
837.978	2903
839.137	2880
840.297	2856
841.456	2862.5
842.614	2892
843.772	2878
844.932	2863.5
846.09	2863.5
847.247	2899.5
848.405	2861
849.562	2877
850.721	2897
851.878	2898.5
853.034	2887
854.191	2916
855.348	2881.5
856.504	2898.5
857.661	2855
858.817	2906
859.973	2880.5
861.129	2891.5
862.284	2896.5
863.439	2853
864.594	2858
865.749	2882
866.904	2844.5
868.058	2833
869.212	2837.5
870.367	2848.5
871.522	2848
872.676	2836
873.829	2827.5
874.983	2818
876.136	2830.5
877.289	2820
878.442	2795.5
879.593	2792.5
880.746	2792.5
881.898	2804.5
883.05	2779.5
884.202	2826.5
885.354	2792
886.506	2772
887.657	2771
888.808	2779
889.96	2774
891.11	2766
892.261	2781.5
893.41	2777
894.561	2769
895.711	2764.5
896.861	2758
898.011	2801.5
899.161	2797
900.309	2767.5
901.458	2730.5
902.607	2746.5
903.756	2765.5
904.904	2749.5
906.052	2783
907.201	2729.5
908.349	2746.5
909.496	2745.5
910.644	2753.5
911.791	2764.5
912.939	2741.5
914.085	2764.5
915.232	2761.5
916.379	2769
917.525	2786
918.671	2790
919.818	2738
920.963	2753.5
922.109	2712
923.255	2739
924.399	2743
925.545	2721
926.689	2717.5
927.834	2717
928.979	2703
930.123	2709
931.268	2729.5
932.411	2721.5
933.555	2731.5
934.698	2767.5
935.842	2708
936.985	2758
938.128	2733.5
939.271	2723
940.414	2758.5
941.556	2739
942.699	2731
943.84	2733.5
944.983	2748.5
946.124	2739
947.266	2720.5
948.407	2712.5
949.547	2762.5
950.689	2741.5
951.829	2766
952.971	2758
954.111	2742.5
955.25	2761
956.391	2765.5
957.531	2784
958.67	2770
959.81	2738
960.949	2772
962.088	2784
963.227	2811.5
964.366	2785.5
965.504	2805.5
966.643	2749.5
967.781	2787.5
968.919	2818
970.056	2783.5
971.195	2785.5
972.332	2786.5
973.469	2738
974.605	2768.5
975.743	2786
976.88	2771.5
978.016	2731.5
979.152	2776
980.288	2767
981.423	2765
982.56	2766.5
983.696	2744.5
984.831	2739
985.966	2748.5
987.101	2744.5
988.235	2766
989.37	2750.5
990.504	2775.5
991.638	2737
992.773	2759.5
993.907	2735
995.041	2784
996.174	2781
997.307	2812.5
998.44	2793
999.573	2828
1000.71	2799.5
1001.84	2788
1002.97	2738
1004.1	2727
1005.24	2733.5
1006.37	2731
1007.5	2719
1008.63	2717.5
1009.76	2723.5
1010.89	2749.5
1012.02	2725.5
1013.15	2724.5
1014.28	2746
1015.41	2737.5
1016.54	2724
1017.67	2713
1018.8	2702.5
1019.93	2708.5
1021.06	2703
1022.19	2738.5
1023.32	2724
1024.45	2745
1025.58	2754
1026.71	2749.5
1027.84	2725.5
1028.96	2749
1030.09	2750
1031.22	2755
1032.35	2733.5
1033.47	2780.5
1034.6	2755.5
1035.73	2737.5
1036.86	2732
1037.98	2775
1039.11	2720
1040.23	2761
1041.36	2725
1042.49	2724
1043.61	2738.5
1044.74	2721.5
1045.86	2780
1046.99	2700.5
1048.11	2775
1049.24	2748.5
1050.36	2751.5
1051.49	2742.5
1052.61	2778.5
1053.74	2755
1054.86	2777
1055.98	2756
1057.11	2721
1058.23	2750
1059.35	2775
1060.48	2764.5
1061.6	2769.5
1062.72	2770
1063.84	2779.5
1064.97	2749.5
1066.09	2745
1067.21	2735
1068.33	2764
1069.45	2765.5
1070.57	2740.5
1071.7	2748
1072.82	2755
1073.94	2752
1075.06	2783.5
1076.18	2743
1077.3	2762.5
1078.42	2756.5
1079.54	2734
1080.66	2702.5
1081.78	2752
1082.9	2720
1084.02	2702.5
1085.14	2725.5
1086.25	2762
1087.37	2750.5
1088.49	2717.5
1089.61	2748.5
1090.73	2698.5
1091.84	2751.5
1092.96	2716.5
1094.08	2735.5
1095.2	2723.5
1096.31	2741
1097.43	2736.5
1098.55	2719
1099.66	2743
1100.78	2709.5
1101.9	2700
1103.01	2718
1104.13	2693
1105.25	2682.5
1106.36	2704.5
1107.48	2720.5
1108.59	2702.5
1109.71	2708
1110.82	2727
1111.93	2710
1113.05	2752
1114.16	2726
1115.28	2697
1116.39	2680.5
1117.51	2691
1118.62	2678
1119.73	2693.5
1120.85	2716.5
1121.96	2682.5
1123.07	2684.5
1124.18	2701
1125.3	2693.5
1126.41	2711.5
1127.52	2719
1128.63	2732
1129.74	2681.5
1130.85	2732.5
1131.97	2750.5
1133.08	2750
1134.19	2720.5
1135.3	2730
1136.41	2727.5
1137.52	2736
1138.63	2728
1139.74	2719.5
1140.85	2759.5
1141.96	2756
1143.07	2751.5
1144.18	2750.5
1145.29	2779.5
1146.4	2785
1147.51	2794.5
1148.61	2801
1149.72	2802.5
1150.83	2792.5
1151.94	2802.5
1153.05	2806
1154.15	2854.5
1155.26	2864.5
1156.37	2856
1157.48	2866.5
1158.58	2887.5
1159.69	2895
1160.8	2865.5
1161.9	2903.5
1163.01	2894.5
1164.11	2877.5
1165.22	2935
1166.33	2961.5
1167.43	2906.5
1168.54	2942.5
1169.64	2932
1170.75	2959
1171.85	2970
1172.96	2937.5
1174.06	2952.5
1175.17	2926
1176.27	2956.5
1177.37	2946
1178.48	2972
1179.58	2920.5
1180.68	2937
1181.79	2903.5
1182.89	2924
1183.99	2854
1185.1	2875
1186.2	2882.5
1187.3	2887.5
1188.4	2891
1189.5	2850.5
1190.61	2829
1191.71	2845
1192.81	2857.5
1193.91	2825
1195.01	2803
1196.11	2801.02
1197.21	2811
1198.31	2806.64
1199.42	2781.74
1200.51	2807.66
1201.61	2832.82
1202.72	2797.32
1203.81	2832.65
1204.91	2796.95
1206.01	2796.05
1207.11	2773.92
1208.21	2805.82
1209.31	2792.07
1210.41	2794.17
1211.51	2782.35
1212.61	2782.31
1213.7	2755.2
1214.8	2784.72
1215.9	2773.9
1217	2780.89
1218.09	2747.8
1219.19	2731.03
1220.29	2791.24
1221.38	2744.54
1222.48	2729.05
1223.58	2722.04
1224.67	2740.24
1225.77	2748.26
1226.87	2725.29
1227.96	2734.82
1229.06	2725.14
1230.15	2709.67
1231.25	2729.29
1232.34	2750.44
1233.44	2729.75
1234.53	2758.35
1235.63	2745.55
1236.72	2734.24
1237.81	2740.97
1238.91	2740.36
1240	2747.79
1241.1	2729.87
1242.19	2753.1
1243.28	2732.86
1244.38	2738.18
1245.47	2736.53
1246.56	2734.99
1247.65	2737.64
1248.75	2744.61
1249.84	2738.25
1250.93	2743.97
1252.02	2742.06
1253.11	2775.28
1254.21	2749.3
1255.3	2747.46
1256.39	2762.02
1257.48	2768.71
1258.57	2757.25
1259.66	2749.31
1260.75	2736.12
1261.84	2759.85
1262.93	2761.87
1264.02	2748.93
1265.11	2754.72
1266.2	2768.24
1267.29	2749.15
1268.38	2766.59
1269.47	2769.17
1270.56	2760.92
1271.65	2772.15
1272.73	2764.28
1273.82	2770.1
1274.91	2768.68
1276	2767.58
1277.09	2758.95
1278.17	2761.64
1279.26	2755.58
1280.35	2741.11
1281.43	2759.03
1282.52	2754.73
1283.61	2755.88
1284.69	2771.08
1285.78	2770.83
1286.87	2772.65
1287.95	2772.33
1289.04	2755.12
1290.13	2738.45
1291.21	2767.39
1292.3	2764.11
1293.38	2770.48
1294.47	2770.71
1295.55	2746.58
1296.64	2759.05
1297.72	2747.99
1298.8	2753.23
1299.89	2726.8
1300.97	2727.51
1302.06	2750.66
1303.14	2713.38
1304.22	2724.09
1305.31	2722.84
1306.39	2723.38
1307.34	2763.5
1308.43	2696
1309.52	2691
1310.6	2732
1311.69	2704
1312.78	2692
1313.87	2696.5
1314.96	2702.5
1316.04	2699
1317.13	2691.5
1318.21	2694
1319.3	2666.5
1320.39	2706.5
1321.47	2659.5
1322.56	2666.5
1323.65	2687
1324.73	2702.5
1325.82	2668
1326.9	2675
1327.99	2694
1329.07	2673
1330.16	2658
1331.24	2683.5
1332.32	2682
1333.41	2657.5
1334.49	2694.5
1335.58	2661.5
1336.66	2675
1337.74	2702.5
1338.83	2667
1339.91	2708.5
1340.99	2670.5
1342.08	2641.5
1343.16	2658.5
1344.24	2642
1345.32	2649.5
1346.41	2663.5
1347.49	2614
1348.57	2633
1349.65	2604.5
1350.73	2615
1351.81	2658
1352.9	2581.5
1353.98	2608
1355.06	2647
1356.14	2622
1357.22	2571
1358.3	2596
1359.38	2606.5
1360.46	2634.5
1361.54	2596
1362.62	2609
1363.7	2619.5
1364.78	2585.5
1365.85	2615
1366.93	2598.5
1368.01	2602.5
1369.09	2592.5
1370.17	2575.5
1371.25	2573.5
1372.33	2605
1373.4	2593
1374.48	2580
1375.56	2612
1376.64	2572
1377.71	2556
1378.79	2607
1379.87	2597.5
1380.94	2575
1382.02	2566.5
1383.1	2572
1384.17	2543.5
1385.25	2554.5
1386.32	2583
1387.4	2547.5
1388.47	2568
1389.55	2537.5
1390.63	2552
1391.7	2536
1392.77	2545
1393.85	2524.5
1394.92	2494
1396	2551
1397.07	2519
1398.15	2509.5
1399.22	2518.5
1400.29	2560
1401.37	2535.5
1402.44	2561
1403.51	2527
1404.59	2513.5
1405.66	2531.5
1406.73	2519.5
1407.8	2548
1408.87	2558.5
1409.95	2539.5
1411.02	2510.5
1412.09	2531
1413.16	2557
1414.23	2517.5
1415.3	2538
1416.38	2516
1417.45	2536
1418.52	2548
1419.59	2534
1420.66	2524
1421.73	2494
1422.8	2524.5
1423.87	2542.5
1424.94	2530
1426.01	2556.5
1427.08	2559
1428.15	2541
1429.21	2560.5
1430.28	2568.5
1431.35	2511.5
1432.42	2571.5
1433.49	2577.5
1434.56	2581.5
1435.63	2564.5
1436.69	2525.5
1437.76	2579
1438.83	2585
1439.89	2597
1440.96	2609
1442.03	2577
1443.1	2612
1444.16	2633.5
1445.23	2590.5
1446.3	2617.5
1447.36	2647
1448.43	2611.5
1449.49	2583.5
1450.56	2643.5
1451.62	2585.5
1452.69	2630
1453.75	2606.5
1454.82	2596.5
1455.88	2594
1456.95	2567
1458.01	2622
1459.08	2563.5
1460.14	2577.5
1461.2	2581
1462.27	2588.5
1463.33	2627
1464.4	2599
1465.46	2566
1466.52	2604
1467.58	2574
1468.65	2578
1469.71	2626.5
1470.77	2596
1471.83	2581
1472.9	2590.5
1473.96	2571.5
1475.02	2579.5
1476.08	2590.5
1477.14	2601
1478.2	2601
1479.27	2600
1480.33	2591
1481.39	2579
1482.45	2618
1483.51	2622.5
1484.57	2617.5
1485.63	2618.5
1486.69	2637
1487.75	2617.5
1488.81	2601.5
1489.87	2639
1490.93	2607
1491.99	2616
1493.04	2639.5
1494.1	2648.5
1495.16	2634
1496.22	2631
1497.28	2676.5
1498.34	2656.5
1499.39	2644
1500.45	2656
1501.51	2686.5
1502.57	2685
1503.62	2668.5
1504.68	2670.5
1505.74	2668.5
1506.79	2624
1507.85	2662.5
1508.91	2629.5
1509.96	2618.5
1511.02	2600
1512.07	2643.5
1513.13	2626.5
1514.19	2628.5
1515.24	2630.5
1516.3	2634.5
1517.35	2640
1518.41	2577
1519.46	2616
1520.52	2617.5
1521.57	2609
1522.62	2623.5
1523.68	2595.5
1524.73	2628
1525.79	2638.5
1526.84	2609
1527.89	2623
1528.95	2635.5
1530	2609.5
1531.05	2607.5
1532.1	2605.5
1533.16	2613
1534.21	2637
1535.26	2650
1536.31	2610.5
1537.37	2639
1538.42	2613.5
1539.47	2576.5
1540.52	2596.5
1541.57	2620.5
1542.62	2591
1543.67	2652
1544.72	2623.5
1545.78	2574
1546.83	2624.5
1547.88	2562.5
1548.93	2609.5
1549.98	2632
1551.03	2585
1552.07	2600
1553.12	2632
1554.17	2597.5
1555.22	2600.5
1556.27	2572.5
1557.32	2581
1558.37	2632
1559.42	2568.5
1560.47	2613.5
1561.51	2604
1562.56	2568.5
1563.61	2604.5
1564.66	2576.5
1565.7	2610
1566.75	2601
1567.8	2609.5
1568.85	2612
1569.89	2604
1570.94	2563
1571.98	2570.5
1573.03	2563
1574.08	2593.5
1575.12	2574.5
1576.17	2625
1577.21	2609.5
1578.26	2584.5
1579.31	2582.5
1580.35	2567
1581.4	2565
1582.44	2603
1583.49	2607.5
1584.53	2571
1585.57	2620.5
1586.62	2610.5
1587.66	2621.5
1588.71	2580.5
1589.75	2577.5
1590.79	2592.5
1591.84	2591
1592.88	2618
1593.92	2600.5
1594.97	2645
1596.01	2566.5
1597.05	2627
1598.09	2600
1599.14	2584.5
1600.18	2590.5
1601.22	2571
1602.26	2605
1603.3	2569
1604.34	2573.5
1605.38	2558.5
1606.43	2507
1607.47	2509.5
1608.51	2473.5
1609.55	2419.5
1610.59	2426
1611.63	2406.5
1612.67	2423.5
1613.71	2410.5
1614.75	2359.5
1615.79	2373.5
1616.83	2369
1617.87	2365.5
1618.91	2326
1619.94	2291
1620.98	2280.5
1622.02	2254
1623.06	2245.5
1624.1	2221
1625.14	2201
1626.17	2223.5
1627.21	2175
1628.25	2144
1629.29	2172
1630.32	2134.5
1631.36	2105.5
1632.4	2138
1633.43	2104
1634.47	2070
1635.51	2102
1636.54	2070
1637.58	2050.5
1638.62	2048.5
1639.65	2056
1640.69	2018.5
1641.72	2015.5
1642.76	1994.5
1643.79	2019.5
1644.83	1990
1645.86	1956
1646.9	1935.5
1647.93	1945
1648.97	1923
1650	1936
1651.04	1936.5
1652.07	1919
1653.1	1916
1654.14	1916.5
1655.17	1865
1656.2	1886.5
1657.24	1853.5
1658.27	1851.5
1659.3	1892.5
1660.34	1844.5
1661.37	1809
1662.4	1829
1663.43	1792.5
1664.46	1781.5
1665.5	1787
1666.53	1798.5
1667.56	1790.5
1668.59	1783.5
1669.62	1778
1670.65	1788
1671.68	1787
1672.71	1756.5
1673.74	1731
1674.77	1760.5
1675.8	1752
1676.83	1755
1677.86	1736
1678.89	1726
1679.92	1718
1680.95	1712
1681.98	1716.5
1683.01	1710
1684.04	1725
1685.07	1713.5
1686.1	1700
1687.13	1705
1688.15	1670.5
1689.18	1681.5
1690.21	1690.5
1691.24	1661.5
1692.27	1679.5
1693.29	1681
1694.32	1647.5
1695.35	1672.5
1696.37	1649.5
1697.4	1655
1698.43	1656.5
1699.45	1673.5
1700.48	1640
1701.51	1617
1702.53	1678
1703.56	1632.5
1704.58	1614.5
1705.61	1624.5
1706.64	1598
1707.66	1608.5
1708.69	1590.5
1709.71	1605.5
1710.73	1614.5
1711.76	1592
1712.78	1598
1713.81	1571.5
1714.83	1583.5
1715.86	1609.5
1716.88	1586
1717.9	1596
1718.93	1568
1719.95	1580.5
1720.97	1581.5
1722	1574
1723.02	1580
1724.04	1569
1725.06	1580.5
1726.09	1557
1727.11	1570
1728.13	1536.5
1729.15	1577
1730.17	1557.5
1731.2	1535
1732.22	1561
1733.24	1527
1734.26	1554.5
1735.28	1530.5
1736.3	1542.5
1737.32	1537.5
1738.34	1533
1739.36	1553.5
1740.38	1528.5
1741.4	1533.5
1742.42	1551
1743.44	1543
1744.46	1530
1745.48	1505
1746.5	1512
1747.52	1514.5
1748.54	1505.5
1749.56	1531.5
1750.57	1470.5
1751.59	1489.5
1752.61	1495
1753.63	1499
1754.65	1474
1755.66	1484
1756.68	1465
1757.7	1482
1758.72	1494
1759.73	1485.5
1760.75	1475.5
1761.77	1481.5
1762.78	1461.5
1763.8	1474.5
1764.82	1454.5
1765.83	1469
1766.85	1450.5
1767.86	1484
1768.88	1450
1769.9	1445.5
1770.91	1424
1771.93	1474
1772.94	1421
1773.96	1415
1774.97	1431.5
1775.99	1434
1777	1414.5
1778.01	1431
1779.03	1433.5
1780.04	1430
1781.06	1422
1782.07	1389.5
1783.08	1423.5
1784.1	1430
1785.11	1430
1786.12	1416.5
1787.14	1420.5
1788.15	1408
1789.16	1437.5
1790.17	1410.5
1791.18	1400.5
1792.2	1405.5
1793.21	1378.5
1794.22	1395.5
1795.23	1383.5
1796.24	1386
1797.26	1364
1798.27	1396
1799.28	1356.5
1800.29	1377
1801.3	1377.5
1802.31	1352.5
1803.32	1379.5
1804.33	1380
1805.34	1393
1806.35	1354
1807.36	1375
1808.37	1381
1809.38	1362.5
1810.39	1358.5
1811.4	1351.5
1812.4	1352.5
1813.41	1353
1814.42	1340
1815.43	1345
1816.44	1339.5
1817.45	1347
1818.45	1364
1819.46	1350
1820.47	1342
1821.48	1334.5
1822.49	1340.5
1823.49	1296.5
1824.5	1346
1825.51	1318
1826.51	1347.5
1827.52	1295.5
1828.53	1339.5
1829.53	1333
1830.54	1327.5
1831.54	1313
1832.55	1301
1833.56	1311
1834.56	1314.5
1835.57	1296
1836.57	1301
1837.58	1278
1838.58	1310.5
1839.59	1294.5
1840.59	1306.5
1841.59	1272.5
1842.6	1311.5
1843.6	1287
1844.61	1284
1845.61	1275.5
1846.61	1295
1847.62	1282
1848.62	1265.5
1849.62	1278.5
1850.63	1281
1851.63	1266
1852.63	1271.5
1853.64	1268.5
1854.64	1272.5
1855.64	1250
1856.64	1288.5
1857.64	1253.5
1858.65	1271
1859.65	1238.5
1860.65	1256.5
1861.65	1267
1862.65	1237.5
1863.65	1245
1864.65	1258.5
1865.65	1254.5
1866.65	1248
1867.65	1235.5
1868.65	1240.5
1869.65	1233.5
1870.65	1225.5
1871.65	1243
1872.65	1229
1873.65	1240
1874.65	1238
1875.65	1237
1876.65	1223
1877.65	1226
1878.65	1233
1879.65	1207
1880.65	1235
1881.64	1228
1882.64	1227.5
1883.64	1193
1884.64	1211
1885.63	1217.5
1886.63	1186
1887.63	1218
1888.63	1200.5
1889.62	1211.5
1890.62	1217.5
1891.62	1186
1892.61	1206.5
1893.61	1199.5
1894.61	1221
1895.6	1197
1896.6	1172.5
1897.59	1212
1898.59	1174.5
1899.58	1195.5
1900.58	1201.5
1901.57	1192.5
1902.57	1197.5
1903.56	1210.5
1904.56	1197.5
1905.55	1211
1906.55	1181
1907.54	1197.5
1908.54	1180.5
1909.53	1178.5
1910.52	1179.5
1911.52	1201
1912.51	1155
1913.5	1186
1914.5	1157
1915.49	1181.5
1916.48	1179.5
1917.48	1176
1918.47	1168
1919.46	1150.5
1920.45	1152
1921.44	1162.5
1922.44	1170
1923.43	1163
1924.42	1175
1925.41	1145
1926.4	1161
1927.39	1177.5
1928.38	1151.5
1929.38	1173.5
1930.37	1153.5
1931.36	1149
1932.35	1182.5
1933.34	1131
1934.33	1154
1935.32	1161.5
1936.31	1159.5
1937.3	1157.5
1938.29	1159
1939.28	1136
1940.26	1155.5
1941.25	1147
1942.24	1155
1943.23	1142.5
1944.22	1155.5
1945.21	1125.5
1946.2	1135
1947.18	1136
1948.17	1141
1949.16	1129
1950.15	1120.75
1951.13	1109.5
1952.12	1130.5
1953.11	1128.5
1954.1	1129.5
1955.08	1121.5
1956.07	1119
1957.06	1118
1958.04	1119.5
1959.03	1105
1960.01	1133
1961	1113
1961.99	1111.5
1962.97	1118.5
1963.96	1120
1964.94	1100.5
1965.93	1119.5
1966.91	1102
1967.9	1102.5
1968.88	1094
1969.87	1102
1970.85	1080
1971.84	1118.5
1972.82	1096
1973.81	1101.5
1974.79	1120.5
1975.77	1119.5
1976.76	1062
1977.74	1077.5
1978.72	1098
1979.71	1074.5
1980.69	1086
1981.67	1074
1982.65	1086
1983.64	1090
1984.62	1085.5
1985.6	1098.5
1986.58	1092
1987.56	1080.5
1988.55	1103.5
1989.53	1075
1990.51	1072
1991.49	1073.5
1992.47	1076.5
1993.45	1063
1994.43	1084
1995.41	1068.5
1996.39	1059
1997.37	1062.5
1998.36	1066
1999.34	1049.5
2000.31	1057.5
2001.29	1052.5
2002.27	1071
2003.25	1056
2004.23	1057
2005.21	1032.5
2006.19	1059.5
2007.17	1074
2008.15	1064.5
2009.13	1046
2010.11	1049.5
2011.08	1063
2012.06	1060.5
2013.04	1041
2014.02	1040.5
2015	1042
2015.97	1052.5
2016.95	1034
2017.93	1055
2018.91	1027.5
2019.88	1038.5
2020.86	1038
2021.83	1018
2022.81	1024
2023.79	1043
2024.76	1048.5
2025.74	1032.5
2026.72	1038
2027.69	1035.5
2028.67	1044
2029.64	1014.5
2030.62	1022.5
2031.59	1028.5
2032.57	1033.5
2033.54	1029.5
2034.52	1009
2035.49	1031
2036.47	1014.5
2037.44	1009
2038.41	1015
2039.39	1015
2040.36	1022.5
2041.34	1009
2042.31	1002
2043.28	984.5
2044.26	1004.5
2045.23	1033.5
2046.2	1009
2047.17	1008.5
2048.15	983
2049.12	986.5
2050.09	1020.5
2051.06	979.5
2052.04	985
2053.01	985.5
2053.98	984.5
2054.95	986
2055.92	975.5
2056.89	995.5
2057.86	985
2058.84	997
2059.81	982
2060.78	1005
2061.75	980
2062.72	995.5
2063.69	979.5
2064.66	966
2065.63	986.5
2066.6	969
2067.57	991
2068.54	982
2069.51	991
2070.48	982.5
2071.44	982
2072.41	985
2073.38	985
2074.35	980
2075.32	970
2076.29	982
2077.26	976.5
2078.22	987.5
2079.19	959
2080.16	975
2081.13	954
2082.09	955.5
2083.06	959
2084.03	979
2085	968
2085.96	947.5
2086.93	965
2087.9	969.5
2088.86	949.5
2089.83	958
2090.79	975
2091.76	965
2092.73	968.5
2093.69	940
2094.66	957.5
2095.62	963.5
2096.59	956
2097.55	941
2098.52	950.5
2099.48	951
2100.45	945.5
2101.41	956
2102.38	965.5
2103.34	975
2104.3	970
2105.27	974
2106.23	967
2107.19	991.5
2108.16	978.5
2109.12	974
2110.08	981.5
2111.05	1005.5
2112.01	992
2112.97	1006.5
2113.94	1008
2114.9	1030.5
2115.86	1039
2116.82	1055
2117.78	1049
2118.75	1046
2119.71	1061
2120.67	1060
2121.63	1069
2122.59	1092.5
2123.55	1109.5
2124.51	1090
2125.47	1111
2126.43	1136.5
2127.4	1149.5
2128.36	1132.5
2129.32	1161.5
2130.28	1158.5
2131.24	1141
2132.2	1146
2133.16	1137
2134.11	1144
2135.07	1150
2136.03	1131.5
2136.99	1132.5
2137.95	1101
2138.91	1107
2139.87	1075
2140.83	1073
2141.78	1065.5
2142.74	1068.5
2143.7	1025
2144.66	1078
2145.62	1067.17
2146.57	1062.48
2147.53	1018.39
2148.49	1032.25
2149.45	1012.01
2150.4	1027.25
2151.36	1001.4
2152.32	1024.6
2153.27	993.745
2154.23	1002.54
2155.19	987.224
2156.14	988.185
2157.1	985.259
2158.05	988.379
2159.01	976.899
2159.96	967.795
2160.92	963.422
2161.88	965.037
2162.83	948.962
2163.78	955.447
2164.74	954.875
2165.69	955.404
2166.65	937.775
2167.6	926.609
2168.56	924.635
2169.51	925.26
2170.47	919.025
2171.42	917.641
2172.37	917.849
2173.33	885.595
2174.28	917.081
2175.23	907.051
2176.19	901.591
2177.14	891.453
2178.09	907.817
2179.04	884.118
2180	879.308
2180.95	870.936
2181.9	879.602
2182.85	876.266
2183.81	863.195
2184.76	856.002
2185.71	863.581
2186.66	847.091
2187.61	844.161
2188.56	840.661
2189.51	839.629
2190.46	840.032
2191.42	834.127
2192.37	842.978
2193.32	826.94
2194.27	832.383
2195.22	814.723
2196.17	818.308
2197.12	825.068
2198.07	819.703
2199.02	811.524
2199.97	812.564
2200.92	804.296
2201.86	814.227
2202.81	815.561
2203.76	812.321
2204.71	815.446
2205.66	806.139
2206.61	804.073
2207.56	799.78
2208.5	803.075
2209.45	796.657
2210.4	805.161
2211.35	795.377
2212.3	797.4
2213.24	798.147
2214.19	798.151
2215.14	798.458
2216.08	788.03
2217.03	788.357
2217.98	789.129
2218.92	791.468
2219.87	782.738
2220.82	784.835
2221.76	784.377
2222.71	777.793
2223.65	783.734
2224.6	783.444
2225.55	770.054
2226.49	783.681
2227.44	785.93
2228.38	784.029
2229.33	786.361
2230.27	795.858
2231.22	780.812
2232.16	776.385
2233.11	787.134
2234.05	778.274
2234.99	779.037
2235.94	786.263
2236.88	776.277
2237.83	768.389
2238.77	773.495
2239.71	780.042
2240.66	771.06
2241.6	772.535
2242.06	786.5
2243.01	796
2243.96	802
2244.91	799.5
2245.85	815.5
2246.8	810
2247.75	806.5
2248.7	801.5
2249.64	793
2250.59	775.5
2251.54	784.5
2252.48	794
2253.43	787.5
2254.38	784.5
2255.32	780
2256.27	769
2257.21	761
2258.16	759.5
2259.1	765.5
2260.05	737
2260.99	770
2261.94	746.5
2262.89	740.5
2263.83	730.5
2264.77	726
2265.72	739.5
2266.66	728
2267.61	728
2268.55	735
2269.5	722.5
2270.44	735
2271.38	751.5
2272.33	719.5
2273.27	736
2274.21	743.5
2275.16	724
2276.1	727.5
2277.04	725
2277.98	726
2278.93	738
2279.87	712
2280.81	719
2281.75	731
2282.7	696
2283.64	718
2284.58	729.5
2285.52	717.5
2286.46	714
2287.4	691
2288.34	712.5
2289.29	713
2290.23	716
2291.17	699
2292.11	702
2293.05	704
2293.99	702
2294.93	706
2295.87	714.5
2296.81	693
2297.75	698
2298.69	695
2299.63	691
2300.57	717
2301.51	697
2302.44	705
2303.38	687
2304.32	698.5
2305.26	698.5
2306.2	706
2307.14	682
2308.08	691
2309.01	689
2309.95	672
2310.89	689.5
2311.83	677.5
2312.77	693.5
2313.7	691
2314.64	689.5
2315.58	685
2316.51	678
2317.45	684.5
2318.39	672.5
2319.32	671
2320.26	678.5
2321.2	678
2322.13	686.5
2323.07	685.5
2324	701
2324.94	686.5
2325.88	656
2326.81	670
2327.75	688
2328.68	665.5
2329.62	670.5
2330.55	663.5
2331.49	683
2332.42	672
2333.35	663.5
2334.29	679
2335.22	678.5
2336.16	676.5
2337.09	666.5
2338.02	655
2338.96	657
2339.89	675
2340.82	645.5
2341.76	664
2342.69	665.5
2343.62	654
2344.56	670.5
2345.49	660.5
2346.42	677
2347.35	662.5
2348.29	670
2349.22	665
2350.15	659
2351.08	648
2352.01	654.5
2352.94	673
2353.88	657.5
2354.81	649.5
2355.74	661.5
2356.67	664.5
2357.6	663.5
2358.53	653.5
2359.46	652
2360.39	670
2361.32	650.5
2362.25	645.5
2363.18	665.5
2364.11	650.5
2365.04	649.5
2365.97	652
2366.9	650
2367.83	663
2368.76	651
2369.69	639
2370.62	640.5
2371.55	653
2372.47	638.5
2373.4	640
2374.33	633
2375.26	659.5
2376.19	639
2377.11	645.5
2378.04	650.5
2378.97	631
2379.9	639
2380.83	642.5
2381.75	641
2382.68	636
2383.61	634
2384.53	625
2385.46	633
2386.39	631
2387.31	617
2388.24	626
2389.17	632.5
2390.09	633
2391.02	625.5
2391.94	626.5
2392.87	631
2393.79	639.5
2394.72	637
2395.64	626
2396.57	604
2397.49	625.5
2398.42	619
2399.34	614.5
2400.27	626
2401.19	624.5
2402.12	623.5
2403.04	612
2403.96	623
2404.89	607
2405.81	624
2406.74	627.5
2407.66	624
2408.58	614
2409.51	627.5
2410.43	617
2411.35	629.5
2412.27	620
2413.2	609.5
2414.12	617.5
2415.04	623.5
2415.96	585.5
2416.89	614
2417.81	604.5
2418.73	604
2419.65	603
2420.57	606
2421.49	610
2422.41	595.5
2423.34	606.5
2424.26	611
2425.18	601.5
2426.1	606
2427.02	613
2427.94	598
2428.86	597.5
2429.78	614
2430.7	605.5
2431.62	592
2432.54	597.5
2433.46	604.5
2434.38	566
2435.3	595.5
2436.22	596
2437.13	593
2438.05	589.5
2438.97	594.5
2439.89	602
2440.81	600.5
2441.73	584
2442.65	580.5
2443.56	598.5
2444.48	591
2445.4	579
2446.32	588
2447.24	572.5
2448.15	592
2449.07	591
2449.99	579.5
2450.9	599
2451.82	578.5
2452.74	577.5
2453.65	585
2454.57	575
2455.49	596
2456.4	567.5
2457.32	577.5
2458.23	585.5
2459.15	579
2460.07	594.5
2460.98	574
2461.9	566.5
2462.81	579
2463.73	580.5
2464.64	590
2465.56	589
2466.47	580
2467.39	577.5
2468.3	580.5
2469.21	574
2470.13	574
2471.04	582.5
2471.96	571
2472.87	565
2473.78	575
2474.7	565
2475.61	569
2476.52	563
2477.44	574.5
2478.35	575.5
2479.26	572.5
2480.17	568.5
2481.09	573.5
2482	574
2482.91	558.5
2483.82	560
2484.74	573.5
2485.65	560
2486.56	563.5
2487.47	559.5
2488.38	565
2489.29	562
2490.21	565
2491.12	571
2492.03	560
2492.94	552
2493.85	550
2494.76	566
2495.67	551.5
2496.58	539
2497.49	555.5
2498.4	551
2499.31	542
2500.22	556.5
2501.13	562.5
2502.04	554
2502.95	558.5
2503.86	573
2504.76	544
2505.67	553.5
2506.58	548
2507.49	544
2508.4	538
2509.31	524.5
2510.22	546.5
2511.12	551.5
2512.03	536.5
2512.94	531
2513.85	532.5
2514.76	553.5
2515.66	546
2516.57	555
2517.48	556
2518.38	537
2519.29	529.5
2520.2	545
2521.1	537
2522.01	547
2522.92	531.5
2523.82	539.5
2524.73	536.5
2525.64	531
2526.54	542.5
2527.45	542.5
2528.35	540
2529.26	533
2530.16	534
2531.07	519
2531.97	542.5
2532.88	529.5
2533.78	539.5
2534.69	526.5
2535.59	529.5
2536.5	520
2537.4	520.5
2538.31	527
2539.21	544
2540.11	529.5
2541.02	500.5
2541.92	527
2542.82	527
2543.73	523
2544.63	532
2545.53	521.5
2546.44	531
2547.34	518
2548.24	523.5
2549.14	520
2550.05	515.5
2550.95	515
2551.85	509
2552.75	523
2553.65	524.5
2554.56	507.5
2555.46	527.5
2556.36	509
2557.26	523
2558.16	504.5
2559.06	522.5
2559.96	507.5
2560.86	515
2561.76	512.5
2562.67	507
2563.57	505.5
2564.47	506
2565.37	519
2566.27	504
2567.17	500
2568.06	522.5
2568.96	525
2569.86	506
2570.76	516.5
2571.66	510.5
2572.56	509
2573.46	504
2574.36	506
2575.26	509
2576.16	499.5
2577.05	497
2577.95	496
2578.85	499
2579.75	513.5
2580.65	495.5
2581.54	489
2582.44	510.5
2583.34	493.5
2584.24	514.5
2585.13	509.5
2586.03	500
2586.93	489.5
2587.83	498.5
2588.72	488.5
2589.62	481.5
2590.51	497.5
2591.41	492
2592.31	494
2593.2	492.5
2594.1	499
2594.99	488.5
2595.89	484.5
2596.79	486
2597.68	497.5
2598.58	495.5
2599.47	496.5
2600.37	501.5
2601.26	479.5
2602.16	493
2603.05	494
2603.94	491
2604.84	486
2605.73	481.5
2606.63	471.5
2607.52	496
2608.42	496
2609.31	480.5
2610.2	478.5
2611.1	483.5
2611.99	455
2612.88	477.5
2613.78	484.5
2614.67	473
2615.56	486
2616.45	473
2617.35	465
2618.24	480
2619.13	473
2620.02	473
2620.91	472.5
2621.81	469
2622.7	468.5
2623.59	472
2624.48	473.5
2625.37	464.5
2626.26	482
2627.15	460.5
2628.04	468.5
2628.94	469
2629.83	467
2630.72	464.5
2631.61	476
2632.5	473.5
2633.39	468
2634.28	448.5
2635.17	472.5
2636.06	467
2636.95	463
2637.84	449
2638.73	461.5
2639.61	443.5
2640.5	440.5
2641.39	473.5
2642.28	464
2643.17	459.5
2644.06	457
2644.95	458
2645.84	456.5
2646.72	453.5
2647.61	452.5
2648.5	456.5
2649.39	447.5
2650.28	447
2651.16	446.5
2652.05	449.5
2652.94	442
2653.82	457
2654.71	461
2655.6	462.5
2656.49	445
2657.37	461
2658.26	459.5
2659.14	463.5
2660.03	450
2660.92	448
2661.8	455.5
2662.69	433
2663.57	443.5
2664.46	441
2665.35	440.5
2666.23	422
2667.12	432
2668	438
2668.89	446.5
2669.77	435
2670.66	440.5
2671.54	448.5
2672.42	448.5
2673.31	435
2674.19	453
2675.08	449.5
2675.96	451
2676.84	445
2677.73	448
2678.61	443
2679.49	449
2680.38	437
2681.26	443.5
2682.14	427.5
2683.03	429
2683.91	436
2684.79	447.5
2685.68	446
2686.56	442.5
2687.44	427.5
2688.32	436.5
2689.2	437
2690.09	425.5
2690.97	435.5
2691.85	416.5
2692.73	427
2693.61	417.5
2694.49	429
2695.37	423
2696.25	433
2697.14	444.5
2698.02	414
2698.9	428.5
2699.78	417.5
2700.66	428.5
2701.54	426
2702.42	433
2703.3	420
2704.18	423
2705.06	431
2705.94	424
2706.82	437.5
2707.7	434.5
2708.57	424.5
2709.45	427
2710.33	422
2711.21	436
2712.09	422
2712.97	412
2713.85	410.5
2714.72	423
2715.6	424
2716.48	426
2717.36	424
2718.24	422
2719.11	418
2719.99	416
2720.87	424
2721.75	416
2722.62	429.5
2723.5	415.5
2724.38	431.5
2725.25	418
2726.13	410.5
2727.01	426
2727.88	420
2728.76	430.5
2729.63	417
2730.51	400.5
2731.39	416
2732.26	404
2733.14	416
2734.01	397
2734.89	403
2735.76	406
2736.64	412
2737.51	403
2738.39	416.5
2739.26	404
2740.14	389.5
2741.01	411.5
2741.89	402
2742.76	399
2743.63	405.5
2744.51	402.5
2745.38	391.5
2746.26	410
2747.13	403.5
2748	404.5
2748.88	399
2749.75	389
2750.62	410.5
2751.5	395
2752.37	407.5
2753.24	415
2754.11	394
2754.99	374
2755.86	387
2756.73	389.5
2757.6	406
2758.47	399
2759.35	403
2760.22	393
2761.09	394
2761.96	390
2762.83	388.5
2763.7	411
2764.57	395.5
2765.44	393
2766.32	395
2767.19	398
2768.06	392.5
2768.93	388
2769.8	379
2770.67	380
2771.54	384
2772.41	372.5
2773.28	379
2774.15	391.5
2775.02	395
2775.89	383.5
2776.75	393.5
2777.62	391
2778.49	383
2779.36	385.5
2780.23	390
2781.1	389
2781.97	377
2782.84	383.5
2783.7	382.5
2784.57	383.5
2785.44	384.5
2786.31	379
2787.18	377.5
2788.04	392
2788.91	364
2789.78	375
2790.64	372.5
2791.51	388.5
2792.38	370.5
2793.24	382
2794.11	376.5
2794.98	378
2795.85	370
2796.71	385.5
2797.58	385.5
2798.44	374.5
2799.31	369.5
2800.18	377
2801.04	370
2801.91	380.5
2802.77	362.5
2803.64	365.5
2804.5	361
2805.37	356
2806.23	378.5
2807.1	373.5
2807.96	367
2808.83	376.5
2809.69	366
2810.55	371
2811.42	363
2812.28	367
2813.15	364.5
2814.01	371
2814.88	373
2815.74	366
2816.6	353.5
2817.46	361
2818.33	374.5
2819.19	366
2820.05	364
2820.92	367.5
2821.78	376.5
2822.64	379
2823.51	367.5
2824.37	362.5
2825.23	359
2826.09	365
2826.95	361.5
2827.81	350.5
2828.68	361.5
2829.54	363.5
2830.4	358
2831.26	368.5
2832.12	356.5
2832.98	348
2833.84	354.5
2834.71	365
2835.57	349
2836.43	364.5
2837.29	373.5
2838.15	363.5
2839.01	357
2839.87	364.5
2840.73	359
2841.59	351
2842.45	358.5
2843.31	351.5
2844.17	353
2845.02	363
2845.88	356.5
2846.74	351
2847.6	367.5
2848.46	358
2849.32	367.5
2850.18	360
2851.04	360.5
2851.9	373.5
2852.75	358
2853.61	367
2854.47	370
2855.33	346
2856.19	357.5
2857.04	358.5
2857.9	355
2858.76	361.5
2859.61	366
2860.47	358.5
2861.33	358
2862.19	349.5
2863.04	360.5
2863.9	348
2864.76	368
2865.61	356
2866.47	364
2867.32	360
2868.18	354
2869.04	362
2869.89	363
2870.75	365
2871.6	356.5
2872.46	370
2873.31	367
2874.17	364.5
2875.02	361.5
2875.88	358.5
2876.73	366.5
2877.59	362.5
2878.44	355
2879.3	342
2880.15	370
2881	353.5
2881.86	363
2882.71	365
2883.57	365.5
2884.42	352
2885.27	343
2886.13	361
2886.98	364.5
2887.83	349.5
2888.69	342.5
2889.54	340
2890.39	363
2891.24	366.5
2892.1	356
2892.95	361.5
2893.8	351.5
2894.65	349
2895.51	355.5
2896.36	355
2897.21	364.5
2898.06	353.5
2898.91	357
2899.76	371.5
2900.62	361
2901.47	361
2902.32	366
2903.17	356
2904.02	365
2904.87	366.5
2905.72	369.5
2906.57	356
2907.42	356.5
2908.27	347
2909.12	364
2909.97	371.5
2910.82	368.5
2911.67	364
2912.52	372
2913.37	372
2914.22	361.5
2915.07	362.5
2915.92	356
2916.77	368
2917.62	367.5
2918.47	364
2919.31	366.5
2920.16	366.5
2921.01	363.5
2921.86	365.5
2922.71	353
2923.55	363.5
2924.4	372.5
2925.25	363.5
2926.1	381.5
2926.94	384.5
2927.79	387
2928.64	382
2929.49	373
2930.33	375.5
2931.18	381
2932.03	371
2932.87	374.5
2933.72	378.5
2934.57	376.5
2935.41	375
2936.26	364
2937.11	372
2937.95	375
2938.8	380
2939.64	377
2940.49	371.5
2941.33	383
2942.18	379
2943.02	369
2943.87	375.5
2944.71	361.5
2945.56	364
2946.4	345
2947.25	356
2948.09	366.5
2948.94	357.5
2949.78	365
2950.63	357
2951.47	349.5
2952.31	346.5
2953.16	351.5
2954	345
2954.84	337
2955.69	339
2956.53	341
2957.37	338
2958.22	335
2959.06	329.5
2959.9	334.5
2960.75	320
2961.59	336
2962.43	328.5
2963.27	332
2964.11	316
2964.96	327
2965.8	330.5
2966.64	315
2967.48	328
2968.32	326
2969.16	317.5
2970.01	313
2970.85	323
2971.69	323
2972.53	319
2973.37	324
2974.21	317.5
2975.05	314
2975.89	315.5
2976.73	312
2977.57	314.5
2978.41	311.5
2979.25	314.5
2980.09	316
2980.93	323
2981.77	309
2982.61	304
2983.45	309
2984.29	319.5
2985.13	310
2985.97	295
2986.81	304.5
2987.65	304
2988.49	307.5
2989.32	303.5
2990.16	299.5
2991	301
2991.84	306
2992.68	295
2993.51	291.5
2994.35	292.5
2995.19	306
2996.03	292
2996.86	281
2997.7	295
2998.54	293.5
2999.38	285.5
