#Acq. time (s)=	5
#Accumulations=	5
#Range (cm-¹)=	100...3000
#Windows=	3
#Autofocus=	Off
#AutoExposure=	Off
#Spike filter=	Multiple accum.
#Delay time (s)=	0
#Binning=	1
#Readout mode=	Signal
#DeNoise=	Off
#ICS correction=	Off
#Dark correction=	Off
#Inst. Process=	Off
#Instrument=	LabRAM HR Evol
#Detector=	Syncerity OE
#Objective=	x100_VIS_LWD
#Grating=	600 (500nm)
#ND Filter=	100%
#Laser=	633nm_Edge
#Hole=	100.021
#Range=	Visible
#Project=	Omar
#Sample=	chi
#Site=	f
#Title=	nsno
#Remark=	
#Date=	12.09.2023 17:49
#Acquired=	12.09.2023 17:49:15
101.026	3171.5
102.309	3136
103.592	3103
104.875	3125.5
106.158	3057.5
107.441	3066.5
108.723	3002.5
110.005	2958.5
111.289	2952
112.571	2893
113.852	2908.5
115.134	2927
116.415	2839.5
117.696	2871
118.976	2841
120.257	2824.5
121.537	2822.5
122.817	2794
124.097	2786
125.377	2777
126.656	2791.5
127.936	2737
129.215	2685
130.493	2696.5
131.772	2687
133.049	2686
134.327	2670
135.605	2615.5
136.883	2626.5
138.161	2579
139.438	2573
140.715	2565
141.992	2509.5
143.269	2502
144.545	2490
145.82	2481.5
147.096	2440.5
148.372	2407
149.648	2397.5
150.924	2406
152.199	2382
153.472	2366
154.747	2318
156.022	2320
157.296	2324.5
158.571	2301.5
159.843	2303.5
161.117	2262
162.391	2242
163.664	2254
164.937	2213
166.209	2255.5
167.482	2205.5
168.754	2241.5
170.025	2210
171.297	2217.5
172.569	2198
173.841	2153
175.111	2197
176.383	2178
177.654	2178.5
178.923	2163.5
180.194	2160
181.464	2163
182.733	2199
184.003	2150.5
185.273	2156
186.542	2189
187.811	2166
189.079	2128.5
190.348	2168.5
191.617	2178
192.884	2180.5
194.152	2182
195.419	2178.5
196.687	2180.5
197.955	2183.5
199.221	2194
200.489	2192.5
201.755	2208
203.022	2219.5
204.287	2228.5
205.554	2200
206.818	2203
208.085	2192
209.349	2205.5
210.615	2219
211.879	2207.5
213.144	2245
214.408	2216.5
215.673	2215.5
216.936	2246.5
218.201	2246.5
219.464	2252.5
220.728	2228
221.99	2278
223.253	2263.5
224.516	2242
225.778	2240
227.041	2259
228.303	2282.5
229.564	2250.5
230.826	2271.5
232.087	2251.5
233.348	2278.5
234.61	2267
235.87	2298
237.13	2289
238.391	2270.5
239.651	2307.5
240.91	2307
242.171	2305
243.43	2308
244.689	2302.5
245.949	2299.5
247.207	2285.5
248.465	2323
249.723	2300
250.983	2318
252.24	2332.5
253.498	2323
254.755	2330
256.013	2329
257.27	2327
258.526	2348.5
259.783	2332.5
261.039	2311
262.296	2366.5
263.552	2312
264.808	2305
266.063	2336.5
267.318	2283
268.573	2313.5
269.828	2358
271.084	2327
272.338	2341
273.592	2319
274.846	2339
276.1	2319.5
277.353	2332.5
278.607	2339
279.86	2358
281.113	2356.5
282.365	2361
283.619	2423.5
284.872	2353
286.124	2362.5
287.376	2356
288.627	2411
289.879	2398.5
291.13	2365.5
292.381	2420.5
293.632	2384
294.883	2396
296.133	2413.5
297.384	2409.5
298.634	2384
299.883	2402
301.133	2425
302.381	2404
303.63	2383
304.879	2393
306.128	2432
307.377	2405.5
308.625	2416
309.874	2417
311.122	2364
312.37	2386.5
313.617	2379
314.863	2421
316.111	2424.5
317.358	2358.5
318.604	2373
319.851	2368.5
321.098	2376
322.342	2364.5
323.588	2377.5
324.834	2369.5
326.08	2329.5
327.325	2365.5
328.569	2323
329.814	2321.5
331.059	2343.5
332.304	2335
333.548	2301
334.791	2309
336.035	2299.5
337.279	2296.5
338.521	2312.5
339.765	2296
341.008	2289
342.251	2304
343.492	2307
344.735	2292.5
345.977	2330.5
347.218	2281
348.46	2277
349.702	2289
350.942	2300.5
352.184	2274.5
353.425	2324
354.665	2316
355.905	2303
357.145	2259.5
358.385	2287.5
359.625	2298.5
360.864	2298
362.104	2307.5
363.342	2286
364.581	2301
365.819	2315.5
367.058	2297.5
368.296	2300.5
369.534	2296.5
370.771	2269
372.01	2269.5
373.246	2297
374.484	2320
375.72	2291
376.958	2296
378.194	2296.5
379.431	2304.5
380.666	2303
381.903	2278.5
383.138	2269
384.374	2266.5
385.609	2273
386.845	2268
388.079	2299
389.313	2275.5
390.548	2264
391.782	2266.5
393.016	2281
394.25	2281
395.483	2286
396.718	2300
397.95	2308.5
399.183	2247
400.416	2272
401.648	2330
402.88	2291
404.113	2342
405.345	2310
406.576	2339
407.807	2326.5
409.04	2364
410.27	2325.5
411.501	2349
412.731	2316
413.963	2358
415.193	2363.5
416.422	2366
417.652	2393.5
418.883	2326
420.112	2388.5
421.341	2360
422.569	2360
423.798	2361.5
425.028	2356
426.256	2389.5
427.484	2365
428.711	2389
429.939	2419.5
431.166	2374.5
432.394	2405.5
433.622	2376
434.849	2362.5
436.075	2402
437.302	2416.5
438.528	2402
439.754	2451
440.98	2434
442.205	2441.5
443.431	2394
444.656	2434
445.881	2417
447.106	2414.5
448.33	2421
449.555	2370
450.779	2394
452.003	2397
453.227	2411
454.45	2400
455.674	2425.5
456.897	2416.5
458.12	2413
459.343	2380.5
460.566	2402.5
461.788	2372
463.01	2408
464.232	2407
465.454	2394.5
466.676	2386
467.897	2401
469.119	2391.5
470.34	2417.5
471.559	2412.5
472.78	2409
474.001	2443.5
475.221	2373.5
476.441	2408.5
477.661	2417
478.879	2434.5
480.099	2415
481.318	2408
482.537	2414.5
483.756	2436.5
484.974	2408
486.192	2412
487.411	2414.5
488.629	2484.5
489.847	2432.5
491.063	2419
492.281	2442.5
493.498	2455
494.714	2425.5
495.931	2449
497.148	2416.5
498.365	2467.5
499.58	2487
500.796	2460.5
502.012	2439
503.226	2496
504.442	2475.5
505.657	2464
506.871	2490.5
508.086	2515
509.3	2495.5
510.515	2515
511.729	2458
512.942	2498.5
514.156	2507
515.369	2490
516.582	2482
517.796	2480.5
519.008	2489
520.221	2481
521.433	2471.5
522.645	2501
523.857	2484
525.069	2494
526.28	2510.5
527.492	2497.5
528.702	2509.5
529.914	2495
531.124	2500.5
532.335	2521.5
533.545	2509.5
534.756	2478.5
535.965	2475.5
537.175	2484.5
538.384	2483
539.593	2459.5
540.803	2459.5
542.011	2521
543.221	2505.5
544.429	2485.5
545.636	2463.5
546.845	2498.5
548.052	2451.5
549.261	2442
550.468	2508
551.675	2482.5
552.883	2466.5
554.089	2451.5
555.295	2477
556.503	2477
557.709	2485.5
558.914	2483
560.12	2490.5
561.326	2489.5
562.531	2478
563.736	2521
564.941	2488
566.147	2509
567.351	2488
568.555	2496
569.759	2560
570.964	2508
572.168	2456
573.371	2476.5
574.574	2525.5
575.777	2493
576.981	2538.5
578.184	2497.5
579.386	2496.5
580.588	2518
581.79	2539.5
582.992	2504.5
584.194	2530
585.395	2503
586.598	2528
587.799	2507.5
589	2522.5
590.201	2490
591.401	2506.5
592.601	2465.5
593.801	2524
595.001	2506
596.201	2521.5
597.401	2521
598.6	2570
599.799	2518
600.998	2528.5
602.197	2517
603.395	2535.5
604.594	2517
605.792	2564
606.99	2577.5
608.188	2538
609.386	2535.5
610.583	2559
611.78	2587
612.977	2574
614.174	2589.5
615.371	2577.5
616.566	2563.5
617.762	2585
618.958	2585.5
620.154	2614
621.35	2548.5
622.546	2570.5
623.741	2591.5
624.935	2570
626.13	2588.5
627.325	2644.5
628.519	2628
629.714	2648.5
630.908	2603.5
632.101	2641.5
633.295	2599
634.488	2649
635.682	2647.5
636.874	2636.5
638.067	2681
639.26	2607.5
640.453	2671
641.644	2653
642.836	2656
644.028	2664
645.219	2646.5
646.411	2683.5
647.602	2657.5
648.792	2630
649.984	2682.5
651.175	2615.5
652.364	2655
653.555	2655
654.745	2631.5
655.934	2642.5
657.124	2635.5
658.314	2609
659.503	2592
660.692	2622.5
661.88	2656
663.07	2613.5
664.257	2591
665.446	2629
666.635	2621
667.822	2646.5
669.01	2603.5
670.197	2617.5
671.384	2630
672.571	2627
673.758	2589
674.944	2629
676.131	2625
677.317	2592.5
678.502	2599.5
679.689	2587.5
680.874	2576.5
682.06	2606.5
683.245	2624
684.431	2601.5
685.615	2586.5
686.799	2586.5
687.984	2594.5
689.168	2593
690.353	2609
691.536	2591.5
692.719	2598
693.904	2608
695.086	2596
696.269	2572.5
697.453	2617
698.635	2618.5
699.817	2578.5
701	2582.5
702.182	2588.5
703.364	2603
704.545	2555
705.727	2598.5
706.908	2569.5
708.089	2573
709.27	2589.5
710.451	2601
711.632	2583
712.812	2606.5
713.991	2614
715.172	2593
716.352	2594
717.531	2569.5
718.71	2613.5
719.889	2574.5
721.068	2612.5
722.248	2588
723.426	2611
724.604	2634.5
725.782	2603.5
726.96	2614.5
728.138	2618.5
729.315	2621
730.492	2593.5
731.669	2618
732.846	2626.5
734.024	2595.5
735.201	2592.5
736.377	2625
737.553	2627
738.729	2609.5
739.905	2626
741.081	2606.5
742.256	2618.5
743.431	2603
744.606	2597
745.781	2624
746.956	2642.5
748.13	2579
749.303	2629
750.477	2605
751.651	2607.5
752.825	2586.5
753.999	2592
755.172	2604.5
756.345	2589
757.518	2570
758.691	2598.5
759.864	2609.5
761.035	2595
762.207	2607
763.379	2616.5
764.551	2590
765.723	2600.5
766.894	2566
768.064	2615.5
769.236	2617
770.407	2609
771.577	2600.5
772.748	2604
773.917	2596.5
775.088	2597.5
776.258	2547
777.427	2605
778.596	2621
779.765	2590
780.935	2620.5
782.104	2599.5
783.272	2603.5
784.44	2626.5
785.609	2593.5
786.776	2603.5
787.944	2617
789.113	2598.5
790.279	2590
791.447	2580
792.613	2576
793.78	2581
794.948	2617
796.113	2605
797.28	2618
798.445	2621
799.612	2604
800.778	2611.5
801.943	2594
803.109	2586
804.273	2606
805.439	2630
806.603	2622.5
807.768	2631.5
808.932	2663
810.096	2632.5
811.26	2639
812.424	2617.5
813.587	2672.5
814.751	2662
815.914	2675
817.078	2691
818.24	2668
819.402	2669.5
820.565	2675.5
821.727	2658.5
822.889	2693
824.051	2683
825.212	2675
826.374	2678
827.535	2664.5
828.697	2691
829.857	2670
831.018	2663
832.179	2661
833.339	2704.5
834.499	2693.5
835.659	2698.5
836.819	2676.5
837.978	2678
839.137	2714.5
840.297	2694
841.456	2679
842.614	2694
843.772	2690.5
844.932	2686.5
846.09	2700
847.247	2683.5
848.405	2687.5
849.562	2675
850.721	2654
851.878	2666
853.034	2712
854.191	2716
855.348	2736
856.504	2717.5
857.661	2708
858.817	2722
859.973	2724
861.129	2734
862.284	2703.5
863.439	2651
864.594	2674.5
865.749	2690
866.904	2685
868.058	2662.5
869.212	2690
870.367	2663.5
871.522	2655
872.676	2645
873.829	2684
874.983	2663
876.136	2636.5
877.289	2641.5
878.442	2643.5
879.593	2648
880.746	2648
881.898	2632
883.05	2627
884.202	2632.5
885.354	2620
886.506	2586
887.657	2608
888.808	2612.5
889.96	2594.5
891.11	2612
892.261	2598.5
893.41	2562.5
894.561	2573
895.711	2600.5
896.861	2604.5
898.011	2593.5
899.161	2580.5
900.309	2578.5
901.458	2647
902.607	2592
903.756	2608
904.904	2554.5
906.052	2575.5
907.201	2558.5
908.349	2536
909.496	2528
910.644	2573
911.791	2584.5
912.939	2543
914.085	2553.5
915.232	2538
916.379	2565.5
917.525	2543.5
918.671	2586.5
919.818	2557.5
920.963	2547
922.109	2569.5
923.255	2598.5
924.399	2548
925.545	2568
926.689	2563.5
927.834	2579
928.979	2555.5
930.123	2574.5
931.268	2551.5
932.411	2592
933.555	2538
934.698	2566
935.842	2539
936.985	2573
938.128	2572.5
939.271	2573.5
940.414	2583.5
941.556	2534.5
942.699	2605
943.84	2578
944.983	2549.5
946.124	2598
947.266	2565
948.407	2546
949.547	2580
950.689	2568
951.829	2594
952.971	2551
954.111	2589.5
955.25	2527.5
956.391	2603
957.531	2590.5
958.67	2580
959.81	2597
960.949	2570
962.088	2595.5
963.227	2577
964.366	2557.5
965.504	2606
966.643	2586
967.781	2593.5
968.919	2607
970.056	2606.5
971.195	2592.25
972.332	2578
973.469	2602
974.605	2588.5
975.743	2571.5
976.88	2587.5
978.016	2624
979.152	2555
980.288	2574
981.423	2581
982.56	2628.5
983.696	2588
984.831	2607.5
985.966	2587.5
987.101	2606
988.235	2588.5
989.37	2593
990.504	2580
991.638	2590.5
992.773	2609
993.907	2591
995.041	2635.5
996.174	2640.5
997.307	2588.5
998.44	2667.5
999.573	2665.5
1000.71	2681.5
1001.84	2668
1002.97	2639
1004.1	2621.5
1005.24	2592.5
1006.37	2572
1007.5	2545.5
1008.63	2576.5
1009.76	2559.5
1010.89	2548
1012.02	2529
1013.15	2575.5
1014.28	2569
1015.41	2562.5
1016.54	2574
1017.67	2575.5
1018.8	2563.5
1019.93	2557
1021.06	2536.5
1022.19	2560.5
1023.32	2562.5
1024.45	2567.5
1025.58	2559
1026.71	2577
1027.84	2620
1028.96	2562
1030.09	2579
1031.22	2586
1032.35	2567.5
1033.47	2572.5
1034.6	2576
1035.73	2606.5
1036.86	2592.5
1037.98	2585
1039.11	2568.5
1040.23	2595
1041.36	2602
1042.49	2590.5
1043.61	2614
1044.74	2611
1045.86	2624.5
1046.99	2606
1048.11	2609
1049.24	2622.5
1050.36	2616
1051.49	2630
1052.61	2600
1053.74	2668.5
1054.86	2602.5
1055.98	2612
1057.11	2596
1058.23	2629
1059.35	2620.5
1060.48	2593
1061.6	2601.5
1062.72	2613.5
1063.84	2590.5
1064.97	2569.5
1066.09	2597.5
1067.21	2590
1068.33	2578
1069.45	2585.5
1070.57	2596.5
1071.7	2620
1072.82	2614.5
1073.94	2615
1075.06	2618
1076.18	2597.5
1077.3	2586
1078.42	2585.5
1079.54	2565
1080.66	2566
1081.78	2570
1082.9	2582
1084.02	2543
1085.14	2552.5
1086.25	2570.5
1087.37	2558
1088.49	2556.5
1089.61	2578.5
1090.73	2551.5
1091.84	2542
1092.96	2552
1094.08	2554.5
1095.2	2551.5
1096.31	2533
1097.43	2546
1098.55	2541
1099.66	2542.5
1100.78	2526
1101.9	2535
1103.01	2555
1104.13	2571.5
1105.25	2517
1106.36	2503.5
1107.48	2534
1108.59	2529.5
1109.71	2507.5
1110.82	2537
1111.93	2516
1113.05	2521
1114.16	2554
1115.28	2536
1116.39	2564.5
1117.51	2556.5
1118.62	2519
1119.73	2537
1120.85	2531
1121.96	2526.5
1123.07	2516
1124.18	2537.5
1125.3	2527.5
1126.41	2516
1127.52	2521.5
1128.63	2537.5
1129.74	2545
1130.85	2501
1131.97	2523.5
1133.08	2529
1134.19	2577.5
1135.3	2534.5
1136.41	2537.5
1137.52	2545.5
1138.63	2531
1139.74	2525.5
1140.85	2546.5
1141.96	2568
1143.07	2507
1144.18	2556.5
1145.29	2557
1146.4	2579
1147.51	2597.5
1148.61	2592
1149.72	2552
1150.83	2602
1151.94	2626
1153.05	2617.5
1154.15	2627
1155.26	2619
1156.37	2647.5
1157.48	2637.5
1158.58	2621
1159.69	2628
1160.8	2621.5
1161.9	2622.5
1163.01	2641.5
1164.11	2624.5
1165.22	2657
1166.33	2651.5
1167.43	2667
1168.54	2658
1169.64	2705
1170.75	2656.5
1171.85	2635
1172.96	2627.5
1174.06	2655.5
1175.17	2688
1176.27	2639
1177.37	2647.5
1178.48	2611.5
1179.58	2629
1180.68	2619.5
1181.79	2591
1182.89	2605.5
1183.99	2595
1185.1	2594
1186.2	2586.5
1187.3	2576
1188.4	2586
1189.5	2602
1190.61	2588.5
1191.71	2552.5
1192.81	2602.5
1193.91	2574
1195.01	2563
1196.11	2578.19
1197.21	2588.9
1198.31	2578.24
1199.42	2572.61
1200.51	2593.98
1201.61	2558.05
1202.72	2627.97
1203.81	2576.05
1204.91	2582.08
1206.01	2563.35
1207.11	2620.21
1208.21	2588.67
1209.31	2575.35
1210.41	2595.36
1211.51	2589.76
1212.61	2583.79
1213.7	2577.83
1214.8	2551.76
1215.9	2554.78
1217	2557.61
1218.09	2563.08
1219.19	2570.7
1220.29	2533.37
1221.38	2543.3
1222.48	2579.56
1223.58	2570.68
1224.67	2553.38
1225.77	2589.97
1226.87	2582.73
1227.96	2558.41
1229.06	2568.71
1230.15	2544.16
1231.25	2562.13
1232.34	2585.48
1233.44	2577.93
1234.53	2558.64
1235.63	2565.55
1236.72	2582.98
1237.81	2577.03
1238.91	2568.2
1240	2573.37
1241.1	2573.96
1242.19	2583.67
1243.28	2590.14
1244.38	2603.03
1245.47	2598.47
1246.56	2598.28
1247.65	2594.73
1248.75	2593.1
1249.84	2597.3
1250.93	2613.18
1252.02	2605.22
1253.11	2596.87
1254.21	2632.26
1255.3	2638.71
1256.39	2623.96
1257.48	2622.19
1258.57	2624.3
1259.66	2625.74
1260.75	2627.64
1261.84	2626.95
1262.93	2632.24
1264.02	2633.49
1265.11	2633.98
1266.2	2679.42
1267.29	2655.83
1268.38	2650.67
1269.47	2651.58
1270.56	2653.28
1271.65	2651.35
1272.73	2663.32
1273.82	2671.71
1274.91	2657.22
1276	2658.28
1277.09	2677.46
1278.17	2663.12
1279.26	2653.63
1280.35	2685.31
1281.43	2661.15
1282.52	2675.92
1283.61	2698.83
1284.69	2690.06
1285.78	2683.05
1286.87	2675.39
1287.95	2664.05
1289.04	2690
1290.13	2688.32
1291.21	2672.98
1292.3	2675.46
1293.38	2687.22
1294.47	2707.22
1295.55	2663.77
1296.64	2693.46
1297.72	2691.22
1298.8	2703.77
1299.89	2687.57
1300.97	2710.21
1302.06	2694.11
1303.14	2666.33
1304.22	2670.71
1305.31	2692
1306.39	2656.83
1307.34	2674
1308.43	2688.5
1309.52	2671
1310.6	2662.5
1311.69	2697
1312.78	2719
1313.87	2661
1314.96	2668.5
1316.04	2634
1317.13	2649
1318.21	2641.5
1319.3	2682.5
1320.39	2631
1321.47	2628
1322.56	2672
1323.65	2613.5
1324.73	2608.5
1325.82	2617.5
1326.9	2648
1327.99	2671
1329.07	2644.5
1330.16	2646
1331.24	2667
1332.32	2649.5
1333.41	2659.5
1334.49	2630
1335.58	2656.5
1336.66	2670.5
1337.74	2646
1338.83	2635.5
1339.91	2627
1340.99	2641.5
1342.08	2629.5
1343.16	2645.5
1344.24	2609
1345.32	2583
1346.41	2622
1347.49	2613
1348.57	2616
1349.65	2577
1350.73	2576
1351.81	2569
1352.9	2541
1353.98	2547.5
1355.06	2544
1356.14	2550.5
1357.22	2554.5
1358.3	2565
1359.38	2543.5
1360.46	2531
1361.54	2509.5
1362.62	2506.5
1363.7	2534
1364.78	2579
1365.85	2529.5
1366.93	2560.5
1368.01	2505
1369.09	2485
1370.17	2524.5
1371.25	2541.5
1372.33	2519.5
1373.4	2517.5
1374.48	2502.5
1375.56	2495.5
1376.64	2477
1377.71	2506.5
1378.79	2520
1379.87	2493
1380.94	2529
1382.02	2516
1383.1	2477.5
1384.17	2529.5
1385.25	2496.5
1386.32	2472.5
1387.4	2514.5
1388.47	2513.5
1389.55	2468
1390.63	2513
1391.7	2529
1392.77	2448.5
1393.85	2449.5
1394.92	2509.5
1396	2460.5
1397.07	2476
1398.15	2488.5
1399.22	2509
1400.29	2460
1401.37	2496
1402.44	2486
1403.51	2482.5
1404.59	2491
1405.66	2460.5
1406.73	2495.5
1407.8	2484.5
1408.87	2470.5
1409.95	2499.5
1411.02	2490.5
1412.09	2458.5
1413.16	2490.5
1414.23	2467.5
1415.3	2472.5
1416.38	2461.5
1417.45	2457.5
1418.52	2498
1419.59	2496.5
1420.66	2473
1421.73	2456
1422.8	2491
1423.87	2486
1424.94	2488
1426.01	2481
1427.08	2461.5
1428.15	2475
1429.21	2478
1430.28	2473.5
1431.35	2474.5
1432.42	2482
1433.49	2462
1434.56	2476.5
1435.63	2462
1436.69	2478
1437.76	2466.5
1438.83	2503.5
1439.89	2468
1440.96	2542.5
1442.03	2495
1443.1	2513.5
1444.16	2482
1445.23	2486.5
1446.3	2517.5
1447.36	2526.5
1448.43	2464.5
1449.49	2477.5
1450.56	2497
1451.62	2497.5
1452.69	2491
1453.75	2478
1454.82	2513
1455.88	2466
1456.95	2456
1458.01	2453
1459.08	2505
1460.14	2492
1461.2	2511
1462.27	2526.5
1463.33	2437.5
1464.4	2539.5
1465.46	2502
1466.52	2510.5
1467.58	2482.5
1468.65	2498.5
1469.71	2470.5
1470.77	2471.5
1471.83	2514
1472.9	2475.5
1473.96	2459
1475.02	2475.5
1476.08	2486
1477.14	2508
1478.2	2517.5
1479.27	2496.5
1480.33	2449.5
1481.39	2513
1482.45	2531.5
1483.51	2488.5
1484.57	2464.5
1485.63	2505.5
1486.69	2506
1487.75	2479
1488.81	2501.5
1489.87	2494
1490.93	2489
1491.99	2466.5
1493.04	2464
1494.1	2486.5
1495.16	2502
1496.22	2488.5
1497.28	2497.5
1498.34	2488.5
1499.39	2471
1500.45	2468.5
1501.51	2496.5
1502.57	2470
1503.62	2483.5
1504.68	2471
1505.74	2489
1506.79	2465
1507.85	2461.5
1508.91	2470
1509.96	2517.5
1511.02	2469.5
1512.07	2448.5
1513.13	2437
1514.19	2464
1515.24	2461
1516.3	2476.5
1517.35	2488.5
1518.41	2457
1519.46	2491
1520.52	2420.5
1521.57	2472.5
1522.62	2494
1523.68	2480
1524.73	2463
1525.79	2443.5
1526.84	2450.5
1527.89	2470.5
1528.95	2481
1530	2480
1531.05	2483
1532.1	2466
1533.16	2497.5
1534.21	2510
1535.26	2488.5
1536.31	2493
1537.37	2517.5
1538.42	2459.5
1539.47	2447
1540.52	2452
1541.57	2465.5
1542.62	2464
1543.67	2427.5
1544.72	2496.5
1545.78	2483.5
1546.83	2494
1547.88	2453.5
1548.93	2467
1549.98	2472
1551.03	2493
1552.07	2463.5
1553.12	2458
1554.17	2480
1555.22	2463.5
1556.27	2462
1557.32	2465.5
1558.37	2446
1559.42	2436.5
1560.47	2449.5
1561.51	2424
1562.56	2453
1563.61	2433
1564.66	2484.5
1565.7	2442.5
1566.75	2461
1567.8	2444
1568.85	2467
1569.89	2468.5
1570.94	2435
1571.98	2436.5
1573.03	2458.5
1574.08	2440.5
1575.12	2451.5
1576.17	2485.5
1577.21	2434
1578.26	2441.5
1579.31	2476.5
1580.35	2471
1581.4	2453
1582.44	2439
1583.49	2449
1584.53	2453
1585.57	2446
1586.62	2468
1587.66	2459
1588.71	2458.5
1589.75	2459
1590.79	2472
1591.84	2456.5
1592.88	2446
1593.92	2459.5
1594.97	2480
1596.01	2483
1597.05	2461.5
1598.09	2433.5
1599.14	2467
1600.18	2421.5
1601.22	2432.5
1602.26	2442.5
1603.3	2440
1604.34	2380.5
1605.38	2371
1606.43	2359
1607.47	2323.5
1608.51	2310.5
1609.55	2324
1610.59	2285
1611.63	2270
1612.67	2264.5
1613.71	2233
1614.75	2251.5
1615.79	2208
1616.83	2196.5
1617.87	2189
1618.91	2174.5
1619.94	2157
1620.98	2157.5
1622.02	2141.5
1623.06	2081
1624.1	2095.5
1625.14	2107.5
1626.17	2071.5
1627.21	2082.5
1628.25	2064.5
1629.29	2047
1630.32	2064.5
1631.36	2041.5
1632.4	2065.5
1633.43	2030
1634.47	1981.5
1635.51	2002.5
1636.54	1962
1637.58	1971
1638.62	1945
1639.65	1976
1640.69	1943
1641.72	1936.5
1642.76	1951
1643.79	1931
1644.83	1942.5
1645.86	1887.5
1646.9	1850.5
1647.93	1881
1648.97	1871.5
1650	1876
1651.04	1885.5
1652.07	1872
1653.1	1854.5
1654.14	1844.5
1655.17	1834
1656.2	1842.5
1657.24	1806
1658.27	1790.5
1659.3	1812
1660.34	1756
1661.37	1777
1662.4	1760
1663.43	1748.5
1664.46	1763
1665.5	1751.5
1666.53	1737
1667.56	1730.5
1668.59	1706.5
1669.62	1720.5
1670.65	1711.5
1671.68	1696
1672.71	1695
1673.74	1700.5
1674.77	1678.5
1675.8	1683
1676.83	1693.5
1677.86	1667.5
1678.89	1651
1679.92	1630
1680.95	1633.5
1681.98	1669
1683.01	1639
1684.04	1644
1685.07	1630
1686.1	1625
1687.13	1634
1688.15	1618.5
1689.18	1594
1690.21	1615
1691.24	1613.5
1692.27	1603.5
1693.29	1571.5
1694.32	1592.5
1695.35	1594
1696.37	1574.5
1697.4	1555.5
1698.43	1570.5
1699.45	1585
1700.48	1590
1701.51	1570.5
1702.53	1577
1703.56	1579.5
1704.58	1564
1705.61	1549
1706.64	1554.5
1707.66	1529
1708.69	1565
1709.71	1536
1710.73	1547.5
1711.76	1550.5
1712.78	1549.5
1713.81	1517.5
1714.83	1547.5
1715.86	1517
1716.88	1532
1717.9	1548.5
1718.93	1488.5
1719.95	1530
1720.97	1525
1722	1511
1723.02	1520.5
1724.04	1517.5
1725.06	1500.5
1726.09	1484
1727.11	1502.5
1728.13	1522
1729.15	1488.5
1730.17	1496
1731.2	1480
1732.22	1456.5
1733.24	1455
1734.26	1449.5
1735.28	1461
1736.3	1472.5
1737.32	1462
1738.34	1467
1739.36	1481
1740.38	1461.5
1741.4	1451
1742.42	1449
1743.44	1448.5
1744.46	1437
1745.48	1469
1746.5	1431
1747.52	1406.5
1748.54	1437.5
1749.56	1425
1750.57	1442
1751.59	1436
1752.61	1427
1753.63	1433.5
1754.65	1412.5
1755.66	1406.5
1756.68	1401
1757.7	1405
1758.72	1380
1759.73	1411.5
1760.75	1402
1761.77	1392.5
1762.78	1379.5
1763.8	1387
1764.82	1392.5
1765.83	1367.5
1766.85	1394.5
1767.86	1373.5
1768.88	1373
1769.9	1373.5
1770.91	1372
1771.93	1347.5
1772.94	1351
1773.96	1367.5
1774.97	1346
1775.99	1367
1777	1355.5
1778.01	1368.5
1779.03	1358.5
1780.04	1332
1781.06	1361.5
1782.07	1348
1783.08	1316
1784.1	1355.5
1785.11	1343
1786.12	1331.5
1787.14	1333.5
1788.15	1345
1789.16	1336.5
1790.17	1315
1791.18	1317.5
1792.2	1333.5
1793.21	1320
1794.22	1282
1795.23	1318
1796.24	1287.5
1797.26	1297
1798.27	1301
1799.28	1316
1800.29	1318.5
1801.3	1298.5
1802.31	1329
1803.32	1302.5
1804.33	1297
1805.34	1303.5
1806.35	1282
1807.36	1293
1808.37	1281.5
1809.38	1279.5
1810.39	1272.5
1811.4	1282
1812.4	1253
1813.41	1272
1814.42	1285.5
1815.43	1275.5
1816.44	1277
1817.45	1264.5
1818.45	1259.5
1819.46	1249
1820.47	1258.5
1821.48	1249
1822.49	1257
1823.49	1254.5
1824.5	1269.5
1825.51	1252
1826.51	1245.5
1827.52	1244.5
1828.53	1243.5
1829.53	1242
1830.54	1234
1831.54	1235
1832.55	1232.5
1833.56	1245.5
1834.56	1256.5
1835.57	1232.5
1836.57	1231.5
1837.58	1234.5
1838.58	1214.5
1839.59	1214.5
1840.59	1214.5
1841.59	1203.5
1842.6	1203
1843.6	1224
1844.61	1207
1845.61	1192
1846.61	1202.5
1847.62	1190.5
1848.62	1214
1849.62	1192.5
1850.63	1182
1851.63	1197
1852.63	1199.5
1853.64	1178.5
1854.64	1186.5
1855.64	1155.5
1856.64	1165
1857.64	1193.5
1858.65	1170.5
1859.65	1193.5
1860.65	1182.5
1861.65	1179.5
1862.65	1165
1863.65	1177.5
1864.65	1184.5
1865.65	1175
1866.65	1177.5
1867.65	1172
1868.65	1180.5
1869.65	1149.5
1870.65	1177.5
1871.65	1157
1872.65	1181
1873.65	1152
1874.65	1144
1875.65	1157.5
1876.65	1188
1877.65	1159.5
1878.65	1148.5
1879.65	1164.5
1880.65	1164.5
1881.64	1174.5
1882.64	1145
1883.64	1154
1884.64	1147.5
1885.63	1137.5
1886.63	1151
1887.63	1137
1888.63	1134.5
1889.62	1138
1890.62	1145.5
1891.62	1135.5
1892.61	1133
1893.61	1138.5
1894.61	1127.5
1895.6	1130.5
1896.6	1117
1897.59	1145
1898.59	1127.5
1899.58	1123
1900.58	1121
1901.57	1132
1902.57	1133
1903.56	1153.5
1904.56	1135.5
1905.55	1131.5
1906.55	1122
1907.54	1137.5
1908.54	1111.5
1909.53	1115
1910.52	1095
1911.52	1116
1912.51	1103
1913.5	1108.5
1914.5	1115.5
1915.49	1090.5
1916.48	1080
1917.48	1103.5
1918.47	1102.5
1919.46	1088
1920.45	1112.5
1921.44	1102.5
1922.44	1112.5
1923.43	1108.5
1924.42	1107
1925.41	1076.5
1926.4	1114.5
1927.39	1099
1928.38	1084
1929.38	1084
1930.37	1088
1931.36	1079.5
1932.35	1083.5
1933.34	1066.5
1934.33	1063
1935.32	1083
1936.31	1093
1937.3	1068.5
1938.29	1075.5
1939.28	1092
1940.26	1069
1941.25	1084.5
1942.24	1073.5
1943.23	1080
1944.22	1073.5
1945.21	1081
1946.2	1061.5
1947.18	1078
1948.17	1074
1949.16	1072.5
1950.15	1061.25
1951.13	1049.5
1952.12	1044.5
1953.11	1058.5
1954.1	1067.5
1955.08	1059
1956.07	1045
1957.06	1059.5
1958.04	1031.5
1959.03	1050
1960.01	1045
1961	1043.5
1961.99	1022.5
1962.97	1011.5
1963.96	1020
1964.94	1028
1965.93	1028
1966.91	1018
1967.9	1029.5
1968.88	1003
1969.87	1031.5
1970.85	1034
1971.84	1033
1972.82	1015.5
1973.81	1037
1974.79	1005
1975.77	1033.5
1976.76	1031
1977.74	1014.5
1978.72	1013
1979.71	1012
1980.69	1015
1981.67	1007.5
1982.65	1002
1983.64	1000.5
1984.62	1005
1985.6	989
1986.58	1017.5
1987.56	1009
1988.55	993.5
1989.53	1008
1990.51	1001
1991.49	1001.5
1992.47	994
1993.45	1004.5
1994.43	983.5
1995.41	985
1996.39	1000
1997.37	967
1998.36	983.5
1999.34	1000.5
2000.31	996.5
2001.29	983
2002.27	991
2003.25	989.5
2004.23	977.5
2005.21	969.5
2006.19	970.5
2007.17	990.5
2008.15	991.5
2009.13	972.5
2010.11	960.5
2011.08	979.5
2012.06	969
2013.04	958
2014.02	999
2015	971
2015.97	973.5
2016.95	959.5
2017.93	941
2018.91	952
2019.88	980.5
2020.86	971.5
2021.83	958
2022.81	964
2023.79	962
2024.76	959
2025.74	953
2026.72	953
2027.69	956
2028.67	964.5
2029.64	939.5
2030.62	956
2031.59	960
2032.57	950
2033.54	951
2034.52	941
2035.49	957.5
2036.47	946.5
2037.44	949
2038.41	943.5
2039.39	933.5
2040.36	936.5
2041.34	936.5
2042.31	934
2043.28	930
2044.26	933.5
2045.23	935
2046.2	931.5
2047.17	948.5
2048.15	920.5
2049.12	932
2050.09	921.5
2051.06	943
2052.04	941
2053.01	913
2053.98	933
2054.95	917.5
2055.92	933
2056.89	902
2057.86	912
2058.84	929
2059.81	908.5
2060.78	906.5
2061.75	900.5
2062.72	887
2063.69	932
2064.66	903.5
2065.63	921
2066.6	903.5
2067.57	907
2068.54	904.5
2069.51	914
2070.48	904
2071.44	899
2072.41	923
2073.38	883
2074.35	887.5
2075.32	897.5
2076.29	891
2077.26	892
2078.22	908.5
2079.19	889
2080.16	885.5
2081.13	891
2082.09	878
2083.06	893
2084.03	894
2085	891.5
2085.96	882.5
2086.93	900.5
2087.9	880.5
2088.86	900
2089.83	865
2090.79	881.5
2091.76	889.5
2092.73	863.5
2093.69	884.5
2094.66	894
2095.62	863.5
2096.59	887
2097.55	879.5
2098.52	881
2099.48	874.5
2100.45	878.5
2101.41	882
2102.38	889
2103.34	883.5
2104.3	901
2105.27	894
2106.23	889
2107.19	902.5
2108.16	900
2109.12	904.5
2110.08	924.5
2111.05	931.5
2112.01	936.5
2112.97	940.5
2113.94	955.5
2114.9	958.5
2115.86	967.5
2116.82	981
2117.78	991.5
2118.75	977.5
2119.71	1019.5
2120.67	1028.5
2121.63	1033
2122.59	1059
2123.55	1046.5
2124.51	1049.5
2125.47	1034
2126.43	1050.5
2127.4	1068.5
2128.36	1059
2129.32	1056.5
2130.28	1053.5
2131.24	1040.5
2132.2	1024.5
2133.16	1013.5
2134.11	1015.5
2135.07	1006.5
2136.03	988
2136.99	966.5
2137.95	938
2138.91	932.5
2139.87	929.5
2140.83	908
2141.78	906
2142.74	886
2143.7	885
2144.66	878.5
2145.62	864.971
2146.57	888.77
2147.53	858.829
2148.49	860.264
2149.45	881.322
2150.4	845.149
2151.36	851.076
2152.32	840.702
2153.27	850.227
2154.23	838.677
2155.19	836.392
2156.14	828.621
2157.1	823.829
2158.05	828.921
2159.01	832.785
2159.96	820.433
2160.92	836.469
2161.88	807.759
2162.83	821.413
2163.78	816.011
2164.74	812.653
2165.69	809.228
2166.65	811.367
2167.6	801.944
2168.56	802.928
2169.51	796.388
2170.47	802.317
2171.42	800.266
2172.37	802.863
2173.33	782.355
2174.28	791.672
2175.23	794.969
2176.19	783.101
2177.14	800.537
2178.09	782.141
2179.04	772.182
2180	783.042
2180.95	777.856
2181.9	769.799
2182.85	780.525
2183.81	778.095
2184.76	770.788
2185.71	771.702
2186.66	767.736
2187.61	756.493
2188.56	776.389
2189.51	755.711
2190.46	765.442
2191.42	757.11
2192.37	758.887
2193.32	757.798
2194.27	762.693
2195.22	761.893
2196.17	749.259
2197.12	758.471
2198.07	757.012
2199.02	754.303
2199.97	754.972
2200.92	753.64
2201.86	757.186
2202.81	758.512
2203.76	752.501
2204.71	760.518
2205.66	751.256
2206.61	749.105
2207.56	753.563
2208.5	744.633
2209.45	753.474
2210.4	743.303
2211.35	750.784
2212.3	752.68
2213.24	748.587
2214.19	744.263
2215.14	747.328
2216.08	744.287
2217.03	748.247
2217.98	736.77
2218.92	749.553
2219.87	753.871
2220.82	739.643
2221.76	733.233
2222.71	739.782
2223.65	741.534
2224.6	740.329
2225.55	736.6
2226.49	733.82
2227.44	741.159
2228.38	746.623
2229.33	741.654
2230.27	743.551
2231.22	746.692
2232.16	750.268
2233.11	744.425
2234.05	741.228
2234.99	745.446
2235.94	747.679
2236.88	734.275
2237.83	732.751
2238.77	741.312
2239.71	743.206
2240.66	739.366
2241.6	744.211
2242.06	752.5
2243.01	748.5
2243.96	755
2244.91	761
2245.85	768.5
2246.8	770
2247.75	754
2248.7	757
2249.64	763
2250.59	747.5
2251.54	749.5
2252.48	745
2253.43	748.5
2254.38	745.5
2255.32	742
2256.27	734
2257.21	711.5
2258.16	724
2259.1	718.5
2260.05	716
2260.99	706
2261.94	715
2262.89	701
2263.83	707
2264.77	704.5
2265.72	710.5
2266.66	702.5
2267.61	707.5
2268.55	703
2269.5	713.5
2270.44	707.5
2271.38	691.5
2272.33	689.5
2273.27	682.5
2274.21	700
2275.16	699
2276.1	679
2277.04	697.5
2277.98	688.5
2278.93	685
2279.87	697.5
2280.81	694
2281.75	711
2282.7	686.5
2283.64	686.5
2284.58	682.5
2285.52	694.5
2286.46	678.5
2287.4	682
2288.34	681.5
2289.29	668
2290.23	688.5
2291.17	668
2292.11	679.5
2293.05	669
2293.99	687.5
2294.93	685
2295.87	688.5
2296.81	681.5
2297.75	671.5
2298.69	669.5
2299.63	675
2300.57	661
2301.51	678.5
2302.44	666.5
2303.38	654.5
2304.32	686.5
2305.26	679.5
2306.2	657.5
2307.14	672
2308.08	681
2309.01	660
2309.95	671.5
2310.89	668
2311.83	666.5
2312.77	653
2313.7	654.5
2314.64	661
2315.58	670.5
2316.51	657
2317.45	661.5
2318.39	649.5
2319.32	652
2320.26	647.5
2321.2	650
2322.13	662.5
2323.07	656.5
2324	657.5
2324.94	637
2325.88	654
2326.81	660
2327.75	646
2328.68	663
2329.62	666
2330.55	651
2331.49	649.5
2332.42	660.5
2333.35	641.5
2334.29	646
2335.22	640
2336.16	641
2337.09	644
2338.02	645
2338.96	644.5
2339.89	643.5
2340.82	645.5
2341.76	628.5
2342.69	631
2343.62	643.5
2344.56	638.5
2345.49	638
2346.42	637
2347.35	651
2348.29	622.5
2349.22	621.5
2350.15	635.5
2351.08	639
2352.01	628.5
2352.94	624
2353.88	612
2354.81	623
2355.74	632
2356.67	627.5
2357.6	626.5
2358.53	636.5
2359.46	638
2360.39	626
2361.32	631.5
2362.25	612
2363.18	636
2364.11	627.5
2365.04	629
2365.97	610.5
2366.9	612
2367.83	622
2368.76	621
2369.69	629.5
2370.62	615
2371.55	607.5
2372.47	615
2373.4	608
2374.33	616
2375.26	593.5
2376.19	603
2377.11	622
2378.04	610
2378.97	633
2379.9	613.5
2380.83	598
2381.75	612.5
2382.68	619.5
2383.61	624.5
2384.53	611.5
2385.46	603
2386.39	618
2387.31	629
2388.24	601
2389.17	601
2390.09	614.5
2391.02	596
2391.94	607
2392.87	592
2393.79	602
2394.72	605
2395.64	616.5
2396.57	585
2397.49	604
2398.42	610
2399.34	601.5
2400.27	601
2401.19	603
2402.12	586.5
2403.04	593
2403.96	592
2404.89	599
2405.81	608.5
2406.74	601
2407.66	605
2408.58	601
2409.51	613.5
2410.43	601.5
2411.35	602
2412.27	609.5
2413.2	593
2414.12	595
2415.04	576
2415.96	593.5
2416.89	585
2417.81	583
2418.73	595
2419.65	593
2420.57	575
2421.49	571.5
2422.41	589.5
2423.34	581
2424.26	585
2425.18	580
2426.1	577
2427.02	574.5
2427.94	572
2428.86	584
2429.78	589
2430.7	584.5
2431.62	571.5
2432.54	571.5
2433.46	574.5
2434.38	562
2435.3	570.5
2436.22	583
2437.13	575
2438.05	558.5
2438.97	575
2439.89	579.5
2440.81	578
2441.73	573
2442.65	573.5
2443.56	580.5
2444.48	572.5
2445.4	572
2446.32	578.5
2447.24	576
2448.15	571.5
2449.07	570
2449.99	566
2450.9	573
2451.82	547
2452.74	576
2453.65	569
2454.57	578
2455.49	563
2456.4	572.5
2457.32	558.5
2458.23	568
2459.15	558
2460.07	566
2460.98	554
2461.9	557
2462.81	564.5
2463.73	553
2464.64	554
2465.56	563
2466.47	543
2467.39	552.5
2468.3	555
2469.21	556.5
2470.13	559
2471.04	569.5
2471.96	548.5
2472.87	548
2473.78	540
2474.7	544
2475.61	562.5
2476.52	550.5
2477.44	548.5
2478.35	558
2479.26	555
2480.17	559.5
2481.09	558
2482	550.5
2482.91	542.5
2483.82	547.5
2484.74	547
2485.65	539
2486.56	530
2487.47	546
2488.38	542
2489.29	547.5
2490.21	532.5
2491.12	536
2492.03	530
2492.94	541
2493.85	536
2494.76	545.5
2495.67	548.5
2496.58	544
2497.49	539.5
2498.4	537
2499.31	537
2500.22	544
2501.13	539.5
2502.04	554.5
2502.95	532.5
2503.86	533.5
2504.76	537.5
2505.67	531.5
2506.58	533.5
2507.49	515.5
2508.4	519
2509.31	519
2510.22	531.5
2511.12	527.5
2512.03	531
2512.94	531
2513.85	528.5
2514.76	523
2515.66	512
2516.57	535
2517.48	517.5
2518.38	526
2519.29	530.5
2520.2	512
2521.1	514
2522.01	512.5
2522.92	526.5
2523.82	525
2524.73	521.5
2525.64	513.5
2526.54	521
2527.45	505
2528.35	496.5
2529.26	513.5
2530.16	500.5
2531.07	522
2531.97	516.5
2532.88	512.5
2533.78	521
2534.69	508.5
2535.59	513
2536.5	508.5
2537.4	508.5
2538.31	501.5
2539.21	518.5
2540.11	501
2541.02	520.5
2541.92	509
2542.82	517
2543.73	507
2544.63	499.5
2545.53	506.5
2546.44	513
2547.34	500.5
2548.24	502.5
2549.14	511
2550.05	494.5
2550.95	510
2551.85	505.5
2552.75	507
2553.65	496
2554.56	517
2555.46	499
2556.36	489
2557.26	509
2558.16	485.5
2559.06	509.5
2559.96	498.5
2560.86	498.5
2561.76	491.5
2562.67	498
2563.57	493.5
2564.47	493.5
2565.37	483.5
2566.27	503
2567.17	486
2568.06	487.5
2568.96	496
2569.86	489
2570.76	487.5
2571.66	496.5
2572.56	484.5
2573.46	486
2574.36	483.5
2575.26	483
2576.16	482.5
2577.05	496.5
2577.95	498
2578.85	485
2579.75	493
2580.65	482
2581.54	486
2582.44	494
2583.34	497.5
2584.24	482
2585.13	485
2586.03	484.5
2586.93	482.5
2587.83	480
2588.72	494
2589.62	472
2590.51	468.5
2591.41	490
2592.31	485.5
2593.2	475.5
2594.1	469.5
2594.99	481
2595.89	465
2596.79	470.5
2597.68	481
2598.58	478.5
2599.47	482
2600.37	484.5
2601.26	470
2602.16	474.5
2603.05	470.5
2603.94	475
2604.84	480
2605.73	480
2606.63	456.5
2607.52	483
2608.42	462
2609.31	450.5
2610.2	457.5
2611.1	471.5
2611.99	470.5
2612.88	464.5
2613.78	449.5
2614.67	461
2615.56	465.5
2616.45	478.5
2617.35	456.5
2618.24	467.5
2619.13	463.5
2620.02	463
2620.91	468
2621.81	450
2622.7	455.5
2623.59	472
2624.48	463.5
2625.37	454
2626.26	454.5
2627.15	463
2628.04	453.5
2628.94	463
2629.83	447
2630.72	457
2631.61	462.5
2632.5	448
2633.39	459.5
2634.28	443
2635.17	435.5
2636.06	441
2636.95	440.5
2637.84	449.5
2638.73	451
2639.61	437.5
2640.5	442
2641.39	450
2642.28	450
2643.17	436.5
2644.06	434.5
2644.95	428.5
2645.84	451
2646.72	444
2647.61	439
2648.5	444.5
2649.39	437.5
2650.28	448.5
2651.16	449
2652.05	443
2652.94	433.5
2653.82	425.5
2654.71	437.5
2655.6	434
2656.49	426
2657.37	439.5
2658.26	445.5
2659.14	437.5
2660.03	441.5
2660.92	442
2661.8	434
2662.69	427.5
2663.57	427.5
2664.46	437.5
2665.35	434
2666.23	422.5
2667.12	440.5
2668	432
2668.89	442.5
2669.77	439.5
2670.66	437.5
2671.54	440.5
2672.42	440
2673.31	434.5
2674.19	428
2675.08	444.5
2675.96	419.5
2676.84	410
2677.73	432
2678.61	424
2679.49	440.5
2680.38	434.5
2681.26	428
2682.14	413
2683.03	436
2683.91	429
2684.79	427
2685.68	437
2686.56	423.5
2687.44	417
2688.32	436
2689.2	410.5
2690.09	423
2690.97	421.5
2691.85	404.5
2692.73	418
2693.61	422.5
2694.49	433.5
2695.37	422
2696.25	424.5
2697.14	418
2698.02	412.5
2698.9	432.5
2699.78	409
2700.66	421.5
2701.54	407.5
2702.42	435
2703.3	430
2704.18	416.5
2705.06	414
2705.94	408.5
2706.82	408
2707.7	418
2708.57	411
2709.45	405
2710.33	421
2711.21	412.5
2712.09	413
2712.97	424.5
2713.85	402.5
2714.72	419
2715.6	402.5
2716.48	407.5
2717.36	413.5
2718.24	412.5
2719.11	401
2719.99	415
2720.87	416
2721.75	422
2722.62	401.5
2723.5	412.5
2724.38	416.5
2725.25	410
2726.13	400.5
2727.01	409
2727.88	405
2728.76	398
2729.63	399
2730.51	408.5
2731.39	408.5
2732.26	411.5
2733.14	403
2734.01	396
2734.89	411.5
2735.76	405.5
2736.64	411.5
2737.51	407.5
2738.39	383
2739.26	407
2740.14	390.5
2741.01	399
2741.89	404
2742.76	389.5
2743.63	399
2744.51	391.5
2745.38	386.5
2746.26	396.5
2747.13	388.5
2748	397.5
2748.88	389.5
2749.75	381
2750.62	394.5
2751.5	393.5
2752.37	393
2753.24	394
2754.11	372
2754.99	384
2755.86	384
2756.73	395.5
2757.6	391
2758.47	382.5
2759.35	390
2760.22	377
2761.09	389
2761.96	382.5
2762.83	392.5
2763.7	383.5
2764.57	379
2765.44	384.5
2766.32	386
2767.19	386.5
2768.06	387
2768.93	382.5
2769.8	376.5
2770.67	396.5
2771.54	370.5
2772.41	372.5
2773.28	381
2774.15	374
2775.02	385
2775.89	389
2776.75	382.5
2777.62	374
2778.49	365
2779.36	380.5
2780.23	377.5
2781.1	379.5
2781.97	382.5
2782.84	380
2783.7	374.5
2784.57	373
2785.44	376.5
2786.31	377.5
2787.18	380
2788.04	377.5
2788.91	365
2789.78	378.5
2790.64	362
2791.51	377
2792.38	375
2793.24	359
2794.11	368
2794.98	365.5
2795.85	374.5
2796.71	363
2797.58	372
2798.44	377
2799.31	359
2800.18	370
2801.04	373
2801.91	362
2802.77	366.5
2803.64	367.25
2804.5	362
2805.37	379.5
2806.23	359.5
2807.1	380
2807.96	374
2808.83	357
2809.69	367.5
2810.55	368
2811.42	372
2812.28	373
2813.15	359.5
2814.01	362.5
2814.88	373
2815.74	355.5
2816.6	359
2817.46	372
2818.33	354.5
2819.19	348.5
2820.05	363
2820.92	365.5
2821.78	359.5
2822.64	364.5
2823.51	357.5
2824.37	356.5
2825.23	358
2826.09	365
2826.95	359.5
2827.81	353.5
2828.68	360.5
2829.54	360
2830.4	368
2831.26	367.5
2832.12	361
2832.98	353.5
2833.84	357.5
2834.71	360
2835.57	358.5
2836.43	366
2837.29	356.5
2838.15	351.5
2839.01	367.5
2839.87	351
2840.73	350
2841.59	354.5
2842.45	352.5
2843.31	375
2844.17	345
2845.02	358.5
2845.88	349.5
2846.74	367.5
2847.6	363
2848.46	355
2849.32	364.5
2850.18	360
2851.04	355
2851.9	363
2852.75	369
2853.61	379
2854.47	368.5
2855.33	363
2856.19	356.5
2857.04	355
2857.9	360
2858.76	365
2859.61	370
2860.47	363
2861.33	361
2862.19	365
2863.04	370.5
2863.9	373
2864.76	370
2865.61	355
2866.47	355.5
2867.32	350
2868.18	366.5
2869.04	354
2869.89	382
2870.75	359.5
2871.6	363
2872.46	367
2873.31	369
2874.17	364.5
2875.02	369
2875.88	363.5
2876.73	356
2877.59	366
2878.44	376.5
2879.3	357.5
2880.15	351
2881	356
2881.86	361.5
2882.71	361.5
2883.57	371
2884.42	373.5
2885.27	360
2886.13	366
2886.98	368
2887.83	355.5
2888.69	352.5
2889.54	366
2890.39	352.5
2891.24	356
2892.1	364.5
2892.95	373
2893.8	369
2894.65	363.5
2895.51	351.5
2896.36	380
2897.21	367.5
2898.06	364.5
2898.91	370
2899.76	372
2900.62	366.5
2901.47	364.5
2902.32	371
2903.17	376
2904.02	366
2904.87	379.5
2905.72	353
2906.57	375.5
2907.42	371.5
2908.27	373.5
2909.12	364
2909.97	366.5
2910.82	369
2911.67	374
2912.52	369
2913.37	371.5
2914.22	369.5
2915.07	377
2915.92	366.5
2916.77	368.5
2917.62	380
2918.47	356
2919.31	381.5
2920.16	367.5
2921.01	379.5
2921.86	369.5
2922.71	383.5
2923.55	378.5
2924.4	380
2925.25	389.5
2926.1	367
2926.94	374.5
2927.79	387
2928.64	375.5
2929.49	383.5
2930.33	384
2931.18	385.5
2932.03	382
2932.87	375.5
2933.72	383.5
2934.57	377.5
2935.41	385
2936.26	383
2937.11	386.5
2937.95	385
2938.8	376.5
2939.64	369
2940.49	380.5
2941.33	378.5
2942.18	372
2943.02	369.5
2943.87	356.5
2944.71	367
2945.56	352
2946.4	360.5
2947.25	364
2948.09	349.5
2948.94	344
2949.78	355
2950.63	340.5
2951.47	349.5
2952.31	330.5
2953.16	343
2954	344
2954.84	348
2955.69	340.5
2956.53	331
2957.37	343
2958.22	349
2959.06	314.5
2959.9	335
2960.75	343
2961.59	331.5
2962.43	333
2963.27	328.5
2964.11	335.5
2964.96	325.5
2965.8	321
2966.64	334.5
2967.48	327.5
2968.32	338
2969.16	325
2970.01	329.5
2970.85	325
2971.69	326
2972.53	324.5
2973.37	329
2974.21	321
2975.05	320
2975.89	323.5
2976.73	317.5
2977.57	317.5
2978.41	317.5
2979.25	313.5
2980.09	311
2980.93	320
2981.77	304
2982.61	312
2983.45	306.5
2984.29	306.5
2985.13	319.5
2985.97	304
2986.81	293.5
2987.65	308
2988.49	311.5
2989.32	315.5
2990.16	296
2991	299.5
2991.84	302
2992.68	301.5
2993.51	304
2994.35	286
2995.19	304.5
2996.03	291
2996.86	290.5
2997.7	292.5
2998.54	293.5
2999.38	284
