#Acq. time (s)=	5
#Accumulations=	5
#Range (cm-¹)=	100...3000
#Windows=	3
#Autofocus=	Off
#AutoExposure=	Off
#Spike filter=	Multiple accum.
#Delay time (s)=	0
#Binning=	1
#Readout mode=	Signal
#DeNoise=	Off
#ICS correction=	Off
#Dark correction=	Off
#Inst. Process=	Off
#Instrument=	LabRAM HR Evol
#Detector=	Syncerity OE
#Objective=	x100_VIS_LWD
#Grating=	600 (500nm)
#ND Filter=	100%
#Laser=	633nm_Edge
#Hole=	100.021
#Range=	Visible
#Project=	Omar
#Sample=	chi
#Site=	f
#Title=	nsno
#Remark=	
#Date=	12.09.2023 17:46
#Acquired=	12.09.2023 17:46:51
101.026	2415
102.309	2384
103.592	2349
104.875	2345
106.158	2330
107.441	2281
108.723	2280.5
110.005	2226
111.289	2248
112.571	2228
113.852	2172.5
115.134	2166.5
116.415	2161
117.696	2154
118.976	2138
120.257	2110.5
121.537	2093
122.817	2121.5
124.097	2079
125.377	2078.5
126.656	2059.5
127.936	2073
129.215	2032.5
130.493	2030
131.772	2015.5
133.049	1989.5
134.327	1976.5
135.605	1988.5
136.883	1945
138.161	1955.5
139.438	1903
140.715	1896
141.992	1872.5
143.269	1872.5
144.545	1860
145.82	1827
147.096	1815.5
148.372	1790.5
149.648	1762.5
150.924	1784.5
152.199	1742
153.472	1731.5
154.747	1703.5
156.022	1688
157.296	1674.5
158.571	1673
159.843	1669
161.117	1654
162.391	1646
163.664	1652
164.937	1640
166.209	1636
167.482	1622
168.754	1637
170.025	1612.5
171.297	1586.5
172.569	1626
173.841	1609.5
175.111	1595
176.383	1571.5
177.654	1582
178.923	1580
180.194	1572
181.464	1573
182.733	1559
184.003	1583.5
185.273	1567.5
186.542	1586
187.811	1564
189.079	1564.5
190.348	1569.5
191.617	1539
192.884	1571.5
194.152	1581.5
195.419	1576
196.687	1569
197.955	1577.5
199.221	1571
200.489	1575.5
201.755	1574.5
203.022	1593
204.287	1582
205.554	1584
206.818	1617
208.085	1570.5
209.349	1606.5
210.615	1602.5
211.879	1613.5
213.144	1586
214.408	1593
215.673	1595.5
216.936	1618.5
218.201	1617.5
219.464	1619
220.728	1613
221.99	1574
223.253	1601.5
224.516	1631.5
225.778	1618
227.041	1611.5
228.303	1627
229.564	1614
230.826	1626.5
232.087	1627
233.348	1639
234.61	1633
235.87	1635
237.13	1654
238.391	1638
239.651	1639.5
240.91	1654
242.171	1666.5
243.43	1662.5
244.689	1599
245.949	1648
247.207	1641.5
248.465	1638
249.723	1650
250.983	1645.5
252.24	1655
253.498	1646
254.755	1634
256.013	1676
257.27	1661
258.526	1660.5
259.783	1665
261.039	1687
262.296	1649
263.552	1650.5
264.808	1667.5
266.063	1673.5
267.318	1674
268.573	1672.5
269.828	1649
271.084	1677.5
272.338	1642
273.592	1673
274.846	1642.5
276.1	1662
277.353	1661
278.607	1678.5
279.86	1644.5
281.113	1662
282.365	1676.5
283.619	1666
284.872	1668
286.124	1672
287.376	1671
288.627	1701.5
289.879	1681.5
291.13	1708
292.381	1712
293.632	1693
294.883	1720.5
296.133	1698
297.384	1728
298.634	1726
299.883	1697
301.133	1721.5
302.381	1721
303.63	1707.5
304.879	1725
306.128	1720.5
307.377	1703.5
308.625	1677.5
309.874	1686
311.122	1675.5
312.37	1687.5
313.617	1712.5
314.863	1659.5
316.111	1676
317.358	1686
318.604	1688.5
319.851	1671.5
321.098	1658
322.342	1670.5
323.588	1643.5
324.834	1625
326.08	1652.5
327.325	1626.5
328.569	1622
329.814	1663
331.059	1612.5
332.304	1609.5
333.548	1640
334.791	1615.5
336.035	1631
337.279	1633
338.521	1596.5
339.765	1607.5
341.008	1602.5
342.251	1627.5
343.492	1583.5
344.735	1592.5
345.977	1580.5
347.218	1578
348.46	1604
349.702	1591
350.942	1586.5
352.184	1618.5
353.425	1629.5
354.665	1620
355.905	1617
357.145	1596.5
358.385	1611
359.625	1600.5
360.864	1603
362.104	1620.5
363.342	1602
364.581	1592.5
365.819	1609
367.058	1592.5
368.296	1618
369.534	1620.5
370.771	1598
372.01	1606.5
373.246	1605.5
374.484	1613.5
375.72	1600.5
376.958	1597
378.194	1606.5
379.431	1616.5
380.666	1591
381.903	1576
383.138	1601
384.374	1578.5
385.609	1609
386.845	1611
388.079	1597.5
389.313	1584
390.548	1611
391.782	1572.5
393.016	1595
394.25	1577
395.483	1604
396.718	1586
397.95	1584.5
399.183	1592
400.416	1594.5
401.648	1577.5
402.88	1631.5
404.113	1599.5
405.345	1589.5
406.576	1595.5
407.807	1598
409.04	1613
410.27	1621.5
411.501	1633.5
412.731	1611.5
413.963	1646
415.193	1642.5
416.422	1638
417.652	1645
418.883	1669.5
420.112	1650
421.341	1688.5
422.569	1650.5
423.798	1672.5
425.028	1652
426.256	1681
427.484	1628
428.711	1682.5
429.939	1687
431.166	1654.5
432.394	1696.5
433.622	1676
434.849	1667
436.075	1646
437.302	1705
438.528	1690
439.754	1668
440.98	1693
442.205	1678.5
443.431	1685.5
444.656	1671.5
445.881	1685
447.106	1677
448.33	1678.5
449.555	1680
450.779	1665
452.003	1684.5
453.227	1667
454.45	1663
455.674	1642
456.897	1636
458.12	1651
459.343	1629.5
460.566	1638.5
461.788	1638
463.01	1673.5
464.232	1649
465.454	1665
466.676	1667.5
467.897	1642.5
469.119	1657.5
470.34	1650.5
471.559	1643
472.78	1662
474.001	1666
475.221	1669
476.441	1669
477.661	1635.5
478.879	1664
480.099	1652.5
481.318	1645
482.537	1672
483.756	1664
484.974	1672.5
486.192	1638.5
487.411	1686.5
488.629	1655
489.847	1674
491.063	1671.5
492.281	1673
493.498	1682
494.714	1670
495.931	1659.5
497.148	1693.5
498.365	1711
499.58	1687.5
500.796	1700.5
502.012	1721
503.226	1707
504.442	1730
505.657	1719.5
506.871	1691.5
508.086	1708
509.3	1689
510.515	1709.5
511.729	1711.5
512.942	1693.5
514.156	1720.5
515.369	1712
516.582	1720
517.796	1738
519.008	1700.5
520.221	1700
521.433	1700
522.645	1707
523.857	1687.5
525.069	1718
526.28	1695.5
527.492	1708.5
528.702	1722
529.914	1702.5
531.124	1700
532.335	1717.5
533.545	1697.5
534.756	1700.5
535.965	1689
537.175	1690.5
538.384	1715
539.593	1687.5
540.803	1714
542.011	1693.5
543.221	1701
544.429	1712
545.636	1677.5
546.845	1697
548.052	1730.5
549.261	1708.5
550.468	1702
551.675	1690
552.883	1670.5
554.089	1689
555.295	1678
556.503	1669.5
557.709	1707
558.914	1705
560.12	1690
561.326	1684
562.531	1692.5
563.736	1668.5
564.941	1668.5
566.147	1705
567.351	1697
568.555	1676
569.759	1700
570.964	1694.5
572.168	1724.5
573.371	1713.5
574.574	1693
575.777	1704.5
576.981	1696.5
578.184	1682.5
579.386	1655
580.588	1692
581.79	1707.5
582.992	1707.5
584.194	1706
585.395	1701
586.598	1696.5
587.799	1685.5
589	1697.5
590.201	1696
591.401	1717
592.601	1733
593.801	1708.5
595.001	1661
596.201	1705
597.401	1700
598.6	1717.5
599.799	1712
600.998	1736.5
602.197	1721.5
603.395	1714
604.594	1745
605.792	1693
606.99	1730
608.188	1748
609.386	1703.5
610.583	1715
611.78	1728.5
612.977	1726
614.174	1750
615.371	1741.5
616.566	1726
617.762	1752.5
618.958	1746
620.154	1722.5
621.35	1766.5
622.546	1745
623.741	1747
624.935	1747
626.13	1741
627.325	1767
628.519	1783
629.714	1784
630.908	1773
632.101	1776
633.295	1789.5
634.488	1780.5
635.682	1752.5
636.874	1790
638.067	1789.5
639.26	1789
640.453	1785
641.644	1783
642.836	1801
644.028	1782.5
645.219	1791.5
646.411	1799.5
647.602	1792.5
648.792	1789.5
649.984	1784.5
651.175	1786
652.364	1765
653.555	1757.5
654.745	1800
655.934	1770
657.124	1772.5
658.314	1778.5
659.503	1758.5
660.692	1750.5
661.88	1757.5
663.07	1782
664.257	1768
665.446	1792.5
666.635	1785
667.822	1777.5
669.01	1748.5
670.197	1770.5
671.384	1752
672.571	1767.5
673.758	1764.5
674.944	1746
676.131	1760
677.317	1777.5
678.502	1757
679.689	1754.5
680.874	1739.5
682.06	1748
683.245	1752
684.431	1746.5
685.615	1733
686.799	1774
687.984	1729.5
689.168	1740.5
690.353	1748
691.536	1727.5
692.719	1745.5
693.904	1735
695.086	1717
696.269	1734
697.453	1709.5
698.635	1733.5
699.817	1740.5
701	1718.5
702.182	1735.5
703.364	1754
704.545	1701
705.727	1713.5
706.908	1737
708.089	1720.5
709.27	1725.5
710.451	1714
711.632	1719.5
712.812	1719
713.991	1730
715.172	1753
716.352	1740
717.531	1730
718.71	1720
719.889	1712
721.068	1729.5
722.248	1718.5
723.426	1712
724.604	1729
725.782	1748
726.96	1746.5
728.138	1729.5
729.315	1748.5
730.492	1690.5
731.669	1728.5
732.846	1729.5
734.024	1714
735.201	1732
736.377	1736.5
737.553	1743
738.729	1745.5
739.905	1742
741.081	1739
742.256	1755.5
743.431	1759.5
744.606	1736
745.781	1735
746.956	1737
748.13	1778.5
749.303	1757.5
750.477	1721.5
751.651	1725.5
752.825	1734
753.999	1727
755.172	1728
756.345	1754
757.518	1717.5
758.691	1769
759.864	1728
761.035	1741
762.207	1717.5
763.379	1760
764.551	1711
765.723	1732
766.894	1720.5
768.064	1727.5
769.236	1703.5
770.407	1752
771.577	1718.5
772.748	1709.5
773.917	1734
775.088	1722
776.258	1715
777.427	1722.5
778.596	1713.5
779.765	1737.5
780.935	1740
782.104	1734.5
783.272	1728
784.44	1732.5
785.609	1744.5
786.776	1725
787.944	1702.5
789.113	1722.5
790.279	1717
791.447	1705.5
792.613	1725.5
793.78	1698.5
794.948	1723
796.113	1730.5
797.28	1741
798.445	1745.5
799.612	1706.5
800.778	1736.5
801.943	1733.5
803.109	1733
804.273	1750.5
805.439	1731
806.603	1757.5
807.768	1747.5
808.932	1748
810.096	1740.5
811.26	1725
812.424	1747
813.587	1750.5
814.751	1769.5
815.914	1756
817.078	1740.5
818.24	1784
819.402	1773
820.565	1786.5
821.727	1747
822.889	1775
824.051	1781.5
825.212	1778
826.374	1779
827.535	1776.5
828.697	1740
829.857	1786
831.018	1766.5
832.179	1766.5
833.339	1771
834.499	1772
835.659	1778
836.819	1801.5
837.978	1782
839.137	1803.5
840.297	1788
841.456	1818.5
842.614	1777
843.772	1793
844.932	1788.5
846.09	1789.5
847.247	1776
848.405	1779
849.562	1788
850.721	1782
851.878	1793
853.034	1780.5
854.191	1806.5
855.348	1773
856.504	1800
857.661	1775.5
858.817	1803.5
859.973	1800.5
861.129	1808
862.284	1799
863.439	1805
864.594	1766.5
865.749	1773
866.904	1760.5
868.058	1748
869.212	1775.5
870.367	1770
871.522	1760.5
872.676	1744.5
873.829	1746.5
874.983	1789
876.136	1749
877.289	1754
878.442	1748
879.593	1746
880.746	1751
881.898	1723
883.05	1756
884.202	1730.5
885.354	1757
886.506	1727.5
887.657	1728.5
888.808	1748.5
889.96	1748.5
891.11	1725
892.261	1723
893.41	1761.5
894.561	1715
895.711	1698.5
896.861	1726
898.011	1718.5
899.161	1718.5
900.309	1714.5
901.458	1736.5
902.607	1684.5
903.756	1725
904.904	1753.5
906.052	1697
907.201	1732.5
908.349	1723.5
909.496	1705.5
910.644	1722
911.791	1687
912.939	1716.5
914.085	1693.5
915.232	1715.5
916.379	1703.5
917.525	1720
918.671	1703.5
919.818	1701
920.963	1710
922.109	1698.5
923.255	1695
924.399	1672.5
925.545	1695.5
926.689	1717.5
927.834	1695.5
928.979	1701
930.123	1703.5
931.268	1688.5
932.411	1694.5
933.555	1691
934.698	1687
935.842	1701.5
936.985	1701
938.128	1678
939.271	1735.5
940.414	1678.5
941.556	1702
942.699	1689.5
943.84	1720.5
944.983	1702.5
946.124	1706
947.266	1729
948.407	1688.5
949.547	1690
950.689	1670
951.829	1704.5
952.971	1710.5
954.111	1707.5
955.25	1704
956.391	1737
957.531	1713.5
958.67	1738
959.81	1706
960.949	1688.5
962.088	1729.5
963.227	1720
964.366	1725.5
965.504	1707.5
966.643	1716
967.781	1698.5
968.919	1714.5
970.056	1722
971.195	1724.5
972.332	1717.5
973.469	1724
974.605	1739
975.743	1732
976.88	1751.5
978.016	1733.5
979.152	1740.5
980.288	1736.5
981.423	1746.5
982.56	1746.5
983.696	1756
984.831	1766.5
985.966	1750.5
987.101	1762.5
988.235	1731.5
989.37	1752.5
990.504	1739.5
991.638	1715
992.773	1736.5
993.907	1726.5
995.041	1733
996.174	1767.5
997.307	1804
998.44	1787
999.573	1789
1000.71	1799
1001.84	1799
1002.97	1756
1004.1	1731.5
1005.24	1711.5
1006.37	1734
1007.5	1724.5
1008.63	1694.5
1009.76	1720.5
1010.89	1703.5
1012.02	1709
1013.15	1673.5
1014.28	1708.5
1015.41	1705.5
1016.54	1741
1017.67	1717
1018.8	1707
1019.93	1697.5
1021.06	1723.5
1022.19	1709.5
1023.32	1701.5
1024.45	1738
1025.58	1684
1026.71	1733
1027.84	1736.5
1028.96	1729.5
1030.09	1739.5
1031.22	1730
1032.35	1710.5
1033.47	1722.5
1034.6	1718.5
1035.73	1718.5
1036.86	1742.5
1037.98	1734
1039.11	1701
1040.23	1744.5
1041.36	1741
1042.49	1751
1043.61	1736
1044.74	1740.5
1045.86	1743.5
1046.99	1789.5
1048.11	1759
1049.24	1746.5
1050.36	1752
1051.49	1748
1052.61	1750
1053.74	1738.5
1054.86	1767.5
1055.98	1760.5
1057.11	1750
1058.23	1743.5
1059.35	1756.5
1060.48	1736.5
1061.6	1750.5
1062.72	1742.5
1063.84	1778.5
1064.97	1758
1066.09	1756.5
1067.21	1725.5
1068.33	1750.5
1069.45	1753.5
1070.57	1717.5
1071.7	1716
1072.82	1718
1073.94	1747
1075.06	1745.5
1076.18	1710
1077.3	1735
1078.42	1747
1079.54	1730
1080.66	1734.5
1081.78	1739
1082.9	1730.5
1084.02	1718
1085.14	1733.5
1086.25	1754
1087.37	1760.5
1088.49	1733.5
1089.61	1727.5
1090.73	1729
1091.84	1731
1092.96	1725
1094.08	1725.5
1095.2	1722.5
1096.31	1727.5
1097.43	1740
1098.55	1725.5
1099.66	1699
1100.78	1740
1101.9	1710.5
1103.01	1704.5
1104.13	1713.5
1105.25	1702.5
1106.36	1727.5
1107.48	1691
1108.59	1723
1109.71	1703
1110.82	1735
1111.93	1725.5
1113.05	1730
1114.16	1710
1115.28	1704.5
1116.39	1736
1117.51	1704
1118.62	1710.5
1119.73	1702.5
1120.85	1697
1121.96	1728.5
1123.07	1713.5
1124.18	1703
1125.3	1710.5
1126.41	1715
1127.52	1715
1128.63	1717.5
1129.74	1720.5
1130.85	1716.5
1131.97	1729
1133.08	1723
1134.19	1717
1135.3	1685.5
1136.41	1717.5
1137.52	1700
1138.63	1734
1139.74	1734.5
1140.85	1743.5
1141.96	1739.5
1143.07	1755.5
1144.18	1737
1145.29	1733
1146.4	1743.5
1147.51	1752
1148.61	1781.5
1149.72	1757
1150.83	1759.5
1151.94	1773
1153.05	1748
1154.15	1774
1155.26	1789
1156.37	1778.5
1157.48	1784.5
1158.58	1801.5
1159.69	1794.5
1160.8	1776
1161.9	1804.5
1163.01	1857.5
1164.11	1809.5
1165.22	1823
1166.33	1820.5
1167.43	1866.5
1168.54	1826
1169.64	1858.5
1170.75	1849.5
1171.85	1845.5
1172.96	1830
1174.06	1845.5
1175.17	1842
1176.27	1808.5
1177.37	1842
1178.48	1808.5
1179.58	1819.5
1180.68	1799
1181.79	1813.5
1182.89	1795.5
1183.99	1787.5
1185.1	1805.5
1186.2	1795.5
1187.3	1767
1188.4	1789
1189.5	1797
1190.61	1758
1191.71	1776.5
1192.81	1803.5
1193.91	1798
1195.01	1800
1196.11	1790.25
1197.21	1794.11
1198.31	1792.22
1199.42	1783.23
1200.51	1775.98
1201.61	1778.71
1202.72	1764.72
1203.81	1779.06
1204.91	1767.28
1206.01	1759.07
1207.11	1759.75
1208.21	1794.44
1209.31	1780.29
1210.41	1780.97
1211.51	1792.43
1212.61	1755.64
1213.7	1768.79
1214.8	1777.3
1215.9	1775.32
1217	1778.12
1218.09	1769.95
1219.19	1763.94
1220.29	1774.07
1221.38	1767.91
1222.48	1765.38
1223.58	1764.56
1224.67	1766.83
1225.77	1758.49
1226.87	1780.17
1227.96	1762.85
1229.06	1779.08
1230.15	1788.02
1231.25	1777.83
1232.34	1816.82
1233.44	1778.37
1234.53	1801.85
1235.63	1807.96
1236.72	1799.59
1237.81	1801.59
1238.91	1804.42
1240	1765.95
1241.1	1784.65
1242.19	1767.46
1243.28	1774.82
1244.38	1780.15
1245.47	1769.67
1246.56	1774.01
1247.65	1788.84
1248.75	1780.48
1249.84	1762.52
1250.93	1776.56
1252.02	1777.58
1253.11	1771.58
1254.21	1787.59
1255.3	1786.24
1256.39	1785.7
1257.48	1779.88
1258.57	1789.25
1259.66	1788.35
1260.75	1796.45
1261.84	1785.89
1262.93	1798.16
1264.02	1808.63
1265.11	1815.72
1266.2	1820.88
1267.29	1812.14
1268.38	1832.49
1269.47	1826.63
1270.56	1814.43
1271.65	1810.17
1272.73	1817.95
1273.82	1835.32
1274.91	1827.58
1276	1830.56
1277.09	1825.17
1278.17	1819.84
1279.26	1816.29
1280.35	1816.17
1281.43	1803.03
1282.52	1802.88
1283.61	1814.69
1284.69	1804.21
1285.78	1810.57
1286.87	1811.12
1287.95	1822.38
1289.04	1812.35
1290.13	1823.55
1291.21	1824.96
1292.3	1850.05
1293.38	1860.38
1294.47	1845.73
1295.55	1840.43
1296.64	1842.08
1297.72	1836.47
1298.8	1814.53
1299.89	1849.33
1300.97	1832.8
1302.06	1840.54
1303.14	1840.79
1304.22	1840.77
1305.31	1841
1306.39	1854.31
1307.34	1860.5
1308.43	1829.5
1309.52	1826
1310.6	1832
1311.69	1813.5
1312.78	1836
1313.87	1847
1314.96	1807
1316.04	1805.5
1317.13	1794.5
1318.21	1795
1319.3	1797.5
1320.39	1778
1321.47	1784.5
1322.56	1781.5
1323.65	1807.5
1324.73	1806
1325.82	1787.5
1326.9	1794
1327.99	1783.5
1329.07	1805
1330.16	1757.5
1331.24	1741
1332.32	1768
1333.41	1743
1334.49	1769
1335.58	1773.5
1336.66	1774
1337.74	1750.5
1338.83	1758.5
1339.91	1789.5
1340.99	1767.5
1342.08	1788.5
1343.16	1721
1344.24	1738
1345.32	1757.5
1346.41	1742.5
1347.49	1735.5
1348.57	1729
1349.65	1741
1350.73	1757
1351.81	1766
1352.9	1728.5
1353.98	1710
1355.06	1721
1356.14	1728.5
1357.22	1726
1358.3	1727.5
1359.38	1713.5
1360.46	1713
1361.54	1714.5
1362.62	1730
1363.7	1733
1364.78	1734.5
1365.85	1741
1366.93	1677
1368.01	1733.5
1369.09	1694.5
1370.17	1712
1371.25	1708
1372.33	1723.5
1373.4	1709
1374.48	1697.5
1375.56	1712.5
1376.64	1679.5
1377.71	1697.5
1378.79	1709
1379.87	1688
1380.94	1658
1382.02	1695.5
1383.1	1683
1384.17	1694.5
1385.25	1676
1386.32	1688
1387.4	1697
1388.47	1644
1389.55	1663.5
1390.63	1693.5
1391.7	1686.5
1392.77	1683.5
1393.85	1697.5
1394.92	1667.5
1396	1687.5
1397.07	1669.5
1398.15	1663.5
1399.22	1674.5
1400.29	1660.5
1401.37	1651
1402.44	1691
1403.51	1655
1404.59	1672.5
1405.66	1660
1406.73	1639
1407.8	1653
1408.87	1681
1409.95	1630.5
1411.02	1697.5
1412.09	1663.5
1413.16	1621
1414.23	1649.5
1415.3	1636
1416.38	1635.5
1417.45	1616.5
1418.52	1650
1419.59	1642.5
1420.66	1658
1421.73	1655
1422.8	1647
1423.87	1646
1424.94	1673
1426.01	1664
1427.08	1649
1428.15	1677.5
1429.21	1652
1430.28	1662.5
1431.35	1650.5
1432.42	1683.5
1433.49	1668
1434.56	1686
1435.63	1679
1436.69	1661
1437.76	1668
1438.83	1687.5
1439.89	1692.5
1440.96	1658.5
1442.03	1676.5
1443.1	1689
1444.16	1719
1445.23	1699.5
1446.3	1705
1447.36	1683.5
1448.43	1696
1449.49	1680
1450.56	1684.5
1451.62	1674
1452.69	1680
1453.75	1679.5
1454.82	1644
1455.88	1675
1456.95	1683
1458.01	1673
1459.08	1655
1460.14	1658.5
1461.2	1656.5
1462.27	1674
1463.33	1698
1464.4	1664
1465.46	1662
1466.52	1688
1467.58	1704.5
1468.65	1695.5
1469.71	1661.5
1470.77	1667.5
1471.83	1665.5
1472.9	1661
1473.96	1669.5
1475.02	1673
1476.08	1665
1477.14	1688
1478.2	1670
1479.27	1665.5
1480.33	1673
1481.39	1700
1482.45	1651.5
1483.51	1694.5
1484.57	1690
1485.63	1656.5
1486.69	1646
1487.75	1692.5
1488.81	1659.5
1489.87	1681
1490.93	1652.5
1491.99	1703
1493.04	1703
1494.1	1701
1495.16	1688.5
1496.22	1675
1497.28	1660.5
1498.34	1683
1499.39	1698
1500.45	1691
1501.51	1667.5
1502.57	1699
1503.62	1682.5
1504.68	1703.5
1505.74	1703.5
1506.79	1680
1507.85	1699.5
1508.91	1707
1509.96	1721
1511.02	1691
1512.07	1702
1513.13	1700
1514.19	1690.5
1515.24	1720.5
1516.3	1718.5
1517.35	1725
1518.41	1726.5
1519.46	1718.5
1520.52	1711.5
1521.57	1729
1522.62	1723.5
1523.68	1751
1524.73	1733.5
1525.79	1735
1526.84	1733.5
1527.89	1719.5
1528.95	1725.5
1530	1735
1531.05	1742
1532.1	1743.5
1533.16	1730
1534.21	1736.5
1535.26	1760
1536.31	1786.5
1537.37	1742
1538.42	1739.5
1539.47	1746
1540.52	1732
1541.57	1740.5
1542.62	1755
1543.67	1737
1544.72	1736.5
1545.78	1726.5
1546.83	1736.5
1547.88	1697
1548.93	1716
1549.98	1716.5
1551.03	1733
1552.07	1719.5
1553.12	1731
1554.17	1722.5
1555.22	1707.5
1556.27	1728.5
1557.32	1737.5
1558.37	1721.5
1559.42	1717
1560.47	1729
1561.51	1712.5
1562.56	1719
1563.61	1730
1564.66	1739
1565.7	1701.5
1566.75	1751.5
1567.8	1734
1568.85	1734
1569.89	1735.5
1570.94	1723.5
1571.98	1725.5
1573.03	1726.5
1574.08	1709
1575.12	1737
1576.17	1737.5
1577.21	1736.5
1578.26	1727
1579.31	1753
1580.35	1706
1581.4	1765
1582.44	1706
1583.49	1732
1584.53	1723
1585.57	1720.5
1586.62	1741
1587.66	1729
1588.71	1725.5
1589.75	1749.5
1590.79	1747.5
1591.84	1747
1592.88	1736.5
1593.92	1755.5
1594.97	1747.5
1596.01	1735
1597.05	1754.5
1598.09	1734.5
1599.14	1730.5
1600.18	1721
1601.22	1725.5
1602.26	1707.5
1603.3	1731
1604.34	1675
1605.38	1684
1606.43	1654
1607.47	1675
1608.51	1651
1609.55	1618.5
1610.59	1629.5
1611.63	1598.5
1612.67	1570
1613.71	1579.5
1614.75	1558.5
1615.79	1564
1616.83	1514.5
1617.87	1533
1618.91	1525.5
1619.94	1524
1620.98	1479
1622.02	1469
1623.06	1491
1624.1	1440.5
1625.14	1444.5
1626.17	1427
1627.21	1407
1628.25	1406.5
1629.29	1388.5
1630.32	1396.5
1631.36	1381.5
1632.4	1384.5
1633.43	1339
1634.47	1358.5
1635.51	1326.5
1636.54	1341
1637.58	1314
1638.62	1310
1639.65	1321
1640.69	1302
1641.72	1290.5
1642.76	1283
1643.79	1266.5
1644.83	1259
1645.86	1258.5
1646.9	1250
1647.93	1241
1648.97	1233.5
1650	1222.5
1651.04	1249
1652.07	1244.5
1653.1	1221.5
1654.14	1214
1655.17	1206.5
1656.2	1198.5
1657.24	1204.5
1658.27	1180.5
1659.3	1175.5
1660.34	1185.5
1661.37	1172
1662.4	1168
1663.43	1143
1664.46	1143
1665.5	1142
1666.53	1146
1667.56	1123
1668.59	1136
1669.62	1133
1670.65	1102.5
1671.68	1107.5
1672.71	1111
1673.74	1117
1674.77	1091
1675.8	1077
1676.83	1097.5
1677.86	1096
1678.89	1063
1679.92	1091.5
1680.95	1079.5
1681.98	1083.5
1683.01	1076
1684.04	1063.5
1685.07	1070.5
1686.1	1041
1687.13	1064
1688.15	1059
1689.18	1056
1690.21	1043.5
1691.24	1045.5
1692.27	1028.5
1693.29	1048
1694.32	1036.5
1695.35	1037.5
1696.37	1049
1697.4	1046
1698.43	1022
1699.45	1021.5
1700.48	1037.5
1701.51	1027
1702.53	1033.5
1703.56	1029
1704.58	990.5
1705.61	1026.5
1706.64	998
1707.66	991.5
1708.69	1018.5
1709.71	1005
1710.73	1005
1711.76	1010.5
1712.78	1002.5
1713.81	993.5
1714.83	988.5
1715.86	992
1716.88	996
1717.9	994
1718.93	999.5
1719.95	989.5
1720.97	984.5
1722	957
1723.02	990.5
1724.04	985
1725.06	970.5
1726.09	952
1727.11	968
1728.13	974
1729.15	967
1730.17	970.5
1731.2	970
1732.22	951.5
1733.24	956.5
1734.26	951.5
1735.28	943
1736.3	942
1737.32	957
1738.34	956.5
1739.36	944.5
1740.38	958
1741.4	929.5
1742.42	937.5
1743.44	932.5
1744.46	948.5
1745.48	936
1746.5	929.5
1747.52	941
1748.54	923
1749.56	918
1750.57	924.5
1751.59	917.5
1752.61	907.5
1753.63	937
1754.65	946
1755.66	907.5
1756.68	916.5
1757.7	917
1758.72	905.5
1759.73	905
1760.75	920
1761.77	900
1762.78	899
1763.8	904
1764.82	902.5
1765.83	914.5
1766.85	900
1767.86	893.5
1768.88	885.5
1769.9	877.5
1770.91	891.5
1771.93	888
1772.94	879.5
1773.96	865
1774.97	892.5
1775.99	882
1777	879
1778.01	891.5
1779.03	895
1780.04	877
1781.06	869
1782.07	883
1783.08	851
1784.1	853
1785.11	856.5
1786.12	861
1787.14	864.5
1788.15	859
1789.16	861.5
1790.17	858
1791.18	877
1792.2	852.5
1793.21	838
1794.22	845
1795.23	860
1796.24	859
1797.26	843.5
1798.27	819
1799.28	842
1800.29	845
1801.3	834
1802.31	835.5
1803.32	840.5
1804.33	816
1805.34	856
1806.35	829.5
1807.36	852
1808.37	846
1809.38	837.5
1810.39	834
1811.4	833.5
1812.4	825.5
1813.41	817
1814.42	836
1815.43	820.5
1816.44	825.5
1817.45	815.5
1818.45	827
1819.46	813.5
1820.47	809
1821.48	799
1822.49	812.5
1823.49	803.5
1824.5	789
1825.51	816.5
1826.51	808
1827.52	794
1828.53	809
1829.53	791.5
1830.54	786.5
1831.54	768.5
1832.55	791.5
1833.56	787
1834.56	815.5
1835.57	798.5
1836.57	793
1837.58	808
1838.58	792
1839.59	795.5
1840.59	785.5
1841.59	786.5
1842.6	782.5
1843.6	769
1844.61	787.5
1845.61	770
1846.61	779
1847.62	749
1848.62	771.5
1849.62	787.5
1850.63	774.5
1851.63	766
1852.63	787
1853.64	764
1854.64	763.5
1855.64	775.5
1856.64	776.5
1857.64	762.5
1858.65	757
1859.65	760
1860.65	768.5
1861.65	759
1862.65	755
1863.65	761
1864.65	753.5
1865.65	749
1866.65	755
1867.65	747
1868.65	745.5
1869.65	756
1870.65	762
1871.65	736.5
1872.65	746
1873.65	758
1874.65	742
1875.65	731
1876.65	731.5
1877.65	735
1878.65	727.5
1879.65	729
1880.65	743.5
1881.64	739
1882.64	730.5
1883.64	730
1884.64	723
1885.63	729
1886.63	735
1887.63	731
1888.63	711.5
1889.62	717.5
1890.62	738
1891.62	718
1892.61	728.5
1893.61	733.5
1894.61	715
1895.6	720
1896.6	731.5
1897.59	715.5
1898.59	706.5
1899.58	734
1900.58	719
1901.57	718
1902.57	723.5
1903.56	715.5
1904.56	719.5
1905.55	723
1906.55	725.5
1907.54	725
1908.54	734
1909.53	727
1910.52	720
1911.52	715
1912.51	691
1913.5	709
1914.5	695.5
1915.49	716.5
1916.48	709
1917.48	708
1918.47	712
1919.46	719
1920.45	720
1921.44	692.5
1922.44	709
1923.43	694.5
1924.42	696
1925.41	709.5
1926.4	717.5
1927.39	697
1928.38	708.5
1929.38	708
1930.37	702.5
1931.36	697
1932.35	696.5
1933.34	718
1934.33	687.5
1935.32	696
1936.31	710
1937.3	688.5
1938.29	705
1939.28	698.5
1940.26	689.5
1941.25	669.5
1942.24	678.5
1943.23	705
1944.22	685
1945.21	693
1946.2	706
1947.18	691
1948.17	687
1949.16	697.5
1950.15	691.25
1951.13	679
1952.12	674
1953.11	679
1954.1	680.5
1955.08	681
1956.07	673
1957.06	673.5
1958.04	688.5
1959.03	653.5
1960.01	682.5
1961	689
1961.99	672
1962.97	673
1963.96	673
1964.94	665.5
1965.93	678.5
1966.91	673
1967.9	662.5
1968.88	647
1969.87	661.5
1970.85	666
1971.84	658
1972.82	655
1973.81	655
1974.79	649.5
1975.77	660
1976.76	664.5
1977.74	663
1978.72	646
1979.71	663
1980.69	649.5
1981.67	661
1982.65	653.5
1983.64	646.5
1984.62	664.5
1985.6	665.5
1986.58	637.5
1987.56	657.5
1988.55	649
1989.53	649.5
1990.51	638.5
1991.49	639
1992.47	653.5
1993.45	638.5
1994.43	644.5
1995.41	651
1996.39	646
1997.37	646.5
1998.36	630
1999.34	643
2000.31	625
2001.29	648.5
2002.27	641
2003.25	629
2004.23	649.5
2005.21	629.5
2006.19	641.5
2007.17	649.5
2008.15	630
2009.13	644
2010.11	637
2011.08	629
2012.06	621
2013.04	632.5
2014.02	619.5
2015	626.5
2015.97	629
2016.95	622.5
2017.93	626
2018.91	619
2019.88	619.5
2020.86	611
2021.83	621.5
2022.81	628.5
2023.79	623.5
2024.76	624.5
2025.74	623
2026.72	630.5
2027.69	636
2028.67	616
2029.64	623
2030.62	617
2031.59	622
2032.57	610
2033.54	596
2034.52	616
2035.49	610.5
2036.47	613.5
2037.44	617
2038.41	603
2039.39	595
2040.36	600
2041.34	606
2042.31	591
2043.28	616
2044.26	614
2045.23	621.5
2046.2	624.5
2047.17	593
2048.15	595
2049.12	600.5
2050.09	587.5
2051.06	601
2052.04	604
2053.01	606.5
2053.98	609.5
2054.95	605
2055.92	604.5
2056.89	598
2057.86	596
2058.84	591
2059.81	582.5
2060.78	579
2061.75	600
2062.72	581.5
2063.69	592.5
2064.66	584
2065.63	591
2066.6	601
2067.57	586.5
2068.54	581
2069.51	597.5
2070.48	595
2071.44	587.5
2072.41	585
2073.38	582
2074.35	587
2075.32	586
2076.29	581.5
2077.26	602
2078.22	599
2079.19	572.5
2080.16	567
2081.13	580
2082.09	582
2083.06	579.5
2084.03	594
2085	572
2085.96	579.5
2086.93	571
2087.9	585
2088.86	569
2089.83	588
2090.79	577.5
2091.76	578
2092.73	589.5
2093.69	574
2094.66	575.5
2095.62	564.5
2096.59	566.5
2097.55	580
2098.52	580
2099.48	579.5
2100.45	596.5
2101.41	588
2102.38	572
2103.34	601.5
2104.3	587
2105.27	581.5
2106.23	591
2107.19	601.5
2108.16	614
2109.12	601
2110.08	611
2111.05	622
2112.01	643.5
2112.97	634
2113.94	647.5
2114.9	642.5
2115.86	646
2116.82	659.5
2117.78	671.5
2118.75	676
2119.71	680
2120.67	696
2121.63	687
2122.59	730
2123.55	715
2124.51	721
2125.47	725.5
2126.43	744
2127.4	730.5
2128.36	730
2129.32	757
2130.28	722
2131.24	737.5
2132.2	721.5
2133.16	748
2134.11	720.5
2135.07	728
2136.03	714.5
2136.99	715
2137.95	704
2138.91	691.5
2139.87	677.5
2140.83	680
2141.78	676
2142.74	668.5
2143.7	665
2144.66	656.5
2145.62	652.601
2146.57	654.829
2147.53	646.104
2148.49	625.896
2149.45	643.157
2150.4	645.679
2151.36	634.827
2152.32	628.048
2153.27	642.843
2154.23	617.822
2155.19	622.886
2156.14	607.524
2157.1	619.939
2158.05	618.084
2159.01	622.358
2159.96	596.452
2160.92	607.96
2161.88	586.362
2162.83	587.156
2163.78	582.269
2164.74	568.564
2165.69	574.954
2166.65	573.44
2167.6	576.18
2168.56	563.212
2169.51	558.725
2170.47	559.531
2171.42	555.728
2172.37	542.513
2173.33	553.841
2174.28	555.045
2175.23	546.717
2176.19	544.842
2177.14	551.222
2178.09	532.04
2179.04	522.589
2180	521.909
2180.95	521.316
2181.9	515.163
2182.85	526.075
2183.81	530.564
2184.76	515.677
2185.71	521.241
2186.66	521.594
2187.61	508.969
2188.56	508.208
2189.51	511.463
2190.46	505.963
2191.42	515.49
2192.37	513.278
2193.32	508.86
2194.27	514.419
2195.22	505.588
2196.17	508.575
2197.12	509.037
2198.07	512.811
2199.02	507.008
2199.97	504.447
2200.92	511.134
2201.86	506.603
2202.81	494.045
2203.76	500.713
2204.71	505.273
2205.66	493.357
2206.61	501.894
2207.56	501.172
2208.5	502.124
2209.45	504.923
2210.4	496.876
2211.35	501.911
2212.3	505.567
2213.24	505.523
2214.19	501.741
2215.14	497.966
2216.08	494.094
2217.03	502.083
2217.98	497.881
2218.92	495.793
2219.87	492.925
2220.82	489.209
2221.76	485.108
2222.71	498.118
2223.65	499.025
2224.6	501.573
2225.55	499.113
2226.49	496.563
2227.44	493.887
2228.38	494.196
2229.33	493.117
2230.27	492.915
2231.22	492.192
2232.16	491.658
2233.11	488.166
2234.05	498.043
2234.99	489.632
2235.94	485.895
2236.88	492.937
2237.83	494.624
2238.77	492.861
2239.71	492.233
2240.66	495.86
2241.6	500.202
2242.06	505.5
2243.01	497.5
2243.96	493
2244.91	502
2245.85	493.5
2246.8	498
2247.75	497.5
2248.7	492
2249.64	497.5
2250.59	494
2251.54	493
2252.48	502
2253.43	489
2254.38	489.5
2255.32	487.5
2256.27	472
2257.21	469.5
2258.16	475
2259.1	479
2260.05	466
2260.99	493.5
2261.94	482.5
2262.89	455.5
2263.83	474.5
2264.77	448
2265.72	461.5
2266.66	468
2267.61	445.5
2268.55	471
2269.5	457.5
2270.44	461
2271.38	449.5
2272.33	441
2273.27	449
2274.21	454
2275.16	454.5
2276.1	451
2277.04	462.5
2277.98	464.5
2278.93	456
2279.87	447.5
2280.81	449.5
2281.75	439.5
2282.7	441
2283.64	453.5
2284.58	449
2285.52	454.5
2286.46	452.5
2287.4	455.5
2288.34	455
2289.29	447.5
2290.23	447
2291.17	440.5
2292.11	442
2293.05	438
2293.99	441.5
2294.93	435
2295.87	455.5
2296.81	440
2297.75	454
2298.69	428.5
2299.63	447.5
2300.57	435.5
2301.51	446
2302.44	431.5
2303.38	434.5
2304.32	444.5
2305.26	433
2306.2	424
2307.14	436
2308.08	440.5
2309.01	425.5
2309.95	429.5
2310.89	420.5
2311.83	437
2312.77	440
2313.7	426
2314.64	446.5
2315.58	439.5
2316.51	420
2317.45	433.5
2318.39	419.5
2319.32	426
2320.26	429
2321.2	442
2322.13	433
2323.07	419
2324	432
2324.94	422.5
2325.88	434
2326.81	433
2327.75	420
2328.68	432
2329.62	417.5
2330.55	432.5
2331.49	433.5
2332.42	430
2333.35	424.5
2334.29	412
2335.22	434
2336.16	419
2337.09	429.5
2338.02	422.5
2338.96	423.5
2339.89	408.5
2340.82	416.5
2341.76	427.5
2342.69	416
2343.62	417
2344.56	419.5
2345.49	419.5
2346.42	413
2347.35	407
2348.29	413.5
2349.22	398
2350.15	415.5
2351.08	414.5
2352.01	411
2352.94	418
2353.88	407.5
2354.81	416
2355.74	413
2356.67	413.5
2357.6	412
2358.53	398.5
2359.46	410.5
2360.39	413.5
2361.32	420
2362.25	405.5
2363.18	424.5
2364.11	409
2365.04	397
2365.97	413.5
2366.9	413
2367.83	411.5
2368.76	395
2369.69	405.5
2370.62	413
2371.55	399
2372.47	405
2373.4	412
2374.33	402.5
2375.26	410.5
2376.19	402.5
2377.11	400
2378.04	393
2378.97	409
2379.9	405.5
2380.83	407.5
2381.75	392
2382.68	396
2383.61	400
2384.53	387
2385.46	392.5
2386.39	395
2387.31	400.5
2388.24	405.5
2389.17	400.5
2390.09	402
2391.02	410
2391.94	397.5
2392.87	411
2393.79	398
2394.72	389
2395.64	392.5
2396.57	384
2397.49	396
2398.42	398.5
2399.34	392
2400.27	388.5
2401.19	402
2402.12	387
2403.04	394
2403.96	393
2404.89	385
2405.81	397.5
2406.74	395
2407.66	388.5
2408.58	383
2409.51	386
2410.43	386
2411.35	379
2412.27	398.5
2413.2	396
2414.12	387
2415.04	387
2415.96	388
2416.89	378
2417.81	378
2418.73	390
2419.65	366
2420.57	390
2421.49	384.5
2422.41	379
2423.34	396
2424.26	385
2425.18	391.5
2426.1	377.5
2427.02	384.5
2427.94	386.5
2428.86	380.5
2429.78	390
2430.7	384.5
2431.62	388
2432.54	388
2433.46	381
2434.38	376
2435.3	380.5
2436.22	374.5
2437.13	389
2438.05	374.5
2438.97	380
2439.89	374
2440.81	379
2441.73	379
2442.65	375.5
2443.56	369.5
2444.48	384.5
2445.4	377
2446.32	372.5
2447.24	369
2448.15	375.5
2449.07	385
2449.99	376
2450.9	369.5
2451.82	385
2452.74	367
2453.65	378
2454.57	377.5
2455.49	371.5
2456.4	359.5
2457.32	376.5
2458.23	366
2459.15	370.5
2460.07	365.5
2460.98	372.5
2461.9	371.5
2462.81	367
2463.73	361
2464.64	373
2465.56	374
2466.47	364.5
2467.39	369
2468.3	370.5
2469.21	372.5
2470.13	375
2471.04	380.5
2471.96	365
2472.87	380
2473.78	369.5
2474.7	372
2475.61	365
2476.52	358.5
2477.44	365
2478.35	363.5
2479.26	365
2480.17	361
2481.09	361.5
2482	367.5
2482.91	368
2483.82	372.5
2484.74	373.5
2485.65	350.5
2486.56	360
2487.47	371
2488.38	359.5
2489.29	359.5
2490.21	354.5
2491.12	360
2492.03	345.5
2492.94	351
2493.85	361
2494.76	358
2495.67	363.5
2496.58	357
2497.49	354
2498.4	355.5
2499.31	341
2500.22	348.5
2501.13	348
2502.04	358.5
2502.95	343.5
2503.86	361
2504.76	346
2505.67	354
2506.58	358
2507.49	337.5
2508.4	348.5
2509.31	342
2510.22	340
2511.12	356.5
2512.03	359.5
2512.94	361.5
2513.85	344.5
2514.76	345.5
2515.66	344.5
2516.57	335.5
2517.48	347.5
2518.38	343
2519.29	350
2520.2	348
2521.1	343.5
2522.01	347.5
2522.92	342
2523.82	347
2524.73	347.5
2525.64	351
2526.54	341.5
2527.45	334.5
2528.35	337
2529.26	348
2530.16	342.5
2531.07	336.5
2531.97	341.5
2532.88	333.5
2533.78	346
2534.69	332
2535.59	339
2536.5	336.5
2537.4	334
2538.31	337
2539.21	328.5
2540.11	341.5
2541.02	340
2541.92	331
2542.82	337
2543.73	330
2544.63	330.5
2545.53	335
2546.44	350.5
2547.34	331.5
2548.24	335.5
2549.14	322
2550.05	330
2550.95	337.5
2551.85	331
2552.75	333
2553.65	341.5
2554.56	351
2555.46	329.5
2556.36	315
2557.26	326
2558.16	339.5
2559.06	325
2559.96	329
2560.86	325.5
2561.76	333.5
2562.67	325.5
2563.57	316.5
2564.47	331.5
2565.37	334.5
2566.27	332
2567.17	312
2568.06	333.5
2568.96	324
2569.86	326.5
2570.76	330
2571.66	331.5
2572.56	329
2573.46	321.5
2574.36	320.5
2575.26	317
2576.16	321
2577.05	320
2577.95	324.5
2578.85	319
2579.75	315.5
2580.65	320
2581.54	320
2582.44	330.5
2583.34	328.5
2584.24	316
2585.13	330
2586.03	308
2586.93	311
2587.83	318
2588.72	322
2589.62	317.5
2590.51	322.5
2591.41	322.5
2592.31	324
2593.2	323.5
2594.1	325
2594.99	311.5
2595.89	315
2596.79	311
2597.68	308.5
2598.58	311.5
2599.47	321.5
2600.37	320
2601.26	316.5
2602.16	321.5
2603.05	306.5
2603.94	313.5
2604.84	306.5
2605.73	306.5
2606.63	312.5
2607.52	316.5
2608.42	314
2609.31	319
2610.2	310
2611.1	318.5
2611.99	313
2612.88	306
2613.78	312
2614.67	306.5
2615.56	316
2616.45	307
2617.35	309.5
2618.24	307
2619.13	315.5
2620.02	313.5
2620.91	307.5
2621.81	299
2622.7	303
2623.59	309.5
2624.48	302
2625.37	316
2626.26	305
2627.15	302
2628.04	301
2628.94	312.5
2629.83	305
2630.72	303
2631.61	294.5
2632.5	304
2633.39	316
2634.28	313.5
2635.17	294
2636.06	302
2636.95	301.5
2637.84	299.5
2638.73	301.5
2639.61	289.5
2640.5	290.5
2641.39	293.5
2642.28	301
2643.17	296
2644.06	299.5
2644.95	295
2645.84	295
2646.72	299.5
2647.61	290.5
2648.5	305
2649.39	297.5
2650.28	297.5
2651.16	295
2652.05	297
2652.94	297
2653.82	304
2654.71	292
2655.6	299
2656.49	294
2657.37	293.5
2658.26	301
2659.14	301.5
2660.03	291
2660.92	293
2661.8	302
2662.69	286.5
2663.57	299.5
2664.46	304
2665.35	290
2666.23	287.5
2667.12	301.5
2668	292.5
2668.89	286
2669.77	287.5
2670.66	289
2671.54	285.5
2672.42	289
2673.31	292.5
2674.19	295.5
2675.08	295
2675.96	291.5
2676.84	293.5
2677.73	283
2678.61	284
2679.49	289
2680.38	295.5
2681.26	287
2682.14	290.5
2683.03	291.5
2683.91	291.5
2684.79	277.5
2685.68	296
2686.56	285.5
2687.44	289
2688.32	285
2689.2	279.5
2690.09	289.5
2690.97	283
2691.85	287.5
2692.73	283.5
2693.61	286
2694.49	296
2695.37	282.5
2696.25	287.5
2697.14	276.5
2698.02	283
2698.9	278.5
2699.78	286
2700.66	275
2701.54	274.5
2702.42	274.5
2703.3	277.5
2704.18	283
2705.06	279.5
2705.94	287.5
2706.82	282
2707.7	268
2708.57	278
2709.45	272.5
2710.33	275.5
2711.21	279
2712.09	279.5
2712.97	282.5
2713.85	280.5
2714.72	280
2715.6	284.5
2716.48	275.5
2717.36	273
2718.24	276.5
2719.11	282
2719.99	279
2720.87	272
2721.75	273
2722.62	270
2723.5	270
2724.38	278.5
2725.25	268
2726.13	283
2727.01	272.5
2727.88	272.5
2728.76	276
2729.63	274
2730.51	272.5
2731.39	280.5
2732.26	266.5
2733.14	274.5
2734.01	275.5
2734.89	277
2735.76	273
2736.64	259
2737.51	263.5
2738.39	266.5
2739.26	269
2740.14	282
2741.01	268.5
2741.89	256
2742.76	273.5
2743.63	257.5
2744.51	267.5
2745.38	263
2746.26	274
2747.13	275
2748	268
2748.88	264
2749.75	267
2750.62	264
2751.5	266.5
2752.37	263
2753.24	264
2754.11	260
2754.99	262.5
2755.86	273
2756.73	266
2757.6	262.5
2758.47	263.5
2759.35	253
2760.22	261
2761.09	251.5
2761.96	270.5
2762.83	257
2763.7	259
2764.57	258
2765.44	260.5
2766.32	263.5
2767.19	264.5
2768.06	258.5
2768.93	260
2769.8	257
2770.67	259
2771.54	259.5
2772.41	255
2773.28	252
2774.15	247
2775.02	250
2775.89	256
2776.75	252
2777.62	249
2778.49	262.5
2779.36	260.5
2780.23	248
2781.1	258
2781.97	247.5
2782.84	258.5
2783.7	250
2784.57	262
2785.44	263
2786.31	247
2787.18	248
2788.04	256
2788.91	257.5
2789.78	252
2790.64	256
2791.51	260
2792.38	259.5
2793.24	246.5
2794.11	254
2794.98	248.5
2795.85	248
2796.71	252
2797.58	251
2798.44	252.5
2799.31	257
2800.18	248.5
2801.04	251.5
2801.91	254.5
2802.77	242.5
2803.64	250
2804.5	249.5
2805.37	250.5
2806.23	251
2807.1	249.5
2807.96	236.5
2808.83	253
2809.69	249
2810.55	248
2811.42	254
2812.28	249.5
2813.15	246
2814.01	250.5
2814.88	256
2815.74	243.5
2816.6	256.5
2817.46	236.5
2818.33	238
2819.19	246
2820.05	234.5
2820.92	250
2821.78	243.5
2822.64	237.5
2823.51	244
2824.37	232.5
2825.23	240
2826.09	247
2826.95	240
2827.81	247.5
2828.68	248.5
2829.54	243
2830.4	241.5
2831.26	246.5
2832.12	240
2832.98	241
2833.84	240
2834.71	238
2835.57	241
2836.43	250
2837.29	244
2838.15	254.5
2839.01	243
2839.87	244
2840.73	246
2841.59	248
2842.45	247.5
2843.31	243.5
2844.17	262
2845.02	243
2845.88	250.5
2846.74	260.5
2847.6	258
2848.46	241
2849.32	254.5
2850.18	258
2851.04	260.5
2851.9	266
2852.75	266.5
2853.61	255
2854.47	261.5
2855.33	257.5
2856.19	254
2857.04	255
2857.9	243
2858.76	251
2859.61	249
2860.47	254
2861.33	250.5
2862.19	255
2863.04	247
2863.9	254
2864.76	252.5
2865.61	252.5
2866.47	261.5
2867.32	257
2868.18	251
2869.04	251.5
2869.89	254.5
2870.75	254
2871.6	254
2872.46	253.5
2873.31	249
2874.17	246.5
2875.02	253
2875.88	256
2876.73	255.5
2877.59	248
2878.44	254
2879.3	258.5
2880.15	261
2881	256.5
2881.86	245.5
2882.71	258
2883.57	263
2884.42	245.5
2885.27	243.5
2886.13	251
2886.98	256
2887.83	255.5
2888.69	255
2889.54	251.5
2890.39	249.5
2891.24	260.5
2892.1	263
2892.95	253
2893.8	255
2894.65	257
2895.51	256.5
2896.36	266.5
2897.21	253
2898.06	257
2898.91	251.5
2899.76	259
2900.62	257
2901.47	259
2902.32	261.5
2903.17	258.5
2904.02	264
2904.87	259.5
2905.72	259
2906.57	260
2907.42	259
2908.27	260.5
2909.12	259
2909.97	264.5
2910.82	257
2911.67	268.5
2912.52	257
2913.37	252.5
2914.22	265.5
2915.07	268
2915.92	259
2916.77	269
2917.62	260
2918.47	263
2919.31	259
2920.16	267
2921.01	259
2921.86	263
2922.71	266.5
2923.55	256.5
2924.4	264.5
2925.25	271
2926.1	266.5
2926.94	254
2927.79	268
2928.64	258.5
2929.49	265.5
2930.33	264
2931.18	259
2932.03	273
2932.87	263.5
2933.72	276
2934.57	254
2935.41	268.5
2936.26	253.5
2937.11	266
2937.95	260.5
2938.8	262
2939.64	265
2940.49	253
2941.33	254.5
2942.18	254
2943.02	240
2943.87	262.5
2944.71	261
2945.56	261
2946.4	253
2947.25	236.5
2948.09	233
2948.94	233
2949.78	249
2950.63	230
2951.47	240
2952.31	233
2953.16	227
2954	234
2954.84	242.5
2955.69	242.5
2956.53	234
2957.37	228.5
2958.22	237
2959.06	228.5
2959.9	222
2960.75	225
2961.59	231.5
2962.43	237
2963.27	223
2964.11	215
2964.96	235
2965.8	225
2966.64	221.5
2967.48	233.5
2968.32	227
2969.16	224.5
2970.01	220.5
2970.85	226
2971.69	220
2972.53	222
2973.37	214
2974.21	220
2975.05	207
2975.89	207.5
2976.73	223
2977.57	207.5
2978.41	207.5
2979.25	212.5
2980.09	215
2980.93	219.5
2981.77	209
2982.61	210
2983.45	216
2984.29	205.5
2985.13	214
2985.97	208.5
2986.81	215
2987.65	199.5
2988.49	202
2989.32	203
2990.16	214
2991	199.5
2991.84	198.5
2992.68	208
2993.51	200.5
2994.35	199
2995.19	206.5
2996.03	208.5
2996.86	197.5
2997.7	198.5
2998.54	199.5
2999.38	196.5
