#Acq. time (s)=	5
#Accumulations=	5
#Range (cm-¹)=	100...3000
#Windows=	3
#Autofocus=	Off
#AutoExposure=	Off
#Spike filter=	Multiple accum.
#Delay time (s)=	0
#Binning=	1
#Readout mode=	Signal
#DeNoise=	Off
#ICS correction=	Off
#Dark correction=	Off
#Inst. Process=	Off
#Instrument=	LabRAM HR Evol
#Detector=	Syncerity OE
#Objective=	x100_VIS_LWD
#Grating=	600 (500nm)
#ND Filter=	100%
#Laser=	633nm_Edge
#Hole=	100.021
#Range=	Visible
#Project=	Omar
#Sample=	chi
#Site=	f
#Title=	nsno
#Remark=	
#Date=	12.09.2023 17:03
#Acquired=	12.09.2023 17:03:16
101.026	2963.5
102.309	2923
103.592	2910
104.875	2880.5
106.158	2828.5
107.441	2813
108.723	2776
110.005	2771.5
111.289	2740
112.571	2723.5
113.852	2689.5
115.134	2688.5
116.415	2684.5
117.696	2616
118.976	2641.5
120.257	2586
121.537	2618.5
122.817	2572.5
124.097	2564.5
125.377	2551
126.656	2528
127.936	2519
129.215	2528
130.493	2494.5
131.772	2466
133.049	2455.5
134.327	2433
135.605	2449.5
136.883	2402.5
138.161	2352
139.438	2390
140.715	2331.5
141.992	2338
143.269	2309
144.545	2287.5
145.82	2281
147.096	2279
148.372	2245.5
149.648	2241.5
150.924	2196.5
152.199	2223
153.472	2230.5
154.747	2200.5
156.022	2149
157.296	2138.5
158.571	2136.5
159.843	2135
161.117	2113
162.391	2143
163.664	2094.5
164.937	2092
166.209	2076.5
167.482	2044.5
168.754	2051.5
170.025	2048.5
171.297	2069.5
172.569	2009.5
173.841	2050.5
175.111	2019
176.383	2042
177.654	2016.5
178.923	2007.5
180.194	2012
181.464	2019.5
182.733	1980
184.003	1988.5
185.273	2011.5
186.542	1982
187.811	1979
189.079	2012
190.348	1962.5
191.617	1983
192.884	1975.5
194.152	1978.5
195.419	1973.5
196.687	2015
197.955	1989
199.221	2001.5
200.489	1982.5
201.755	2003.5
203.022	2033.5
204.287	2038
205.554	1999.5
206.818	2002
208.085	2027.5
209.349	2025.5
210.615	2041.5
211.879	2004
213.144	2032
214.408	2021
215.673	2034.5
216.936	1991.5
218.201	2034.5
219.464	2038
220.728	2013.5
221.99	2025
223.253	2061.5
224.516	2017
225.778	2036
227.041	2041
228.303	2046
229.564	2020.5
230.826	2033.5
232.087	2078.5
233.348	2037.5
234.61	2038
235.87	2034.5
237.13	2054.5
238.391	2048.5
239.651	2090
240.91	2070.5
242.171	2056
243.43	2079.5
244.689	2074.5
245.949	2108
247.207	2084.5
248.465	2072
249.723	2130
250.983	2126
252.24	2099.5
253.498	2099.5
254.755	2112.5
256.013	2111.5
257.27	2122.5
258.526	2101
259.783	2137
261.039	2108
262.296	2159.5
263.552	2117
264.808	2125
266.063	2130.5
267.318	2135
268.573	2107.5
269.828	2151
271.084	2138.5
272.338	2110
273.592	2112
274.846	2113
276.1	2111
277.353	2120.5
278.607	2112.5
279.86	2140.5
281.113	2137.5
282.365	2163.5
283.619	2153.5
284.872	2169
286.124	2127
287.376	2140
288.627	2166
289.879	2186
291.13	2154
292.381	2167.5
293.632	2183.5
294.883	2176
296.133	2169
297.384	2195.5
298.634	2217
299.883	2208
301.133	2206
302.381	2195
303.63	2201.5
304.879	2201.5
306.128	2215
307.377	2238
308.625	2206
309.874	2187
311.122	2185.5
312.37	2185.5
313.617	2168
314.863	2191.5
316.111	2184.5
317.358	2181
318.604	2171
319.851	2170.5
321.098	2172
322.342	2168
323.588	2153
324.834	2143.5
326.08	2153.5
327.325	2146
328.569	2143
329.814	2133
331.059	2119
332.304	2083
333.548	2102
334.791	2112.5
336.035	2109
337.279	2124
338.521	2091.5
339.765	2090
341.008	2101
342.251	2126.5
343.492	2064
344.735	2082.5
345.977	2096
347.218	2095.5
348.46	2060.5
349.702	2084
350.942	2110.5
352.184	2129
353.425	2097.5
354.665	2097
355.905	2102
357.145	2075
358.385	2129
359.625	2100
360.864	2107.5
362.104	2105.5
363.342	2118
364.581	2113
365.819	2139
367.058	2090
368.296	2094.5
369.534	2096
370.771	2074
372.01	2086
373.246	2083
374.484	2089.5
375.72	2076
376.958	2083.5
378.194	2077
379.431	2056.5
380.666	2094
381.903	2097.5
383.138	2093
384.374	2069.5
385.609	2089.5
386.845	2098.5
388.079	2071
389.313	2067
390.548	2071.5
391.782	2075
393.016	2107
394.25	2106
395.483	2053.5
396.718	2088.5
397.95	2071.5
399.183	2060
400.416	2068.5
401.648	2064
402.88	2056.5
404.113	2099
405.345	2094.5
406.576	2095.5
407.807	2111
409.04	2114
410.27	2113
411.501	2089
412.731	2119
413.963	2110
415.193	2135.5
416.422	2118.5
417.652	2134
418.883	2139
420.112	2160.5
421.341	2104
422.569	2129
423.798	2184.5
425.028	2151
426.256	2143
427.484	2153
428.711	2157
429.939	2134.5
431.166	2164.5
432.394	2176
433.622	2175
434.849	2163.5
436.075	2179
437.302	2172
438.528	2145
439.754	2178
440.98	2171
442.205	2159.5
443.431	2182
444.656	2163.5
445.881	2140
447.106	2148
448.33	2194.5
449.555	2156
450.779	2188
452.003	2146
453.227	2160
454.45	2163.5
455.674	2138.5
456.897	2170.5
458.12	2153
459.343	2149
460.566	2171.5
461.788	2129
463.01	2166.5
464.232	2158.5
465.454	2150.5
466.676	2138.5
467.897	2145
469.119	2138.5
470.34	2161.5
471.559	2178.5
472.78	2148
474.001	2173
475.221	2147
476.441	2201.5
477.661	2166.5
478.879	2171
480.099	2178
481.318	2165
482.537	2151
483.756	2199
484.974	2186
486.192	2211.5
487.411	2190
488.629	2210.5
489.847	2216.5
491.063	2194.5
492.281	2211.5
493.498	2239
494.714	2223
495.931	2223
497.148	2188.5
498.365	2248
499.58	2247
500.796	2249
502.012	2235.5
503.226	2225.5
504.442	2236.5
505.657	2221.5
506.871	2227
508.086	2228
509.3	2256.5
510.515	2268.5
511.729	2224.5
512.942	2257.5
514.156	2249
515.369	2242
516.582	2228.5
517.796	2268.5
519.008	2268
520.221	2261.5
521.433	2222
522.645	2246
523.857	2261
525.069	2274
526.28	2259
527.492	2267.5
528.702	2264.5
529.914	2272.5
531.124	2266.5
532.335	2270.5
533.545	2263.5
534.756	2246.5
535.965	2228
537.175	2297
538.384	2286
539.593	2228.5
540.803	2285.5
542.011	2247.5
543.221	2261.5
544.429	2259
545.636	2317.5
546.845	2268
548.052	2286
549.261	2313
550.468	2229.5
551.675	2277
552.883	2251
554.089	2265.5
555.295	2273.5
556.503	2287.5
557.709	2303.5
558.914	2294
560.12	2264
561.326	2269
562.531	2287.5
563.736	2331.5
564.941	2292.5
566.147	2277.5
567.351	2286
568.555	2266
569.759	2300
570.964	2306
572.168	2318
573.371	2304.5
574.574	2300
575.777	2297.5
576.981	2298
578.184	2300.5
579.386	2291
580.588	2272
581.79	2316.5
582.992	2293.5
584.194	2314.5
585.395	2326
586.598	2313
587.799	2304
589	2330
590.201	2310.5
591.401	2316.5
592.601	2313
593.801	2308
595.001	2280
596.201	2306
597.401	2316
598.6	2346.5
599.799	2338
600.998	2302
602.197	2298
603.395	2325
604.594	2337.5
605.792	2346
606.99	2336.5
608.188	2343
609.386	2344.5
610.583	2329
611.78	2355
612.977	2344.5
614.174	2313
615.371	2362
616.566	2345.5
617.762	2350.5
618.958	2349
620.154	2337
621.35	2385
622.546	2355
623.741	2345
624.935	2368
626.13	2374.5
627.325	2377
628.519	2393
629.714	2396
630.908	2351
632.101	2403.5
633.295	2400
634.488	2400
635.682	2415.5
636.874	2416.5
638.067	2422
639.26	2409.5
640.453	2437
641.644	2407.5
642.836	2426.5
644.028	2414
645.219	2403
646.411	2412.5
647.602	2379
648.792	2416.5
649.984	2383.5
651.175	2398.5
652.364	2401.5
653.555	2392.5
654.745	2383
655.934	2414.5
657.124	2393
658.314	2382
659.503	2361.5
660.692	2364.5
661.88	2340
663.07	2382.5
664.257	2350
665.446	2370.5
666.635	2361.5
667.822	2345.5
669.01	2327.5
670.197	2323
671.384	2338
672.571	2336.5
673.758	2332
674.944	2304
676.131	2353.5
677.317	2323
678.502	2335
679.689	2359
680.874	2333.5
682.06	2322
683.245	2325
684.431	2310
685.615	2276.5
686.799	2322
687.984	2308.5
689.168	2318
690.353	2340
691.536	2299
692.719	2325.5
693.904	2295
695.086	2307
696.269	2305.5
697.453	2286
698.635	2298.5
699.817	2265.5
701	2301.5
702.182	2310
703.364	2291
704.545	2319.5
705.727	2313
706.908	2286.5
708.089	2286.5
709.27	2298.5
710.451	2290.5
711.632	2287
712.812	2297.5
713.991	2297.5
715.172	2312
716.352	2304.5
717.531	2316.5
718.71	2331.5
719.889	2315
721.068	2329
722.248	2329
723.426	2304.5
724.604	2284
725.782	2294
726.96	2336
728.138	2291
729.315	2328
730.492	2320.5
731.669	2339.5
732.846	2283
734.024	2288
735.201	2340
736.377	2304
737.553	2332.5
738.729	2324
739.905	2296
741.081	2332
742.256	2325.5
743.431	2326.5
744.606	2329.5
745.781	2325.5
746.956	2322.5
748.13	2315.5
749.303	2281
750.477	2309
751.651	2298
752.825	2287
753.999	2294
755.172	2322
756.345	2303
757.518	2278
758.691	2290
759.864	2320.5
761.035	2325
762.207	2297
763.379	2303.5
764.551	2312.5
765.723	2265.5
766.894	2325
768.064	2289
769.236	2304.5
770.407	2254.5
771.577	2304
772.748	2302
773.917	2272
775.088	2312.5
776.258	2304.5
777.427	2281.5
778.596	2307.5
779.765	2315.5
780.935	2310.5
782.104	2313
783.272	2312
784.44	2310
785.609	2297
786.776	2277.5
787.944	2288
789.113	2305.5
790.279	2310
791.447	2296.5
792.613	2287.5
793.78	2278.5
794.948	2321.5
796.113	2295
797.28	2269
798.445	2298
799.612	2286
800.778	2327.5
801.943	2322
803.109	2327
804.273	2324.5
805.439	2343
806.603	2309.5
807.768	2330.5
808.932	2339
810.096	2344
811.26	2341
812.424	2353.5
813.587	2359
814.751	2380.5
815.914	2382
817.078	2399
818.24	2377.5
819.402	2369
820.565	2389
821.727	2396.5
822.889	2375.5
824.051	2368.5
825.212	2403
826.374	2348.5
827.535	2377
828.697	2370.5
829.857	2394
831.018	2369
832.179	2409
833.339	2378.5
834.499	2369.5
835.659	2398.5
836.819	2395.5
837.978	2377
839.137	2408
840.297	2411.5
841.456	2396
842.614	2385
843.772	2380
844.932	2425
846.09	2386
847.247	2379.5
848.405	2425
849.562	2407
850.721	2400
851.878	2392.5
853.034	2440
854.191	2372.5
855.348	2427
856.504	2421.5
857.661	2458
858.817	2436.5
859.973	2425
861.129	2421
862.284	2412.5
863.439	2410.5
864.594	2386.5
865.749	2396.5
866.904	2387
868.058	2378
869.212	2366.5
870.367	2401.5
871.522	2354
872.676	2349
873.829	2362.5
874.983	2353.5
876.136	2336.5
877.289	2363
878.442	2321.5
879.593	2347
880.746	2318
881.898	2326.5
883.05	2340.5
884.202	2342.5
885.354	2329
886.506	2332
887.657	2301
888.808	2305
889.96	2303
891.11	2338
892.261	2286
893.41	2326
894.561	2311
895.711	2298
896.861	2319
898.011	2294.5
899.161	2279
900.309	2302.5
901.458	2297.5
902.607	2272.5
903.756	2277
904.904	2290
906.052	2268
907.201	2285.5
908.349	2274.5
909.496	2244.5
910.644	2292
911.791	2260
912.939	2280
914.085	2255
915.232	2258.5
916.379	2259
917.525	2292.5
918.671	2253.5
919.818	2256
920.963	2254.5
922.109	2275.5
923.255	2294
924.399	2257
925.545	2286
926.689	2274
927.834	2250
928.979	2300.5
930.123	2241.5
931.268	2270.5
932.411	2284.5
933.555	2258
934.698	2252
935.842	2314.5
936.985	2273
938.128	2285.5
939.271	2304.5
940.414	2291
941.556	2275
942.699	2275
943.84	2296.5
944.983	2301
946.124	2282.5
947.266	2299.5
948.407	2298.5
949.547	2288.5
950.689	2290
951.829	2262.5
952.971	2313.5
954.111	2263
955.25	2301
956.391	2305
957.531	2278.5
958.67	2284
959.81	2336.5
960.949	2285.5
962.088	2305
963.227	2320
964.366	2343
965.504	2319.5
966.643	2306
967.781	2322.5
968.919	2313
970.056	2307
971.195	2319.5
972.332	2307
973.469	2289
974.605	2307
975.743	2303.5
976.88	2338.5
978.016	2302
979.152	2307
980.288	2302.5
981.423	2289
982.56	2335.5
983.696	2320
984.831	2317
985.966	2314
987.101	2287
988.235	2297.5
989.37	2302
990.504	2319.5
991.638	2302
992.773	2288
993.907	2290.5
995.041	2302
996.174	2360.5
997.307	2391
998.44	2376
999.573	2433.5
1000.71	2433
1001.84	2375
1002.97	2338
1004.1	2324.5
1005.24	2292.5
1006.37	2313
1007.5	2298.5
1008.63	2272.5
1009.76	2283.5
1010.89	2298
1012.02	2256
1013.15	2291
1014.28	2294.5
1015.41	2280.5
1016.54	2296.5
1017.67	2285
1018.8	2310
1019.93	2282.5
1021.06	2331
1022.19	2302
1023.32	2291.5
1024.45	2335
1025.58	2322
1026.71	2310
1027.84	2323.5
1028.96	2311
1030.09	2325
1031.22	2340
1032.35	2314.5
1033.47	2343
1034.6	2278.5
1035.73	2362.5
1036.86	2333
1037.98	2310.5
1039.11	2323.5
1040.23	2317.5
1041.36	2344
1042.49	2339
1043.61	2338
1044.74	2335.5
1045.86	2343
1046.99	2353.5
1048.11	2334.5
1049.24	2326
1050.36	2332.5
1051.49	2359
1052.61	2324
1053.74	2328.5
1054.86	2355.5
1055.98	2323
1057.11	2349.5
1058.23	2295.5
1059.35	2330
1060.48	2330
1061.6	2332
1062.72	2340
1063.84	2317.5
1064.97	2331.5
1066.09	2325
1067.21	2338
1068.33	2317
1069.45	2330
1070.57	2328
1071.7	2349
1072.82	2337.5
1073.94	2357
1075.06	2338
1076.18	2354
1077.3	2335
1078.42	2335
1079.54	2299.5
1080.66	2329
1081.78	2338
1082.9	2284
1084.02	2278
1085.14	2286
1086.25	2315
1087.37	2330.5
1088.49	2325
1089.61	2306
1090.73	2299
1091.84	2294.5
1092.96	2328
1094.08	2296
1095.2	2299
1096.31	2308.5
1097.43	2280
1098.55	2305.5
1099.66	2265
1100.78	2306
1101.9	2304
1103.01	2329
1104.13	2314.5
1105.25	2291
1106.36	2328
1107.48	2294
1108.59	2293.5
1109.71	2267.5
1110.82	2282
1111.93	2271.5
1113.05	2309
1114.16	2305
1115.28	2326
1116.39	2302
1117.51	2291
1118.62	2321
1119.73	2259.5
1120.85	2297.5
1121.96	2288
1123.07	2290.5
1124.18	2280.5
1125.3	2314.5
1126.41	2313
1127.52	2273.5
1128.63	2273.5
1129.74	2297.5
1130.85	2314.5
1131.97	2317
1133.08	2321
1134.19	2333.5
1135.3	2306
1136.41	2336
1137.52	2302.5
1138.63	2341
1139.74	2362.5
1140.85	2333
1141.96	2324
1143.07	2347.5
1144.18	2376
1145.29	2335.5
1146.4	2362.5
1147.51	2356.5
1148.61	2372
1149.72	2362
1150.83	2372
1151.94	2403.5
1153.05	2367
1154.15	2403
1155.26	2392
1156.37	2441.5
1157.48	2409
1158.58	2414
1159.69	2412
1160.8	2417.5
1161.9	2449.5
1163.01	2436.5
1164.11	2455.5
1165.22	2446.5
1166.33	2466.5
1167.43	2460
1168.54	2466.5
1169.64	2488
1170.75	2448.5
1171.85	2453
1172.96	2470.5
1174.06	2481
1175.17	2464.5
1176.27	2436.5
1177.37	2468
1178.48	2421
1179.58	2427
1180.68	2397
1181.79	2437
1182.89	2412
1183.99	2400.5
1185.1	2417
1186.2	2412
1187.3	2361
1188.4	2392.5
1189.5	2390.5
1190.61	2403.5
1191.71	2412.5
1192.81	2407.5
1193.91	2384.5
1195.01	2390
1196.11	2416.68
1197.21	2396.13
1198.31	2446.42
1199.42	2403.79
1200.51	2392.45
1201.61	2415.68
1202.72	2395.74
1203.81	2384.37
1204.91	2385.19
1206.01	2415.39
1207.11	2387.49
1208.21	2379.35
1209.31	2390.06
1210.41	2418.2
1211.51	2389.51
1212.61	2392.31
1213.7	2406.57
1214.8	2367.3
1215.9	2409.51
1217	2383.65
1218.09	2372.98
1219.19	2354.57
1220.29	2384.52
1221.38	2406.44
1222.48	2388.17
1223.58	2365.42
1224.67	2356.97
1225.77	2354.82
1226.87	2386.51
1227.96	2407.31
1229.06	2398.04
1230.15	2407.05
1231.25	2386.91
1232.34	2391.39
1233.44	2405.93
1234.53	2405.72
1235.63	2396.78
1236.72	2396.43
1237.81	2400.79
1238.91	2415.7
1240	2406.94
1241.1	2411.96
1242.19	2414.32
1243.28	2423.01
1244.38	2418.37
1245.47	2423.54
1246.56	2430.67
1247.65	2444.22
1248.75	2450.27
1249.84	2444.18
1250.93	2457.91
1252.02	2426.13
1253.11	2444.88
1254.21	2449.3
1255.3	2455.32
1256.39	2450.52
1257.48	2470.07
1258.57	2479.26
1259.66	2458.31
1260.75	2450.9
1261.84	2470.75
1262.93	2482.76
1264.02	2468.42
1265.11	2470.63
1266.2	2482.95
1267.29	2486.84
1268.38	2489.72
1269.47	2512.17
1270.56	2514.23
1271.65	2510.31
1272.73	2496.17
1273.82	2484.47
1274.91	2493.85
1276	2485.65
1277.09	2497.07
1278.17	2486.49
1279.26	2500.26
1280.35	2493.4
1281.43	2497.37
1282.52	2501.94
1283.61	2494.89
1284.69	2503.89
1285.78	2498.63
1286.87	2492.17
1287.95	2505.11
1289.04	2513.06
1290.13	2521.82
1291.21	2524.61
1292.3	2518.9
1293.38	2522.47
1294.47	2533.67
1295.55	2489.1
1296.64	2517.27
1297.72	2507.13
1298.8	2526.9
1299.89	2487.62
1300.97	2509.42
1302.06	2520.28
1303.14	2510.35
1304.22	2503
1305.31	2508.47
1306.39	2495.21
1307.34	2494.5
1308.43	2503
1309.52	2481
1310.6	2507
1311.69	2484
1312.78	2500.5
1313.87	2475.5
1314.96	2492
1316.04	2482.5
1317.13	2478
1318.21	2481.5
1319.3	2491.5
1320.39	2484.5
1321.47	2496.5
1322.56	2493
1323.65	2489.5
1324.73	2498.5
1325.82	2483.5
1326.9	2489.5
1327.99	2456.5
1329.07	2499
1330.16	2477
1331.24	2500.5
1332.32	2452
1333.41	2527
1334.49	2472
1335.58	2452.5
1336.66	2471
1337.74	2438
1338.83	2443
1339.91	2405
1340.99	2418
1342.08	2404.5
1343.16	2418
1344.24	2381.5
1345.32	2431
1346.41	2395.5
1347.49	2398.5
1348.57	2380.5
1349.65	2392.5
1350.73	2411
1351.81	2394.5
1352.9	2348
1353.98	2391.5
1355.06	2383.5
1356.14	2385
1357.22	2383.5
1358.3	2375
1359.38	2330.5
1360.46	2354
1361.54	2392.5
1362.62	2387
1363.7	2351.5
1364.78	2332
1365.85	2347.5
1366.93	2354.5
1368.01	2362.5
1369.09	2323.5
1370.17	2355
1371.25	2353
1372.33	2340.5
1373.4	2356.5
1374.48	2309.5
1375.56	2299
1376.64	2343.5
1377.71	2326
1378.79	2338
1379.87	2313
1380.94	2343.5
1382.02	2324.5
1383.1	2319
1384.17	2293
1385.25	2339
1386.32	2299
1387.4	2301.5
1388.47	2325.5
1389.55	2298
1390.63	2322
1391.7	2317.5
1392.77	2290.5
1393.85	2297.5
1394.92	2318
1396	2308
1397.07	2333.5
1398.15	2297
1399.22	2285
1400.29	2321.5
1401.37	2327
1402.44	2312
1403.51	2296.5
1404.59	2344.5
1405.66	2340
1406.73	2333.5
1407.8	2297
1408.87	2322
1409.95	2314
1411.02	2318
1412.09	2342.5
1413.16	2315.5
1414.23	2324
1415.3	2329.5
1416.38	2322
1417.45	2355.5
1418.52	2337
1419.59	2338.5
1420.66	2354
1421.73	2322.5
1422.8	2368.5
1423.87	2371
1424.94	2343
1426.01	2377
1427.08	2348
1428.15	2351.5
1429.21	2381.5
1430.28	2363
1431.35	2360
1432.42	2354.5
1433.49	2400.5
1434.56	2411
1435.63	2377
1436.69	2382.5
1437.76	2361
1438.83	2384.5
1439.89	2374
1440.96	2386
1442.03	2414.5
1443.1	2400.5
1444.16	2429.5
1445.23	2403
1446.3	2413.5
1447.36	2386
1448.43	2404.5
1449.49	2384
1450.56	2406.5
1451.62	2422
1452.69	2397.5
1453.75	2422.5
1454.82	2412.5
1455.88	2393.5
1456.95	2411
1458.01	2439.5
1459.08	2429.5
1460.14	2403
1461.2	2418
1462.27	2443.5
1463.33	2434.5
1464.4	2445.5
1465.46	2423
1466.52	2405.5
1467.58	2442.5
1468.65	2463
1469.71	2457.5
1470.77	2436
1471.83	2427
1472.9	2463
1473.96	2454.5
1475.02	2473
1476.08	2483.5
1477.14	2490
1478.2	2491.5
1479.27	2494
1480.33	2493
1481.39	2472
1482.45	2488.5
1483.51	2460.5
1484.57	2472.5
1485.63	2434.5
1486.69	2467.5
1487.75	2451.5
1488.81	2453
1489.87	2454.5
1490.93	2453
1491.99	2423.5
1493.04	2445.5
1494.1	2437
1495.16	2430
1496.22	2393.5
1497.28	2443
1498.34	2393
1499.39	2384.5
1500.45	2410
1501.51	2403
1502.57	2435.5
1503.62	2430
1504.68	2387
1505.74	2423
1506.79	2398
1507.85	2395
1508.91	2362
1509.96	2387.5
1511.02	2367
1512.07	2360
1513.13	2370.5
1514.19	2372
1515.24	2358.5
1516.3	2357.5
1517.35	2335.5
1518.41	2336.5
1519.46	2376
1520.52	2372.5
1521.57	2371
1522.62	2387
1523.68	2353
1524.73	2347
1525.79	2405.5
1526.84	2351
1527.89	2369.5
1528.95	2395
1530	2336.5
1531.05	2363.5
1532.1	2364.5
1533.16	2350.5
1534.21	2341.5
1535.26	2374.5
1536.31	2371
1537.37	2377
1538.42	2351.5
1539.47	2377.5
1540.52	2371
1541.57	2345
1542.62	2356.5
1543.67	2358.5
1544.72	2360
1545.78	2352
1546.83	2329
1547.88	2360
1548.93	2347.5
1549.98	2366
1551.03	2379.5
1552.07	2372.5
1553.12	2375.5
1554.17	2342.5
1555.22	2351
1556.27	2364.5
1557.32	2381
1558.37	2394
1559.42	2369.5
1560.47	2330.5
1561.51	2360
1562.56	2365
1563.61	2365
1564.66	2341
1565.7	2365.5
1566.75	2384
1567.8	2363
1568.85	2380.5
1569.89	2368
1570.94	2361
1571.98	2372.5
1573.03	2349
1574.08	2338.5
1575.12	2312
1576.17	2325
1577.21	2332
1578.26	2356.5
1579.31	2338.5
1580.35	2308
1581.4	2329
1582.44	2355
1583.49	2338.5
1584.53	2333
1585.57	2329
1586.62	2325.5
1587.66	2343.5
1588.71	2335.5
1589.75	2349
1590.79	2334
1591.84	2358.5
1592.88	2349
1593.92	2331
1594.97	2330.5
1596.01	2360
1597.05	2347.5
1598.09	2363.5
1599.14	2324
1600.18	2332
1601.22	2317
1602.26	2279.5
1603.3	2275.5
1604.34	2281.5
1605.38	2237
1606.43	2205.5
1607.47	2231.5
1608.51	2168
1609.55	2162
1610.59	2144.5
1611.63	2110
1612.67	2114
1613.71	2134
1614.75	2096
1615.79	2052
1616.83	2079
1617.87	2062
1618.91	2046
1619.94	2029
1620.98	2059
1622.02	1995.5
1623.06	1992.5
1624.1	1962
1625.14	1990
1626.17	1988
1627.21	1919.5
1628.25	1929
1629.29	1934
1630.32	1913
1631.36	1926
1632.4	1909
1633.43	1901.5
1634.47	1883
1635.51	1848.5
1636.54	1849
1637.58	1845
1638.62	1822
1639.65	1828.5
1640.69	1823
1641.72	1789.5
1642.76	1803
1643.79	1810
1644.83	1775
1645.86	1767
1646.9	1750.5
1647.93	1725
1648.97	1726
1650	1756.5
1651.04	1733
1652.07	1727.5
1653.1	1721
1654.14	1703.5
1655.17	1671
1656.2	1706
1657.24	1688.5
1658.27	1698
1659.3	1681
1660.34	1680.5
1661.37	1676
1662.4	1639.5
1663.43	1634
1664.46	1652
1665.5	1608
1666.53	1612
1667.56	1605
1668.59	1604.5
1669.62	1597
1670.65	1608
1671.68	1612
1672.71	1614
1673.74	1607.5
1674.77	1594
1675.8	1586
1676.83	1570
1677.86	1591
1678.89	1581
1679.92	1579
1680.95	1582.5
1681.98	1564.5
1683.01	1541
1684.04	1567.5
1685.07	1575
1686.1	1559
1687.13	1552
1688.15	1546
1689.18	1552
1690.21	1553
1691.24	1526.5
1692.27	1521.5
1693.29	1502
1694.32	1517
1695.35	1513.5
1696.37	1534
1697.4	1490.5
1698.43	1511
1699.45	1461.5
1700.48	1493
1701.51	1508.5
1702.53	1501.5
1703.56	1494
1704.58	1479.5
1705.61	1510
1706.64	1475
1707.66	1480
1708.69	1462
1709.71	1465
1710.73	1475
1711.76	1487.5
1712.78	1444
1713.81	1468.5
1714.83	1425
1715.86	1481
1716.88	1459
1717.9	1438
1718.93	1460
1719.95	1443.5
1720.97	1439.5
1722	1423.5
1723.02	1452
1724.04	1437.5
1725.06	1435.5
1726.09	1429.5
1727.11	1446.5
1728.13	1424.5
1729.15	1403
1730.17	1422
1731.2	1428.5
1732.22	1411.5
1733.24	1405.5
1734.26	1403.5
1735.28	1377
1736.3	1395
1737.32	1420.5
1738.34	1426.5
1739.36	1424.5
1740.38	1385.5
1741.4	1392.5
1742.42	1393
1743.44	1408.5
1744.46	1422
1745.48	1396.5
1746.5	1398.5
1747.52	1366
1748.54	1360
1749.56	1386
1750.57	1346
1751.59	1380.5
1752.61	1370
1753.63	1379.5
1754.65	1365.5
1755.66	1367.5
1756.68	1327.5
1757.7	1348
1758.72	1380
1759.73	1353
1760.75	1364
1761.77	1330
1762.78	1330
1763.8	1329.5
1764.82	1330.5
1765.83	1333
1766.85	1330
1767.86	1319
1768.88	1347
1769.9	1338
1770.91	1322
1771.93	1298.5
1772.94	1311
1773.96	1328
1774.97	1311
1775.99	1320.5
1777	1323.5
1778.01	1332
1779.03	1326
1780.04	1286.5
1781.06	1307.5
1782.07	1300
1783.08	1287.5
1784.1	1313
1785.11	1290.5
1786.12	1285
1787.14	1296
1788.15	1272
1789.16	1299
1790.17	1297
1791.18	1262
1792.2	1284
1793.21	1265
1794.22	1279.5
1795.23	1283.5
1796.24	1276.5
1797.26	1255
1798.27	1267
1799.28	1260
1800.29	1249.5
1801.3	1274.5
1802.31	1275
1803.32	1249.5
1804.33	1263.5
1805.34	1256
1806.35	1264.5
1807.36	1263.5
1808.37	1265
1809.38	1275
1810.39	1254
1811.4	1267
1812.4	1237
1813.41	1244.5
1814.42	1261.5
1815.43	1246
1816.44	1260
1817.45	1245.5
1818.45	1260
1819.46	1224
1820.47	1243.5
1821.48	1241.5
1822.49	1226
1823.49	1233.5
1824.5	1225
1825.51	1236
1826.51	1211
1827.52	1224.5
1828.53	1221.5
1829.53	1207.5
1830.54	1224
1831.54	1189.5
1832.55	1212
1833.56	1202
1834.56	1200.5
1835.57	1201
1836.57	1207
1837.58	1214.5
1838.58	1203
1839.59	1211.5
1840.59	1197.5
1841.59	1182
1842.6	1212.5
1843.6	1201
1844.61	1172.5
1845.61	1179
1846.61	1195.5
1847.62	1175.5
1848.62	1173.5
1849.62	1190
1850.63	1180.5
1851.63	1173.5
1852.63	1178
1853.64	1165
1854.64	1174
1855.64	1159
1856.64	1175.5
1857.64	1153
1858.65	1152.5
1859.65	1178
1860.65	1171
1861.65	1171
1862.65	1149.5
1863.65	1144.5
1864.65	1160
1865.65	1145
1866.65	1151
1867.65	1150.5
1868.65	1141
1869.65	1148.5
1870.65	1119
1871.65	1134.5
1872.65	1144.5
1873.65	1153
1874.65	1155.5
1875.65	1141
1876.65	1146.5
1877.65	1105.5
1878.65	1139
1879.65	1147.5
1880.65	1131.5
1881.64	1136
1882.64	1129
1883.64	1117.5
1884.64	1123
1885.63	1125
1886.63	1109.5
1887.63	1113
1888.63	1110
1889.62	1130
1890.62	1137
1891.62	1130
1892.61	1122.5
1893.61	1101.5
1894.61	1109
1895.6	1124
1896.6	1107
1897.59	1102
1898.59	1111
1899.58	1109
1900.58	1115
1901.57	1125.5
1902.57	1132.5
1903.56	1123
1904.56	1115.5
1905.55	1103.5
1906.55	1089
1907.54	1104
1908.54	1114.5
1909.53	1090
1910.52	1088.5
1911.52	1110.5
1912.51	1098
1913.5	1091.5
1914.5	1103
1915.49	1083
1916.48	1097.5
1917.48	1089.5
1918.47	1101
1919.46	1080
1920.45	1090
1921.44	1084
1922.44	1091.5
1923.43	1065
1924.42	1084.5
1925.41	1087
1926.4	1070
1927.39	1078
1928.38	1100.5
1929.38	1079.5
1930.37	1090.5
1931.36	1070.5
1932.35	1082
1933.34	1081
1934.33	1058.5
1935.32	1073
1936.31	1065
1937.3	1049
1938.29	1073
1939.28	1057
1940.26	1076.5
1941.25	1067.5
1942.24	1048
1943.23	1084.5
1944.22	1086
1945.21	1082
1946.2	1048.5
1947.18	1062.5
1948.17	1054
1949.16	1031.5
1950.15	1037.75
1951.13	1044
1952.12	1051.5
1953.11	1048.5
1954.1	1032.5
1955.08	1052.5
1956.07	1037
1957.06	1048
1958.04	1026
1959.03	1058
1960.01	1053
1961	1040
1961.99	1022.5
1962.97	1058
1963.96	1028.5
1964.94	1031.5
1965.93	1010
1966.91	1021
1967.9	1039
1968.88	1009.5
1969.87	1018
1970.85	1023
1971.84	1029
1972.82	1013.5
1973.81	1030
1974.79	1033.5
1975.77	1020
1976.76	1019.5
1977.74	1030.5
1978.72	992
1979.71	1008.5
1980.69	1006
1981.67	1004.5
1982.65	1024.5
1983.64	1004.5
1984.62	1013
1985.6	1009
1986.58	1037.5
1987.56	1001
1988.55	1007
1989.53	999
1990.51	1026
1991.49	1011
1992.47	995
1993.45	1006.5
1994.43	1015
1995.41	1004.5
1996.39	999.5
1997.37	973
1998.36	1018
1999.34	986.5
2000.31	994.5
2001.29	993.5
2002.27	1002.5
2003.25	990
2004.23	985.5
2005.21	987
2006.19	988
2007.17	985
2008.15	979.5
2009.13	998
2010.11	966.5
2011.08	971.5
2012.06	988
2013.04	977
2014.02	985
2015	969
2015.97	976.5
2016.95	974.5
2017.93	974.5
2018.91	964
2019.88	948
2020.86	996
2021.83	972.5
2022.81	975
2023.79	991.5
2024.76	969
2025.74	956
2026.72	955
2027.69	942
2028.67	949
2029.64	971.5
2030.62	967
2031.59	979
2032.57	960.5
2033.54	956
2034.52	953
2035.49	965.5
2036.47	952.5
2037.44	939
2038.41	951
2039.39	960.5
2040.36	954
2041.34	949.5
2042.31	947
2043.28	943
2044.26	963
2045.23	933
2046.2	947.5
2047.17	928.5
2048.15	949.5
2049.12	941
2050.09	950
2051.06	935
2052.04	940.5
2053.01	920
2053.98	946
2054.95	946.5
2055.92	946
2056.89	920.5
2057.86	928.5
2058.84	929
2059.81	933
2060.78	927.5
2061.75	942.5
2062.72	935.5
2063.69	937.5
2064.66	926
2065.63	933.5
2066.6	921.5
2067.57	927
2068.54	912.5
2069.51	922.5
2070.48	929.5
2071.44	910.5
2072.41	936.5
2073.38	921.5
2074.35	899
2075.32	915.5
2076.29	901
2077.26	914.5
2078.22	895
2079.19	898
2080.16	922.5
2081.13	888
2082.09	891.5
2083.06	894.5
2084.03	900.5
2085	908
2085.96	910
2086.93	901.5
2087.9	912
2088.86	892
2089.83	913.5
2090.79	901
2091.76	900.5
2092.73	895
2093.69	905
2094.66	894.5
2095.62	913.5
2096.59	906
2097.55	910.5
2098.52	903.5
2099.48	905
2100.45	895
2101.41	894
2102.38	907.5
2103.34	909
2104.3	921
2105.27	887.5
2106.23	917.5
2107.19	916
2108.16	903
2109.12	918.5
2110.08	943.5
2111.05	930
2112.01	938
2112.97	947.5
2113.94	961.5
2114.9	959.5
2115.86	957.5
2116.82	981
2117.78	975
2118.75	980.5
2119.71	991.5
2120.67	994.5
2121.63	1019.5
2122.59	1022.5
2123.55	1036
2124.51	1033.5
2125.47	1034.5
2126.43	1050
2127.4	1052
2128.36	1060
2129.32	1052
2130.28	1033
2131.24	1039.5
2132.2	1055
2133.16	1015
2134.11	1034
2135.07	993
2136.03	1021.5
2136.99	995.5
2137.95	988.5
2138.91	979
2139.87	952.5
2140.83	938
2141.78	935
2142.74	924.5
2143.7	934.5
2144.66	914
2145.62	910.095
2146.57	904.265
2147.53	920.926
2148.49	902.397
2149.45	906.889
2150.4	868.968
2151.36	894.256
2152.32	892.967
2153.27	875.719
2154.23	884.142
2155.19	870.228
2156.14	864.865
2157.1	885.497
2158.05	872.163
2159.01	874.873
2159.96	865.154
2160.92	850.401
2161.88	846.168
2162.83	844.043
2163.78	840.934
2164.74	867.215
2165.69	845.799
2166.65	857.953
2167.6	853.447
2168.56	836.629
2169.51	830.288
2170.47	826.62
2171.42	835.899
2172.37	819.574
2173.33	817.802
2174.28	827.257
2175.23	827.776
2176.19	829.517
2177.14	814.622
2178.09	823.337
2179.04	803.603
2180	812.683
2180.95	804.579
2181.9	810.442
2182.85	802.143
2183.81	800.362
2184.76	795.098
2185.71	795.45
2186.66	795.81
2187.61	798.097
2188.56	791.468
2189.51	796.262
2190.46	793.903
2191.42	793.802
2192.37	786.354
2193.32	795.37
2194.27	789.619
2195.22	792.067
2196.17	791.249
2197.12	783.25
2198.07	792.005
2199.02	794.079
2199.97	793.229
2200.92	788.493
2201.86	779.483
2202.81	776.449
2203.76	791.331
2204.71	774.682
2205.66	774.548
2206.61	781.689
2207.56	771.837
2208.5	775.588
2209.45	780.78
2210.4	779.305
2211.35	776.189
2212.3	780.405
2213.24	791.351
2214.19	781.09
2215.14	780.613
2216.08	791.875
2217.03	784.405
2217.98	772.175
2218.92	774.275
2219.87	776.319
2220.82	776.876
2221.76	784.416
2222.71	785.702
2223.65	777.396
2224.6	767.579
2225.55	766.802
2226.49	772.908
2227.44	770.993
2228.38	774.403
2229.33	770.47
2230.27	774.62
2231.22	780.809
2232.16	780.844
2233.11	781.098
2234.05	785.347
2234.99	786.18
2235.94	772.645
2236.88	758.383
2237.83	771.407
2238.77	784.576
2239.71	785.241
2240.66	792.34
2241.6	792.664
2242.06	789.5
2243.01	774
2243.96	791.5
2244.91	792
2245.85	792.5
2246.8	805.5
2247.75	798
2248.7	790
2249.64	804.5
2250.59	779.5
2251.54	779.5
2252.48	788
2253.43	788.5
2254.38	783
2255.32	768.5
2256.27	763
2257.21	772.5
2258.16	745.5
2259.1	755.5
2260.05	754
2260.99	752
2261.94	751
2262.89	740.5
2263.83	743.5
2264.77	760
2265.72	731
2266.66	734
2267.61	762
2268.55	759.5
2269.5	748.5
2270.44	752
2271.38	728
2272.33	739.5
2273.27	728.5
2274.21	739
2275.16	722.5
2276.1	749.5
2277.04	719.5
2277.98	714.5
2278.93	724.5
2279.87	715
2280.81	723.5
2281.75	734
2282.7	714
2283.64	725
2284.58	709
2285.52	715
2286.46	717.5
2287.4	711
2288.34	716.5
2289.29	693
2290.23	720
2291.17	726.5
2292.11	702.5
2293.05	718
2293.99	710
2294.93	710.5
2295.87	706
2296.81	705.5
2297.75	697.5
2298.69	712.5
2299.63	700.5
2300.57	705
2301.51	693.5
2302.44	698
2303.38	705
2304.32	699.5
2305.26	702.5
2306.2	688
2307.14	691.5
2308.08	701.5
2309.01	689.5
2309.95	696.5
2310.89	692.5
2311.83	700.5
2312.77	707.5
2313.7	711.5
2314.64	679.5
2315.58	676
2316.51	686.5
2317.45	700.5
2318.39	683
2319.32	688.5
2320.26	683
2321.2	676.5
2322.13	674
2323.07	696
2324	688.5
2324.94	685
2325.88	695.5
2326.81	689
2327.75	695
2328.68	688
2329.62	671
2330.55	680
2331.49	695.5
2332.42	679
2333.35	676.5
2334.29	680.5
2335.22	679.5
2336.16	667
2337.09	675
2338.02	669
2338.96	664.5
2339.89	672
2340.82	673.5
2341.76	678
2342.69	656
2343.62	656.5
2344.56	663
2345.49	655
2346.42	682.5
2347.35	671
2348.29	665
2349.22	667
2350.15	673
2351.08	677.5
2352.01	671.5
2352.94	664.5
2353.88	650
2354.81	668.5
2355.74	640
2356.67	656
2357.6	666.5
2358.53	676.5
2359.46	663
2360.39	674
2361.32	662
2362.25	645
2363.18	652
2364.11	657
2365.04	674.5
2365.97	673
2366.9	667.5
2367.83	663.5
2368.76	639
2369.69	666
2370.62	649.5
2371.55	670
2372.47	664.5
2373.4	660.5
2374.33	648.5
2375.26	655.5
2376.19	659.5
2377.11	662
2378.04	662
2378.97	644.5
2379.9	638
2380.83	643.5
2381.75	631.5
2382.68	651.5
2383.61	644
2384.53	628
2385.46	647.5
2386.39	622
2387.31	630
2388.24	637
2389.17	644.5
2390.09	626
2391.02	639
2391.94	626.5
2392.87	627
2393.79	644.5
2394.72	642
2395.64	639
2396.57	642.5
2397.49	621
2398.42	637
2399.34	639
2400.27	643
2401.19	631
2402.12	624
2403.04	621
2403.96	637.5
2404.89	635
2405.81	638
2406.74	611
2407.66	635
2408.58	632.5
2409.51	632.5
2410.43	632.5
2411.35	632
2412.27	634.5
2413.2	619.5
2414.12	623
2415.04	637.5
2415.96	618
2416.89	627
2417.81	642.5
2418.73	607
2419.65	611.5
2420.57	613
2421.49	624.5
2422.41	612
2423.34	605.5
2424.26	612.5
2425.18	602
2426.1	620.5
2427.02	610.5
2427.94	613
2428.86	621
2429.78	613
2430.7	602.5
2431.62	621.5
2432.54	616
2433.46	599.5
2434.38	617.5
2435.3	600
2436.22	612
2437.13	590
2438.05	620
2438.97	614
2439.89	622.5
2440.81	595
2441.73	607.5
2442.65	599
2443.56	608.5
2444.48	610
2445.4	606
2446.32	605
2447.24	591
2448.15	603
2449.07	604.5
2449.99	608
2450.9	599
2451.82	600.5
2452.74	598.5
2453.65	601.5
2454.57	598
2455.49	601
2456.4	594.5
2457.32	598
2458.23	597
2459.15	604
2460.07	595
2460.98	587.5
2461.9	593
2462.81	592
2463.73	601.5
2464.64	590.5
2465.56	582
2466.47	583.5
2467.39	598.5
2468.3	598
2469.21	606.5
2470.13	579
2471.04	585.5
2471.96	595.5
2472.87	592.5
2473.78	575
2474.7	573
2475.61	601.5
2476.52	600.5
2477.44	576.5
2478.35	576.5
2479.26	586
2480.17	573
2481.09	579.5
2482	580.5
2482.91	585
2483.82	579.5
2484.74	580
2485.65	594.5
2486.56	588.5
2487.47	564
2488.38	589
2489.29	579
2490.21	572
2491.12	576.5
2492.03	588.5
2492.94	568.5
2493.85	565
2494.76	572.5
2495.67	571.5
2496.58	566.5
2497.49	565
2498.4	576
2499.31	568.5
2500.22	580.5
2501.13	569.5
2502.04	592
2502.95	574.5
2503.86	560
2504.76	564
2505.67	560
2506.58	545
2507.49	561.5
2508.4	562
2509.31	562
2510.22	572.5
2511.12	569
2512.03	558.5
2512.94	558.5
2513.85	551
2514.76	558
2515.66	559
2516.57	553
2517.48	546
2518.38	550.5
2519.29	563.5
2520.2	552
2521.1	553
2522.01	539
2522.92	545.5
2523.82	552
2524.73	528.5
2525.64	551.5
2526.54	544
2527.45	539.5
2528.35	561.5
2529.26	550.5
2530.16	545
2531.07	560.5
2531.97	528
2532.88	542
2533.78	546.5
2534.69	550
2535.59	546
2536.5	546.5
2537.4	550
2538.31	548.5
2539.21	536.5
2540.11	552
2541.02	547
2541.92	549
2542.82	545
2543.73	529.5
2544.63	537.5
2545.53	545.5
2546.44	523
2547.34	537.5
2548.24	545
2549.14	534.5
2550.05	539
2550.95	540.5
2551.85	536
2552.75	550.5
2553.65	529
2554.56	529
2555.46	548
2556.36	518
2557.26	528.5
2558.16	534
2559.06	520
2559.96	527
2560.86	534
2561.76	525
2562.67	540
2563.57	526
2564.47	534.5
2565.37	535.5
2566.27	535
2567.17	530.5
2568.06	519.5
2568.96	527
2569.86	510
2570.76	534
2571.66	531.5
2572.56	532.5
2573.46	524.5
2574.36	504
2575.26	523.5
2576.16	521
2577.05	522.5
2577.95	518
2578.85	533
2579.75	522.5
2580.65	511
2581.54	514.5
2582.44	529
2583.34	520
2584.24	526
2585.13	502.5
2586.03	506
2586.93	516
2587.83	526.5
2588.72	502
2589.62	509.5
2590.51	503
2591.41	498.5
2592.31	505
2593.2	523.5
2594.1	484.5
2594.99	503
2595.89	503
2596.79	510
2597.68	513.5
2598.58	513.5
2599.47	514
2600.37	504
2601.26	502.5
2602.16	512.5
2603.05	501.5
2603.94	497
2604.84	519.5
2605.73	498
2606.63	501
2607.52	501.5
2608.42	499
2609.31	490
2610.2	500.5
2611.1	504
2611.99	499.5
2612.88	479
2613.78	492.5
2614.67	490
2615.56	500
2616.45	488
2617.35	498
2618.24	501
2619.13	504.5
2620.02	498
2620.91	492.5
2621.81	507
2622.7	494
2623.59	476.5
2624.48	487.5
2625.37	484.5
2626.26	496
2627.15	492
2628.04	497.5
2628.94	482
2629.83	497.5
2630.72	474
2631.61	485.5
2632.5	489
2633.39	485.5
2634.28	470.5
2635.17	494
2636.06	475
2636.95	477.5
2637.84	475
2638.73	488.5
2639.61	481.5
2640.5	480
2641.39	489
2642.28	471
2643.17	476
2644.06	473
2644.95	475
2645.84	465
2646.72	472.5
2647.61	477
2648.5	465
2649.39	476.5
2650.28	473
2651.16	476.5
2652.05	484
2652.94	475.5
2653.82	482.5
2654.71	458
2655.6	481
2656.49	478.5
2657.37	472
2658.26	474
2659.14	479
2660.03	463.5
2660.92	481.5
2661.8	473.5
2662.69	465
2663.57	465
2664.46	480.5
2665.35	473
2666.23	464
2667.12	460
2668	460
2668.89	466
2669.77	466
2670.66	473.5
2671.54	475
2672.42	468.5
2673.31	452
2674.19	448
2675.08	476.5
2675.96	466
2676.84	474
2677.73	462.5
2678.61	470.5
2679.49	458
2680.38	454
2681.26	458.5
2682.14	456
2683.03	450
2683.91	451
2684.79	462
2685.68	470
2686.56	461.5
2687.44	469
2688.32	462
2689.2	440
2690.09	458.5
2690.97	460
2691.85	457
2692.73	445.5
2693.61	446
2694.49	459
2695.37	471
2696.25	454
2697.14	435.5
2698.02	458.5
2698.9	453.5
2699.78	449
2700.66	444
2701.54	454
2702.42	449
2703.3	447
2704.18	455
2705.06	445.5
2705.94	447.5
2706.82	462
2707.7	448
2708.57	456
2709.45	442
2710.33	447.5
2711.21	442
2712.09	443
2712.97	437
2713.85	428.5
2714.72	442.5
2715.6	444.5
2716.48	441
2717.36	441.5
2718.24	452
2719.11	437.5
2719.99	442
2720.87	447
2721.75	445
2722.62	447.5
2723.5	443.5
2724.38	442.5
2725.25	450
2726.13	446.5
2727.01	440.5
2727.88	449
2728.76	432
2729.63	437.5
2730.51	436
2731.39	436.5
2732.26	433
2733.14	429.5
2734.01	436.5
2734.89	433.5
2735.76	428
2736.64	432
2737.51	434
2738.39	424.5
2739.26	428.5
2740.14	426.5
2741.01	428
2741.89	432
2742.76	437.5
2743.63	420
2744.51	427.5
2745.38	435.5
2746.26	419.5
2747.13	425.5
2748	428
2748.88	419
2749.75	434
2750.62	436
2751.5	421.5
2752.37	418.5
2753.24	418.5
2754.11	416.5
2754.99	416.5
2755.86	408.5
2756.73	416
2757.6	425
2758.47	418
2759.35	415
2760.22	425.5
2761.09	421
2761.96	424
2762.83	403.5
2763.7	413.5
2764.57	412.5
2765.44	404
2766.32	413
2767.19	431.5
2768.06	424
2768.93	413
2769.8	417
2770.67	402.5
2771.54	395.5
2772.41	425.5
2773.28	421.5
2774.15	416.5
2775.02	406.5
2775.89	405
2776.75	400
2777.62	414
2778.49	416.5
2779.36	407
2780.23	418.5
2781.1	403
2781.97	407
2782.84	417
2783.7	401
2784.57	402.5
2785.44	398
2786.31	399.5
2787.18	386.5
2788.04	403.5
2788.91	405.5
2789.78	418.5
2790.64	404.5
2791.51	401.5
2792.38	404
2793.24	393.5
2794.11	403
2794.98	402.5
2795.85	386
2796.71	403.5
2797.58	396
2798.44	387.5
2799.31	386
2800.18	387
2801.04	391.5
2801.91	405
2802.77	383.5
2803.64	399
2804.5	402
2805.37	406
2806.23	398.5
2807.1	400.5
2807.96	391.5
2808.83	393
2809.69	384
2810.55	403
2811.42	390
2812.28	398
2813.15	397
2814.01	386
2814.88	395
2815.74	388.5
2816.6	397.5
2817.46	390.5
2818.33	396
2819.19	395.5
2820.05	374.5
2820.92	381
2821.78	400.5
2822.64	389.5
2823.51	397.5
2824.37	384
2825.23	386
2826.09	375.5
2826.95	391.5
2827.81	378
2828.68	388.5
2829.54	388.5
2830.4	397
2831.26	384.5
2832.12	380
2832.98	383
2833.84	370
2834.71	381
2835.57	393
2836.43	378
2837.29	391.5
2838.15	388
2839.01	394.5
2839.87	377
2840.73	388.5
2841.59	380.5
2842.45	373.5
2843.31	381.5
2844.17	395
2845.02	385
2845.88	372
2846.74	395
2847.6	384
2848.46	387
2849.32	385.5
2850.18	378
2851.04	388
2851.9	390.5
2852.75	385.5
2853.61	386
2854.47	387
2855.33	381.5
2856.19	394.5
2857.04	378
2857.9	397
2858.76	381
2859.61	378
2860.47	387
2861.33	384.5
2862.19	390.5
2863.04	388
2863.9	384.5
2864.76	373.5
2865.61	381
2866.47	388.5
2867.32	389
2868.18	386.5
2869.04	383.5
2869.89	391
2870.75	390.5
2871.6	393.5
2872.46	387.5
2873.31	387
2874.17	382
2875.02	396
2875.88	392
2876.73	386
2877.59	381
2878.44	396.5
2879.3	387.5
2880.15	385
2881	368
2881.86	389.5
2882.71	386.5
2883.57	387
2884.42	387
2885.27	386
2886.13	383
2886.98	387.5
2887.83	387
2888.69	386.5
2889.54	380.5
2890.39	387.5
2891.24	379
2892.1	383.5
2892.95	382.5
2893.8	389
2894.65	387
2895.51	385.5
2896.36	373
2897.21	384.5
2898.06	385
2898.91	385.5
2899.76	389
2900.62	382
2901.47	401
2902.32	385.5
2903.17	383
2904.02	384
2904.87	382
2905.72	396.5
2906.57	376.5
2907.42	375
2908.27	386
2909.12	387
2909.97	391.5
2910.82	389
2911.67	403.5
2912.52	388.5
2913.37	383.5
2914.22	403.5
2915.07	385
2915.92	400.5
2916.77	386.5
2917.62	389
2918.47	378.5
2919.31	403.5
2920.16	401.5
2921.01	393.5
2921.86	395
2922.71	393.5
2923.55	388
2924.4	405
2925.25	407
2926.1	393
2926.94	393.5
2927.79	398
2928.64	402
2929.49	411
2930.33	408.5
2931.18	410.5
2932.03	408
2932.87	406
2933.72	404
2934.57	402
2935.41	415
2936.26	397
2937.11	410
2937.95	397
2938.8	415
2939.64	405
2940.49	397.5
2941.33	414.5
2942.18	410
2943.02	411.5
2943.87	400.5
2944.71	399
2945.56	397
2946.4	385.5
2947.25	391.5
2948.09	377.5
2948.94	385
2949.78	372.5
2950.63	375
2951.47	386.5
2952.31	368.5
2953.16	372
2954	364
2954.84	357.5
2955.69	353
2956.53	361.5
2957.37	354
2958.22	347
2959.06	354
2959.9	356
2960.75	354.5
2961.59	350.5
2962.43	370.5
2963.27	348
2964.11	357
2964.96	362
2965.8	351
2966.64	353
2967.48	355.5
2968.32	355
2969.16	353
2970.01	348.5
2970.85	347
2971.69	341.5
2972.53	341.5
2973.37	344
2974.21	348
2975.05	349
2975.89	343.5
2976.73	349
2977.57	341.5
2978.41	335.5
2979.25	330.5
2980.09	350.5
2980.93	341.5
2981.77	323
2982.61	345
2983.45	342
2984.29	331
2985.13	325.5
2985.97	343.5
2986.81	337
2987.65	324
2988.49	323.5
2989.32	322.5
2990.16	318
2991	327
2991.84	321.5
2992.68	311.5
2993.51	321.5
2994.35	326
2995.19	319
2996.03	324.5
2996.86	313.5
2997.7	315.5
2998.54	322
2999.38	310
