#Acq. time (s)=	5
#Accumulations=	5
#Range (cm-¹)=	100...3000
#Windows=	3
#Autofocus=	Off
#AutoExposure=	Off
#Spike filter=	Multiple accum.
#Delay time (s)=	0
#Binning=	1
#Readout mode=	Signal
#DeNoise=	Off
#ICS correction=	Off
#Dark correction=	Off
#Inst. Process=	Off
#Instrument=	LabRAM HR Evol
#Detector=	Syncerity OE
#Objective=	x100_VIS_LWD
#Grating=	600 (500nm)
#ND Filter=	100%
#Laser=	633nm_Edge
#Hole=	100.021
#Range=	Visible
#Project=	Omar
#Sample=	chi
#Site=	f
#Title=	nsno
#Remark=	
#Date=	12.09.2023 17:38
#Acquired=	12.09.2023 17:38:09
101.026	9124
102.309	9112.5
103.592	9021.5
104.875	9020
106.158	9003
107.441	8970
108.723	8936
110.005	8840.5
111.289	8754
112.571	8755
113.852	8745.5
115.134	8681
116.415	8599.5
117.696	8583.5
118.976	8520.5
120.257	8526.5
121.537	8551
122.817	8447.5
124.097	8488
125.377	8489.5
126.656	8416.5
127.936	8441
129.215	8422
130.493	8368
131.772	8340
133.049	8357.5
134.327	8244.5
135.605	8235.5
136.883	8252.5
138.161	8206.5
139.438	8124.5
140.715	8167.5
141.992	8132.5
143.269	8120.5
144.545	8071.5
145.82	8006
147.096	7998
148.372	7985.5
149.648	7924.5
150.924	7917.5
152.199	7902
153.472	7942.5
154.747	7876.5
156.022	7864.5
157.296	7816.5
158.571	7797.5
159.843	7877.5
161.117	7877.5
162.391	7847.5
163.664	7814
164.937	7850.5
166.209	7806.5
167.482	7834
168.754	7865
170.025	7848.5
171.297	7869.5
172.569	7827.5
173.841	7880.5
175.111	7885
176.383	7943
177.654	7883
178.923	7889.5
180.194	7955.5
181.464	8002.5
182.733	8042
184.003	8066.5
185.273	8147
186.542	8189.5
187.811	8194
189.079	8194.5
190.348	8228.5
191.617	8310
192.884	8364.5
194.152	8439
195.419	8478.5
196.687	8552
197.955	8616.5
199.221	8622
200.489	8673
201.755	8713
203.022	8749
204.287	8778.5
205.554	8800.5
206.818	8843
208.085	8795
209.349	8786
210.615	8800
211.879	8841.5
213.144	8809
214.408	8816
215.673	8870
216.936	8895.5
218.201	8890.5
219.464	8892.5
220.728	8835.5
221.99	8883.5
223.253	8761.5
224.516	8677.5
225.778	8733.5
227.041	8692.5
228.303	8590.5
229.564	8556.5
230.826	8513
232.087	8524
233.348	8498.5
234.61	8482.5
235.87	8462
237.13	8369
238.391	8392.5
239.651	8370.5
240.91	8364
242.171	8291.5
243.43	8286.5
244.689	8211
245.949	8238
247.207	8236.5
248.465	8181
249.723	8100
250.983	8110.5
252.24	8115
253.498	8088.5
254.755	8059
256.013	8032.5
257.27	7983.5
258.526	8002.5
259.783	7903
261.039	7974.5
262.296	7918
263.552	7843
264.808	7863
266.063	7804.5
267.318	7795
268.573	7823.5
269.828	7762.5
271.084	7761
272.338	7736.5
273.592	7802
274.846	7755.5
276.1	7755
277.353	7706
278.607	7693
279.86	7691.5
281.113	7739.5
282.365	7718.5
283.619	7751.5
284.872	7754
286.124	7750
287.376	7770
288.627	7681.5
289.879	7755.5
291.13	7830.5
292.381	7809.5
293.632	7698
294.883	7711.5
296.133	7805.5
297.384	7749
298.634	7842.5
299.883	7779.5
301.133	7827
302.381	7858.5
303.63	7774
304.879	7796.5
306.128	7787
307.377	7803.5
308.625	7833.5
309.874	7833.5
311.122	7830
312.37	7835.5
313.617	7842
314.863	7812
316.111	7798.5
317.358	7803.5
318.604	7839
319.851	7781.5
321.098	7802
322.342	7744
323.588	7709
324.834	7703
326.08	7744.5
327.325	7768.5
328.569	7707.5
329.814	7669.5
331.059	7703.5
332.304	7683
333.548	7734
334.791	7690.5
336.035	7698
337.279	7667
338.521	7703.5
339.765	7672.5
341.008	7661.5
342.251	7677.5
343.492	7659.5
344.735	7662
345.977	7711
347.218	7651.5
348.46	7705
349.702	7693
350.942	7680
352.184	7682.5
353.425	7666
354.665	7583
355.905	7615
357.145	7661
358.385	7582
359.625	7602
360.864	7626
362.104	7646.5
363.342	7649.5
364.581	7586.5
365.819	7580
367.058	7648.5
368.296	7596.5
369.534	7591.5
370.771	7576.5
372.01	7614
373.246	7567.5
374.484	7569
375.72	7528
376.958	7554.5
378.194	7517.5
379.431	7500.5
380.666	7514.5
381.903	7537.5
383.138	7516.5
384.374	7487
385.609	7540
386.845	7531
388.079	7498
389.313	7488
390.548	7469
391.782	7475
393.016	7511
394.25	7470
395.483	7564
396.718	7532.5
397.95	7571
399.183	7612
400.416	7614.5
401.648	7580
402.88	7691.5
404.113	7733.5
405.345	7773.5
406.576	7751.5
407.807	7929.5
409.04	8030.5
410.27	8052
411.501	8215.5
412.731	8239.5
413.963	8328.5
415.193	8507
416.422	8521.5
417.652	8539
418.883	8620.5
420.112	8632.5
421.341	8636.5
422.569	8605.5
423.798	8522.5
425.028	8515.5
426.256	8464
427.484	8522
428.711	8542
429.939	8518
431.166	8661
432.394	8759.5
433.622	8910
434.849	9001.5
436.075	9038.5
437.302	9057
438.528	8994.5
439.754	8941.5
440.98	8756.5
442.205	8619
443.431	8496.5
444.656	8400.5
445.881	8312.5
447.106	8185
448.33	8130
449.555	8122.5
450.779	8019
452.003	7969.5
453.227	7970
454.45	7952
455.674	7928.5
456.897	7923.5
458.12	7839.5
459.343	7828.5
460.566	7886.5
461.788	7817.5
463.01	7832
464.232	7791
465.454	7777
466.676	7771.5
467.897	7789
469.119	7797.5
470.34	7783.5
471.559	7750
472.78	7756.5
474.001	7700.5
475.221	7734.5
476.441	7759.5
477.661	7750
478.879	7819.5
480.099	7797.5
481.318	7732.5
482.537	7772
483.756	7798.5
484.974	7761.5
486.192	7737
487.411	7828.5
488.629	7850
489.847	7857
491.063	7793.5
492.281	7767
493.498	7832
494.714	7813.5
495.931	7769.5
497.148	7859
498.365	7801
499.58	7798
500.796	7823
502.012	7833.5
503.226	7890
504.442	7910.5
505.657	7866.5
506.871	7811.5
508.086	7837
509.3	7907.5
510.515	7870
511.729	7915
512.942	7876
514.156	7919
515.369	7879.5
516.582	7917.5
517.796	7966.5
519.008	7944
520.221	7981.5
521.433	8014
522.645	7999.5
523.857	8022.5
525.069	8024.5
526.28	8001
527.492	7998
528.702	7949.5
529.914	7978.5
531.124	7943.5
532.335	7965.5
533.545	7864.5
534.756	7842.5
535.965	7772.5
537.175	7789.5
538.384	7764
539.593	7687.5
540.803	7660.5
542.011	7661.5
543.221	7671.5
544.429	7630.5
545.636	7632.5
546.845	7694
548.052	7613
549.261	7671
550.468	7586
551.675	7602.5
552.883	7672.5
554.089	7593.5
555.295	7662.5
556.503	7623.5
557.709	7620.5
558.914	7659
560.12	7637
561.326	7668.5
562.531	7689
563.736	7682
564.941	7657.5
566.147	7591
567.351	7627.5
568.555	7644
569.759	7582
570.964	7595.5
572.168	7602.5
573.371	7681.5
574.574	7635.5
575.777	7563
576.981	7601.5
578.184	7523.5
579.386	7578.5
580.588	7519.5
581.79	7520.5
582.992	7542
584.194	7524
585.395	7566.5
586.598	7563.5
587.799	7554
589	7584.5
590.201	7551
591.401	7551
592.601	7492.5
593.801	7525.5
595.001	7550
596.201	7535.5
597.401	7555
598.6	7595
599.799	7525.5
600.998	7560.5
602.197	7552.5
603.395	7636
604.594	7547
605.792	7606.5
606.99	7620.5
608.188	7613.5
609.386	7610
610.583	7645.5
611.78	7619
612.977	7618.5
614.174	7643.5
615.371	7667.5
616.566	7664
617.762	7683.5
618.958	7712
620.154	7720
621.35	7694.5
622.546	7656.5
623.741	7718.5
624.935	7742
626.13	7724
627.325	7729
628.519	7752
629.714	7717
630.908	7773
632.101	7820
633.295	7751
634.488	7775
635.682	7785
636.874	7777.5
638.067	7755.5
639.26	7738
640.453	7787
641.644	7788
642.836	7810
644.028	7780
645.219	7792
646.411	7750.5
647.602	7779
648.792	7751.5
649.984	7727
651.175	7764.5
652.364	7734.5
653.555	7749
654.745	7708.5
655.934	7712.5
657.124	7720.5
658.314	7696
659.503	7676.5
660.692	7689.5
661.88	7687
663.07	7731
664.257	7718.5
665.446	7721
666.635	7712
667.822	7701.5
669.01	7667
670.197	7710
671.384	7677.5
672.571	7625.5
673.758	7640.5
674.944	7609.5
676.131	7629.5
677.317	7598.5
678.502	7674
679.689	7628.5
680.874	7584
682.06	7572.5
683.245	7573
684.431	7575
685.615	7576
686.799	7522
687.984	7522.5
689.168	7486
690.353	7533
691.536	7526
692.719	7483.5
693.904	7511.5
695.086	7488.5
696.269	7454.5
697.453	7457.5
698.635	7443.5
699.817	7486.5
701	7470.5
702.182	7487.5
703.364	7452.5
704.545	7437
705.727	7496.5
706.908	7485.5
708.089	7475.5
709.27	7457
710.451	7418.5
711.632	7467
712.812	7458
713.991	7515.5
715.172	7496
716.352	7506.5
717.531	7507.5
718.71	7524
719.889	7520
721.068	7593.5
722.248	7555
723.426	7637.5
724.604	7595.5
725.782	7640.5
726.96	7656.5
728.138	7742
729.315	7712.5
730.492	7719
731.669	7706.5
732.846	7706.5
734.024	7645.5
735.201	7592
736.377	7607.5
737.553	7571.5
738.729	7551
739.905	7503.5
741.081	7514
742.256	7530
743.431	7478.5
744.606	7549
745.781	7608
746.956	7607
748.13	7501
749.303	7528
750.477	7536.5
751.651	7439
752.825	7562
753.999	7504.5
755.172	7591.5
756.345	7708
757.518	7722
758.691	7746
759.864	7722
761.035	7600.5
762.207	7580.5
763.379	7507
764.551	7471
765.723	7325.5
766.894	7413.5
768.064	7357
769.236	7344.5
770.407	7413
771.577	7321.5
772.748	7364.5
773.917	7318.5
775.088	7351
776.258	7399.5
777.427	7313
778.596	7397
779.765	7421
780.935	7465
782.104	7442.5
783.272	7518.5
784.44	7522
785.609	7558.5
786.776	7619
787.944	7626
789.113	7759
790.279	7729.5
791.447	7776.5
792.613	7814
793.78	7833
794.948	7894.5
796.113	7933.5
797.28	7899
798.445	7951
799.612	8011.5
800.778	7984.5
801.943	7958.5
803.109	7962
804.273	7972.5
805.439	7983.5
806.603	7867.5
807.768	7948
808.932	7890.5
810.096	7772
811.26	7722.5
812.424	7646
813.587	7704.5
814.751	7616
815.914	7578.5
817.078	7613.5
818.24	7582.5
819.402	7568.5
820.565	7553.5
821.727	7536
822.889	7493
824.051	7536.5
825.212	7508.5
826.374	7557.5
827.535	7483
828.697	7549.5
829.857	7479.5
831.018	7527.5
832.179	7497.5
833.339	7526
834.499	7505
835.659	7527
836.819	7460
837.978	7480.5
839.137	7462
840.297	7446
841.456	7462.5
842.614	7490.5
843.772	7511
844.932	7459.5
846.09	7410.5
847.247	7481
848.405	7438
849.562	7400
850.721	7423
851.878	7399
853.034	7400
854.191	7411
855.348	7410
856.504	7433.5
857.661	7368.5
858.817	7472.5
859.973	7416
861.129	7422
862.284	7366
863.439	7359
864.594	7293
865.749	7375
866.904	7309.5
868.058	7373
869.212	7332.5
870.367	7291.5
871.522	7320
872.676	7259
873.829	7275
874.983	7258
876.136	7237
877.289	7236
878.442	7268
879.593	7252
880.746	7203.5
881.898	7194
883.05	7214
884.202	7194
885.354	7187.5
886.506	7104.5
887.657	7143.5
888.808	7191
889.96	7157
891.11	7107.5
892.261	7174
893.41	7093.5
894.561	7081.5
895.711	7109.5
896.861	7118.5
898.011	7058
899.161	7113.5
900.309	7126
901.458	7103.5
902.607	7136
903.756	7144
904.904	7222
906.052	7185
907.201	7289
908.349	7253.5
909.496	7324
910.644	7403
911.791	7458.5
912.939	7501
914.085	7571
915.232	7657
916.379	7621.5
917.525	7641
918.671	7539.5
919.818	7490
920.963	7329.5
922.109	7283
923.255	7144
924.399	7061
925.545	7058.5
926.689	7087
927.834	7097
928.979	7003.5
930.123	6958
931.268	7016.5
932.411	7043.5
933.555	7052.5
934.698	7065.5
935.842	7052
936.985	7116.5
938.128	7052
939.271	7032
940.414	7093.5
941.556	7082.5
942.699	7061
943.84	7008.5
944.983	7068.5
946.124	7057.5
947.266	7010.5
948.407	6992
949.547	7014.5
950.689	6991.5
951.829	7082.5
952.971	7029.5
954.111	7061
955.25	7021
956.391	7086
957.531	7084.5
958.67	7034
959.81	7059.5
960.949	7125.5
962.088	7042.5
963.227	7077.5
964.366	7119.5
965.504	7135
966.643	7090.5
967.781	7080
968.919	7139.5
970.056	7161.5
971.195	7111.25
972.332	7061
973.469	7138.5
974.605	7168
975.743	7095
976.88	7150
978.016	7054
979.152	7114
980.288	7048.5
981.423	7077
982.56	7074
983.696	7034.5
984.831	7062
985.966	7015
987.101	7004
988.235	7010.5
989.37	6961
990.504	6991.5
991.638	6966
992.773	6983
993.907	6971.5
995.041	6992.5
996.174	6964.5
997.307	7100.5
998.44	7053
999.573	7123
1000.71	7102
1001.84	7026
1002.97	6957
1004.1	6870
1005.24	6892
1006.37	6851
1007.5	6849.5
1008.63	6810
1009.76	6810
1010.89	6757
1012.02	6795
1013.15	6785
1014.28	6763.5
1015.41	6795
1016.54	6832.5
1017.67	6770
1018.8	6785
1019.93	6763
1021.06	6808.5
1022.19	6774
1023.32	6737.5
1024.45	6821
1025.58	6809
1026.71	6716
1027.84	6805.5
1028.96	6800
1030.09	6818
1031.22	6801
1032.35	6783
1033.47	6752
1034.6	6772.5
1035.73	6798
1036.86	6788
1037.98	6784.5
1039.11	6778
1040.23	6792
1041.36	6785.5
1042.49	6850.5
1043.61	6827
1044.74	6822
1045.86	6835
1046.99	6776.5
1048.11	6841
1049.24	6759.5
1050.36	6778.5
1051.49	6833.5
1052.61	6851.5
1053.74	6809
1054.86	6796.5
1055.98	6815
1057.11	6843
1058.23	6820.5
1059.35	6830
1060.48	6786
1061.6	6807.5
1062.72	6838
1063.84	6790.5
1064.97	6813
1066.09	6809
1067.21	6821
1068.33	6845
1069.45	6732
1070.57	6811.5
1071.7	6791
1072.82	6792.5
1073.94	6786
1075.06	6776
1076.18	6784.5
1077.3	6734.5
1078.42	6809.5
1079.54	6770
1080.66	6804.5
1081.78	6793.5
1082.9	6792.5
1084.02	6741.5
1085.14	6726
1086.25	6736.5
1087.37	6707.5
1088.49	6754
1089.61	6664.5
1090.73	6716.5
1091.84	6745
1092.96	6717
1094.08	6705.5
1095.2	6729
1096.31	6693
1097.43	6722
1098.55	6704
1099.66	6723.5
1100.78	6677.5
1101.9	6693.5
1103.01	6669
1104.13	6698
1105.25	6746
1106.36	6755
1107.48	6735
1108.59	6702
1109.71	6681.5
1110.82	6695
1111.93	6717
1113.05	6630
1114.16	6675
1115.28	6688.5
1116.39	6664.5
1117.51	6683.5
1118.62	6689.5
1119.73	6671.5
1120.85	6661
1121.96	6652.5
1123.07	6677
1124.18	6653.5
1125.3	6670.5
1126.41	6610.5
1127.52	6645.5
1128.63	6695.5
1129.74	6701.5
1130.85	6723.5
1131.97	6721.5
1133.08	6729
1134.19	6716
1135.3	6756
1136.41	6746
1137.52	6804
1138.63	6803.5
1139.74	6843
1140.85	6820.5
1141.96	6855.5
1143.07	6811.5
1144.18	6846
1145.29	6816.5
1146.4	6906
1147.51	6913.5
1148.61	6850
1149.72	6932
1150.83	6931
1151.94	6985
1153.05	6998
1154.15	7081.5
1155.26	7056
1156.37	7111.5
1157.48	7174
1158.58	7253
1159.69	7238.5
1160.8	7396.5
1161.9	7444.5
1163.01	7540
1164.11	7616
1165.22	7676
1166.33	7765
1167.43	7759
1168.54	7851.5
1169.64	7995.5
1170.75	7981.5
1171.85	8002.5
1172.96	8064
1174.06	8057.5
1175.17	8071.5
1176.27	8040
1177.37	8106
1178.48	8048.5
1179.58	8011
1180.68	7885
1181.79	7857.5
1182.89	7776.5
1183.99	7644.5
1185.1	7540
1186.2	7489
1187.3	7476.5
1188.4	7430.5
1189.5	7370
1190.61	7330.5
1191.71	7279.5
1192.81	7191.5
1193.91	7169
1195.01	7151.5
1196.11	7071.22
1197.21	7046.38
1198.31	7058.92
1199.42	6951.63
1200.51	6951.08
1201.61	6873.35
1202.72	6902.87
1203.81	6899.03
1204.91	6874.22
1206.01	6842.2
1207.11	6810.76
1208.21	6841.43
1209.31	6755.31
1210.41	6729.75
1211.51	6715.13
1212.61	6753.48
1213.7	6688.55
1214.8	6626.56
1215.9	6642.17
1217	6686.18
1218.09	6625.63
1219.19	6551.75
1220.29	6519.64
1221.38	6499.68
1222.48	6476.62
1223.58	6407.83
1224.67	6377.1
1225.77	6354.29
1226.87	6373.39
1227.96	6328
1229.06	6316.83
1230.15	6316.05
1231.25	6286.29
1232.34	6336.85
1233.44	6285.68
1234.53	6261.72
1235.63	6288.14
1236.72	6267.59
1237.81	6273.6
1238.91	6254.67
1240	6243.68
1241.1	6178.48
1242.19	6196.23
1243.28	6149.43
1244.38	6153.71
1245.47	6153.21
1246.56	6135.35
1247.65	6138.96
1248.75	6138.28
1249.84	6173.58
1250.93	6132.08
1252.02	6124.92
1253.11	6122.27
1254.21	6146.08
1255.3	6112.33
1256.39	6087.98
1257.48	6103.4
1258.57	6093.54
1259.66	6105.41
1260.75	6099.38
1261.84	6070.76
1262.93	6090.43
1264.02	6085.33
1265.11	6090.33
1266.2	6062.67
1267.29	6083.71
1268.38	6061.69
1269.47	6058.6
1270.56	6046.55
1271.65	6059.81
1272.73	6002.98
1273.82	6020.35
1274.91	6023.82
1276	6038.9
1277.09	6004.19
1278.17	5993.96
1279.26	6017.39
1280.35	6027
1281.43	5989.77
1282.52	6015.48
1283.61	5985.02
1284.69	6013.27
1285.78	6048.52
1286.87	6056.93
1287.95	6049.47
1289.04	6050.67
1290.13	6071.45
1291.21	6069.41
1292.3	6073.55
1293.38	6132.26
1294.47	6081.1
1295.55	6093.44
1296.64	6077.61
1297.72	6095.69
1298.8	6074.81
1299.89	6058.09
1300.97	6046.35
1302.06	6017.98
1303.14	5941.86
1304.22	5942.64
1305.31	5960.38
1306.39	5840.98
1307.34	5825
1308.43	5761
1309.52	5799
1310.6	5828.5
1311.69	5736
1312.78	5753
1313.87	5730
1314.96	5677.5
1316.04	5663.5
1317.13	5716.5
1318.21	5688.5
1319.3	5630.5
1320.39	5730
1321.47	5708
1322.56	5719.5
1323.65	5656.5
1324.73	5699.5
1325.82	5656.5
1326.9	5728
1327.99	5729.5
1329.07	5721.5
1330.16	5707
1331.24	5756.5
1332.32	5782
1333.41	5717
1334.49	5803
1335.58	5784
1336.66	5792.5
1337.74	5808
1338.83	5792
1339.91	5835
1340.99	5842
1342.08	5829
1343.16	5831
1344.24	5823
1345.32	5771.5
1346.41	5759
1347.49	5783
1348.57	5761
1349.65	5807.5
1350.73	5818.5
1351.81	5847.5
1352.9	5854.5
1353.98	5846.5
1355.06	5922
1356.14	5861
1357.22	5922.5
1358.3	5955.5
1359.38	5930.5
1360.46	5991
1361.54	5976.5
1362.62	6013
1363.7	6050
1364.78	6075.5
1365.85	6110
1366.93	6064.5
1368.01	6091.5
1369.09	6103.5
1370.17	6128
1371.25	6124
1372.33	6100
1373.4	6100
1374.48	6071
1375.56	6025
1376.64	6043
1377.71	6072.5
1378.79	6066.5
1379.87	6085
1380.94	5983.5
1382.02	6007
1383.1	5995.5
1384.17	5953.5
1385.25	5984
1386.32	5926
1387.4	5840
1388.47	5856.5
1389.55	5828.5
1390.63	5859.5
1391.7	5839
1392.77	5783.5
1393.85	5743.5
1394.92	5687
1396	5713.5
1397.07	5667.5
1398.15	5606.5
1399.22	5597.5
1400.29	5546
1401.37	5558.5
1402.44	5482
1403.51	5528
1404.59	5495.5
1405.66	5472.5
1406.73	5439.5
1407.8	5399.5
1408.87	5416
1409.95	5450.5
1411.02	5438
1412.09	5348.5
1413.16	5372.5
1414.23	5414.5
1415.3	5376
1416.38	5350
1417.45	5359.5
1418.52	5354.5
1419.59	5315.5
1420.66	5410.5
1421.73	5400
1422.8	5427
1423.87	5421.5
1424.94	5407.5
1426.01	5448
1427.08	5402.5
1428.15	5427.5
1429.21	5431.5
1430.28	5476
1431.35	5465.5
1432.42	5477.5
1433.49	5515.5
1434.56	5507.5
1435.63	5490.5
1436.69	5492
1437.76	5447
1438.83	5500
1439.89	5442.5
1440.96	5488.5
1442.03	5477.5
1443.1	5507.5
1444.16	5524
1445.23	5537.5
1446.3	5503
1447.36	5531.5
1448.43	5542
1449.49	5504.5
1450.56	5472
1451.62	5516.5
1452.69	5476.5
1453.75	5496.5
1454.82	5459.5
1455.88	5476
1456.95	5452.5
1458.01	5451.5
1459.08	5451.5
1460.14	5517.5
1461.2	5455.5
1462.27	5475.5
1463.33	5501
1464.4	5538
1465.46	5562
1466.52	5517.5
1467.58	5500.5
1468.65	5566.5
1469.71	5543.5
1470.77	5577.5
1471.83	5624
1472.9	5551.5
1473.96	5595.5
1475.02	5627.5
1476.08	5607
1477.14	5654
1478.2	5617.5
1479.27	5594
1480.33	5605
1481.39	5602.5
1482.45	5577
1483.51	5604
1484.57	5500
1485.63	5541
1486.69	5559
1487.75	5523.5
1488.81	5523.5
1489.87	5553.5
1490.93	5470.5
1491.99	5508.5
1493.04	5471
1494.1	5523.5
1495.16	5547.5
1496.22	5508.5
1497.28	5487.5
1498.34	5542.5
1499.39	5545.5
1500.45	5524.5
1501.51	5576
1502.57	5564
1503.62	5535
1504.68	5472
1505.74	5562.5
1506.79	5537.5
1507.85	5514.5
1508.91	5514.5
1509.96	5514.5
1511.02	5505.5
1512.07	5506.5
1513.13	5559
1514.19	5515.5
1515.24	5519.5
1516.3	5555
1517.35	5539
1518.41	5487.5
1519.46	5506
1520.52	5532
1521.57	5591.5
1522.62	5566
1523.68	5580
1524.73	5657
1525.79	5587.5
1526.84	5657
1527.89	5582
1528.95	5547.5
1530	5652
1531.05	5604
1532.1	5608
1533.16	5586.5
1534.21	5594
1535.26	5532
1536.31	5561
1537.37	5567.5
1538.42	5537.5
1539.47	5545
1540.52	5558
1541.57	5513
1542.62	5498
1543.67	5408.5
1544.72	5483
1545.78	5483
1546.83	5487
1547.88	5496.5
1548.93	5531
1549.98	5491.5
1551.03	5467
1552.07	5427
1553.12	5462
1554.17	5472.5
1555.22	5509.5
1556.27	5500
1557.32	5432
1558.37	5459.5
1559.42	5432.5
1560.47	5445
1561.51	5446.5
1562.56	5467
1563.61	5477.5
1564.66	5430
1565.7	5447.5
1566.75	5465
1567.8	5458.5
1568.85	5516.5
1569.89	5444
1570.94	5483
1571.98	5500.5
1573.03	5462
1574.08	5538
1575.12	5511.5
1576.17	5536.5
1577.21	5537
1578.26	5631.5
1579.31	5635
1580.35	5609
1581.4	5664.5
1582.44	5680
1583.49	5738.5
1584.53	5676.5
1585.57	5674
1586.62	5656
1587.66	5609.5
1588.71	5597.5
1589.75	5683.5
1590.79	5582
1591.84	5613
1592.88	5580
1593.92	5553.5
1594.97	5627.5
1596.01	5552.5
1597.05	5546
1598.09	5502.5
1599.14	5475.5
1600.18	5540
1601.22	5462.5
1602.26	5424
1603.3	5442.5
1604.34	5450.5
1605.38	5439.5
1606.43	5387.5
1607.47	5447.5
1608.51	5410.5
1609.55	5487
1610.59	5525
1611.63	5531.5
1612.67	5619
1613.71	5620.5
1614.75	5637.5
1615.79	5606.5
1616.83	5660
1617.87	5594
1618.91	5453.5
1619.94	5384
1620.98	5224.5
1622.02	5129
1623.06	5056
1624.1	4962.5
1625.14	4911.5
1626.17	4844.5
1627.21	4764
1628.25	4696
1629.29	4640.5
1630.32	4571
1631.36	4584
1632.4	4578
1633.43	4492.5
1634.47	4457.5
1635.51	4421.5
1636.54	4379
1637.58	4347.5
1638.62	4322
1639.65	4286
1640.69	4271
1641.72	4238
1642.76	4251
1643.79	4164.5
1644.83	4208.5
1645.86	4111.5
1646.9	4097.5
1647.93	4096
1648.97	4118
1650	4046.5
1651.04	4066
1652.07	4034
1653.1	3983.5
1654.14	3980
1655.17	3931
1656.2	3939
1657.24	3907
1658.27	3951
1659.3	3934
1660.34	3895
1661.37	3905
1662.4	3803
1663.43	3820
1664.46	3790.5
1665.5	3806.5
1666.53	3779.5
1667.56	3761.5
1668.59	3737.5
1669.62	3747.5
1670.65	3690.5
1671.68	3741.5
1672.71	3652.5
1673.74	3716
1674.77	3682
1675.8	3641.5
1676.83	3686.5
1677.86	3671.5
1678.89	3612
1679.92	3652.5
1680.95	3606.5
1681.98	3609
1683.01	3571
1684.04	3564.5
1685.07	3625.5
1686.1	3529
1687.13	3567
1688.15	3545
1689.18	3525
1690.21	3553.5
1691.24	3496.5
1692.27	3537.5
1693.29	3470.5
1694.32	3481
1695.35	3472
1696.37	3437
1697.4	3491
1698.43	3479
1699.45	3485.5
1700.48	3468.5
1701.51	3445
1702.53	3464.5
1703.56	3437
1704.58	3413
1705.61	3466
1706.64	3415.5
1707.66	3445
1708.69	3416
1709.71	3419.5
1710.73	3410.5
1711.76	3407.5
1712.78	3398
1713.81	3401
1714.83	3381
1715.86	3319
1716.88	3357
1717.9	3328.5
1718.93	3313
1719.95	3357.5
1720.97	3350.5
1722	3323.5
1723.02	3294
1724.04	3300.5
1725.06	3316.5
1726.09	3313.5
1727.11	3240
1728.13	3322
1729.15	3277
1730.17	3287
1731.2	3295.5
1732.22	3266
1733.24	3254.5
1734.26	3246.5
1735.28	3240
1736.3	3239.5
1737.32	3238.5
1738.34	3224.5
1739.36	3211.5
1740.38	3221.5
1741.4	3219
1742.42	3190
1743.44	3228
1744.46	3206.5
1745.48	3192.5
1746.5	3170.5
1747.52	3166.5
1748.54	3155.5
1749.56	3158
1750.57	3149.5
1751.59	3160
1752.61	3121
1753.63	3130.5
1754.65	3154.5
1755.66	3115
1756.68	3092.5
1757.7	3143.5
1758.72	3110.5
1759.73	3092.5
1760.75	3072
1761.77	3102
1762.78	3051
1763.8	3072.5
1764.82	3129
1765.83	3072.5
1766.85	3071
1767.86	3092.5
1768.88	3031.5
1769.9	3105.5
1770.91	3046.5
1771.93	3052
1772.94	3048.5
1773.96	3037.5
1774.97	3064
1775.99	3034.5
1777	3023.5
1778.01	3016.5
1779.03	3021.5
1780.04	3030
1781.06	3028.5
1782.07	3060
1783.08	3010.5
1784.1	3021.5
1785.11	2987.5
1786.12	2956
1787.14	2950
1788.15	2985
1789.16	2969
1790.17	2995.5
1791.18	2975.5
1792.2	2930.5
1793.21	2959
1794.22	2973
1795.23	2925
1796.24	2950
1797.26	2934.5
1798.27	2896
1799.28	2947.5
1800.29	2904.5
1801.3	2929.5
1802.31	2917
1803.32	2908
1804.33	2886
1805.34	2932
1806.35	2877.5
1807.36	2920
1808.37	2878
1809.38	2908.5
1810.39	2874
1811.4	2866.5
1812.4	2865
1813.41	2852.5
1814.42	2863.5
1815.43	2889.5
1816.44	2860
1817.45	2848
1818.45	2849.5
1819.46	2857
1820.47	2806
1821.48	2834.5
1822.49	2829
1823.49	2832.5
1824.5	2813.5
1825.51	2815.5
1826.51	2804
1827.52	2777
1828.53	2784
1829.53	2856
1830.54	2805
1831.54	2770
1832.55	2787.5
1833.56	2769
1834.56	2788
1835.57	2785.5
1836.57	2745.5
1837.58	2782.5
1838.58	2764
1839.59	2725.5
1840.59	2729
1841.59	2737.5
1842.6	2733.5
1843.6	2728.5
1844.61	2716.5
1845.61	2723
1846.61	2697
1847.62	2710.5
1848.62	2690.5
1849.62	2694.5
1850.63	2679.5
1851.63	2684
1852.63	2679.5
1853.64	2695
1854.64	2676
1855.64	2669.5
1856.64	2694.5
1857.64	2673.5
1858.65	2655
1859.65	2636.5
1860.65	2702.5
1861.65	2659.5
1862.65	2654.5
1863.65	2631
1864.65	2625
1865.65	2623.5
1866.65	2635
1867.65	2592
1868.65	2654.5
1869.65	2599.5
1870.65	2617.5
1871.65	2637
1872.65	2588
1873.65	2608.5
1874.65	2599
1875.65	2591.5
1876.65	2578
1877.65	2587
1878.65	2568.5
1879.65	2578
1880.65	2583
1881.64	2610.5
1882.64	2590
1883.64	2556
1884.64	2588
1885.63	2556.5
1886.63	2566.5
1887.63	2575.5
1888.63	2582.5
1889.62	2571.5
1890.62	2563
1891.62	2544
1892.61	2547.5
1893.61	2540
1894.61	2548.5
1895.6	2530
1896.6	2523.5
1897.59	2537.5
1898.59	2489.5
1899.58	2525
1900.58	2521
1901.57	2522
1902.57	2521
1903.56	2541
1904.56	2547
1905.55	2485
1906.55	2500
1907.54	2513
1908.54	2493.5
1909.53	2510.5
1910.52	2488.5
1911.52	2532
1912.51	2502
1913.5	2513.5
1914.5	2535.5
1915.49	2510.5
1916.48	2504
1917.48	2511
1918.47	2499.5
1919.46	2511.5
1920.45	2514
1921.44	2475
1922.44	2442
1923.43	2476
1924.42	2453
1925.41	2513.5
1926.4	2468
1927.39	2472
1928.38	2460.5
1929.38	2426
1930.37	2511.5
1931.36	2461.5
1932.35	2476.5
1933.34	2469
1934.33	2468
1935.32	2430.5
1936.31	2440.5
1937.3	2442.5
1938.29	2450.5
1939.28	2470
1940.26	2464
1941.25	2444.5
1942.24	2435.5
1943.23	2402.5
1944.22	2436
1945.21	2410.5
1946.2	2410.5
1947.18	2419.5
1948.17	2430.5
1949.16	2425
1950.15	2421
1951.13	2415.5
1952.12	2396.5
1953.11	2432.5
1954.1	2429.5
1955.08	2398
1956.07	2362
1957.06	2399.5
1958.04	2352.5
1959.03	2350
1960.01	2380.5
1961	2358
1961.99	2368
1962.97	2338.5
1963.96	2359.5
1964.94	2331.5
1965.93	2331.5
1966.91	2334.5
1967.9	2336.5
1968.88	2337
1969.87	2342
1970.85	2336.5
1971.84	2325.5
1972.82	2344
1973.81	2343
1974.79	2310.5
1975.77	2312.5
1976.76	2311.5
1977.74	2315.5
1978.72	2320
1979.71	2324.5
1980.69	2313
1981.67	2301.5
1982.65	2298
1983.64	2317
1984.62	2277.5
1985.6	2276.5
1986.58	2323
1987.56	2301
1988.55	2284
1989.53	2297.5
1990.51	2295
1991.49	2275.5
1992.47	2293.5
1993.45	2287.5
1994.43	2245.5
1995.41	2306
1996.39	2269
1997.37	2243
1998.36	2223.5
1999.34	2283.5
2000.31	2297.5
2001.29	2283
2002.27	2285
2003.25	2255
2004.23	2280
2005.21	2248
2006.19	2239
2007.17	2241.5
2008.15	2231
2009.13	2235.5
2010.11	2229.5
2011.08	2251.5
2012.06	2236
2013.04	2270.5
2014.02	2220
2015	2239
2015.97	2249
2016.95	2217
2017.93	2226
2018.91	2217
2019.88	2231
2020.86	2194.5
2021.83	2215.5
2022.81	2233
2023.79	2195
2024.76	2200
2025.74	2143.5
2026.72	2184.5
2027.69	2183
2028.67	2184.5
2029.64	2202.5
2030.62	2171
2031.59	2168
2032.57	2194.5
2033.54	2175.5
2034.52	2160.5
2035.49	2171
2036.47	2141.5
2037.44	2151.5
2038.41	2160
2039.39	2158
2040.36	2139
2041.34	2179.5
2042.31	2171.5
2043.28	2149.5
2044.26	2156
2045.23	2147.5
2046.2	2120
2047.17	2141
2048.15	2109.5
2049.12	2144
2050.09	2133.5
2051.06	2144.5
2052.04	2111.5
2053.01	2165.5
2053.98	2123.5
2054.95	2138.5
2055.92	2103
2056.89	2109.5
2057.86	2100
2058.84	2115
2059.81	2125.5
2060.78	2088
2061.75	2128.5
2062.72	2108
2063.69	2108
2064.66	2095.5
2065.63	2057
2066.6	2062.5
2067.57	2102.5
2068.54	2096
2069.51	2093.5
2070.48	2033
2071.44	2058.5
2072.41	2044
2073.38	2105.5
2074.35	2092
2075.32	2061
2076.29	2057
2077.26	2059.5
2078.22	2048.5
2079.19	2025
2080.16	2050.5
2081.13	2033
2082.09	2054.5
2083.06	2006
2084.03	2066
2085	2009
2085.96	2014
2086.93	2008.5
2087.9	2069.5
2088.86	2029
2089.83	2034.5
2090.79	2056
2091.76	2055
2092.73	2030.5
2093.69	2016.5
2094.66	2008
2095.62	2015.5
2096.59	2001
2097.55	2050.5
2098.52	1995
2099.48	1999
2100.45	2006.5
2101.41	1993.5
2102.38	2033
2103.34	2013
2104.3	2016.5
2105.27	2022
2106.23	2036
2107.19	2014.5
2108.16	2007.5
2109.12	2018.5
2110.08	1998
2111.05	2039.5
2112.01	2017.5
2112.97	2028.5
2113.94	2014.5
2114.9	2022
2115.86	2054.5
2116.82	2036
2117.78	2061
2118.75	2040
2119.71	2043
2120.67	2078.5
2121.63	2078.5
2122.59	2073
2123.55	2065
2124.51	2074
2125.47	2048.5
2126.43	2087.5
2127.4	2105.5
2128.36	2073.5
2129.32	2100.5
2130.28	2057
2131.24	2069
2132.2	2048
2133.16	2048.5
2134.11	2070
2135.07	2048.5
2136.03	2035
2136.99	2030.5
2137.95	2016
2138.91	2027.5
2139.87	2042
2140.83	1988
2141.78	1969
2142.74	1991.5
2143.7	1994.5
2144.66	1997
2145.62	1959.23
2146.57	1953.26
2147.53	1968.44
2148.49	1952.09
2149.45	1959.66
2150.4	1954.9
2151.36	1915.39
2152.32	1920.1
2153.27	1932.07
2154.23	1908.2
2155.19	1898.99
2156.14	1893.46
2157.1	1899.55
2158.05	1866.7
2159.01	1851.64
2159.96	1891.74
2160.92	1847.05
2161.88	1858.92
2162.83	1840.88
2163.78	1836.62
2164.74	1824.56
2165.69	1826.28
2166.65	1800.01
2167.6	1776.71
2168.56	1802
2169.51	1802.69
2170.47	1800.31
2171.42	1781.75
2172.37	1801.59
2173.33	1786.52
2174.28	1793.17
2175.23	1787.3
2176.19	1783.49
2177.14	1758.27
2178.09	1740.7
2179.04	1740.34
2180	1750.6
2180.95	1737.35
2181.9	1750.51
2182.85	1724.25
2183.81	1716.09
2184.76	1732.26
2185.71	1720.58
2186.66	1715.08
2187.61	1725.02
2188.56	1702.95
2189.51	1704.92
2190.46	1691.67
2191.42	1708.78
2192.37	1690.93
2193.32	1692.99
2194.27	1699.83
2195.22	1673.51
2196.17	1699.19
2197.12	1683.1
2198.07	1674.17
2199.02	1663.37
2199.97	1668.08
2200.92	1674.6
2201.86	1656.68
2202.81	1662.57
2203.76	1654.36
2204.71	1637.31
2205.66	1624.82
2206.61	1634.63
2207.56	1636.33
2208.5	1630.77
2209.45	1645.42
2210.4	1637.11
2211.35	1640.66
2212.3	1622.16
2213.24	1622.82
2214.19	1631.76
2215.14	1626.73
2216.08	1618.34
2217.03	1622.48
2217.98	1620.88
2218.92	1610.84
2219.87	1594.68
2220.82	1598.39
2221.76	1583.95
2222.71	1586.21
2223.65	1597.72
2224.6	1581.98
2225.55	1582.33
2226.49	1588.2
2227.44	1596.43
2228.38	1591.7
2229.33	1576.04
2230.27	1570.39
2231.22	1570.01
2232.16	1572.14
2233.11	1577.21
2234.05	1577.77
2234.99	1579
2235.94	1580.69
2236.88	1581.31
2237.83	1578.89
2238.77	1584
2239.71	1576.51
2240.66	1557.21
2241.6	1557.69
2242.06	1566.5
2243.01	1595
2243.96	1574
2244.91	1579
2245.85	1573.5
2246.8	1565.5
2247.75	1566.5
2248.7	1569
2249.64	1578.5
2250.59	1577.5
2251.54	1543.5
2252.48	1532.5
2253.43	1531.5
2254.38	1546
2255.32	1513
2256.27	1527.5
2257.21	1539
2258.16	1525
2259.1	1508.5
2260.05	1523
2260.99	1506.5
2261.94	1487
2262.89	1495.5
2263.83	1502
2264.77	1509
2265.72	1502
2266.66	1497.5
2267.61	1487
2268.55	1504
2269.5	1470.5
2270.44	1467.5
2271.38	1480.5
2272.33	1460
2273.27	1463.5
2274.21	1463
2275.16	1444
2276.1	1439
2277.04	1468.5
2277.98	1462
2278.93	1474
2279.87	1429.5
2280.81	1455
2281.75	1432.5
2282.7	1469.5
2283.64	1450.5
2284.58	1432
2285.52	1427.5
2286.46	1436
2287.4	1411
2288.34	1452.5
2289.29	1455
2290.23	1432.5
2291.17	1428
2292.11	1434.5
2293.05	1407
2293.99	1436
2294.93	1421.5
2295.87	1435
2296.81	1420.5
2297.75	1403
2298.69	1403.5
2299.63	1409.5
2300.57	1392
2301.51	1397.5
2302.44	1402
2303.38	1406
2304.32	1392.5
2305.26	1406
2306.2	1421.5
2307.14	1403.5
2308.08	1376.5
2309.01	1397
2309.95	1408.5
2310.89	1391
2311.83	1408
2312.77	1383
2313.7	1364
2314.64	1378
2315.58	1381.5
2316.51	1394.5
2317.45	1389.5
2318.39	1380
2319.32	1362
2320.26	1359.5
2321.2	1355.5
2322.13	1360.5
2323.07	1390.5
2324	1367.5
2324.94	1358.5
2325.88	1395.5
2326.81	1368
2327.75	1344.5
2328.68	1364.5
2329.62	1370
2330.55	1364
2331.49	1370
2332.42	1365
2333.35	1348.5
2334.29	1339
2335.22	1363.5
2336.16	1366.5
2337.09	1362.5
2338.02	1363.5
2338.96	1347
2339.89	1335
2340.82	1351.5
2341.76	1338
2342.69	1340
2343.62	1340.5
2344.56	1355.5
2345.49	1345
2346.42	1342
2347.35	1330
2348.29	1333.5
2349.22	1341.5
2350.15	1320.5
2351.08	1351.5
2352.01	1337
2352.94	1344.5
2353.88	1324.5
2354.81	1322
2355.74	1301.5
2356.67	1345
2357.6	1324
2358.53	1321
2359.46	1308.5
2360.39	1336
2361.32	1332
2362.25	1322.5
2363.18	1313
2364.11	1300
2365.04	1287.5
2365.97	1297.5
2366.9	1318.5
2367.83	1306.5
2368.76	1321.5
2369.69	1282.5
2370.62	1295.5
2371.55	1297
2372.47	1286
2373.4	1293.5
2374.33	1319
2375.26	1324.5
2376.19	1300.5
2377.11	1312.5
2378.04	1311.5
2378.97	1312.5
2379.9	1279
2380.83	1269
2381.75	1268
2382.68	1311
2383.61	1282.5
2384.53	1274
2385.46	1276
2386.39	1267
2387.31	1282.5
2388.24	1274
2389.17	1280
2390.09	1263.5
2391.02	1261
2391.94	1262.5
2392.87	1285.5
2393.79	1249
2394.72	1280.5
2395.64	1260.5
2396.57	1263.5
2397.49	1264
2398.42	1258
2399.34	1249
2400.27	1253
2401.19	1245.5
2402.12	1245
2403.04	1253
2403.96	1235
2404.89	1258
2405.81	1240.5
2406.74	1258
2407.66	1276
2408.58	1246.5
2409.51	1224
2410.43	1250
2411.35	1241.5
2412.27	1239
2413.2	1239
2414.12	1223.5
2415.04	1242.5
2415.96	1226.5
2416.89	1244.5
2417.81	1217.5
2418.73	1224
2419.65	1216.5
2420.57	1206.5
2421.49	1234.5
2422.41	1220
2423.34	1234
2424.26	1206.5
2425.18	1224
2426.1	1228.5
2427.02	1188
2427.94	1208
2428.86	1213.5
2429.78	1210.5
2430.7	1196
2431.62	1219
2432.54	1210
2433.46	1189.5
2434.38	1180.5
2435.3	1197
2436.22	1192
2437.13	1179.5
2438.05	1176
2438.97	1188
2439.89	1206.5
2440.81	1190.5
2441.73	1204.5
2442.65	1184.5
2443.56	1195.5
2444.48	1185.5
2445.4	1180.5
2446.32	1181
2447.24	1176.5
2448.15	1164
2449.07	1170
2449.99	1200.5
2450.9	1163
2451.82	1189
2452.74	1182
2453.65	1181
2454.57	1182.5
2455.49	1175
2456.4	1169
2457.32	1177
2458.23	1154
2459.15	1178.5
2460.07	1167
2460.98	1154
2461.9	1163
2462.81	1155
2463.73	1162
2464.64	1159
2465.56	1185
2466.47	1150
2467.39	1168.5
2468.3	1177.5
2469.21	1148
2470.13	1165
2471.04	1145
2471.96	1164
2472.87	1156
2473.78	1163
2474.7	1174
2475.61	1130.5
2476.52	1129.5
2477.44	1125.5
2478.35	1138.5
2479.26	1139.5
2480.17	1134
2481.09	1163
2482	1168.5
2482.91	1140
2483.82	1123.5
2484.74	1137.5
2485.65	1126.5
2486.56	1157
2487.47	1130
2488.38	1117
2489.29	1134
2490.21	1125
2491.12	1113
2492.03	1123
2492.94	1127.5
2493.85	1140
2494.76	1128
2495.67	1114
2496.58	1110.5
2497.49	1128
2498.4	1117.5
2499.31	1111
2500.22	1124.5
2501.13	1113.5
2502.04	1130
2502.95	1105
2503.86	1094.5
2504.76	1118
2505.67	1096.5
2506.58	1108.5
2507.49	1103.5
2508.4	1072.5
2509.31	1078
2510.22	1079
2511.12	1108.5
2512.03	1085
2512.94	1088
2513.85	1093.5
2514.76	1091
2515.66	1062.5
2516.57	1104.5
2517.48	1080.5
2518.38	1086
2519.29	1081.5
2520.2	1087.5
2521.1	1084.5
2522.01	1082
2522.92	1078
2523.82	1080.5
2524.73	1084.5
2525.64	1102
2526.54	1074
2527.45	1066.5
2528.35	1072
2529.26	1079.5
2530.16	1087
2531.07	1079.5
2531.97	1075
2532.88	1075
2533.78	1060.5
2534.69	1080
2535.59	1070
2536.5	1072
2537.4	1065.5
2538.31	1050
2539.21	1056.5
2540.11	1057.5
2541.02	1047.5
2541.92	1057
2542.82	1056
2543.73	1066
2544.63	1044.5
2545.53	1050
2546.44	1048.5
2547.34	1065
2548.24	1041
2549.14	1065
2550.05	1051.5
2550.95	1045.5
2551.85	1039
2552.75	1049
2553.65	1033.5
2554.56	1053.5
2555.46	1052.5
2556.36	1040.5
2557.26	1038.5
2558.16	1051
2559.06	1040
2559.96	1035.5
2560.86	1039
2561.76	1028.5
2562.67	1046
2563.57	1028
2564.47	1031.5
2565.37	1020
2566.27	1009.5
2567.17	1018.5
2568.06	1029.5
2568.96	1030.5
2569.86	1014.5
2570.76	1027.5
2571.66	1024
2572.56	1008.5
2573.46	1012
2574.36	1012
2575.26	1008.5
2576.16	994
2577.05	1029
2577.95	1003
2578.85	1005.5
2579.75	1001.5
2580.65	1013
2581.54	1015
2582.44	1014.5
2583.34	1004
2584.24	994.5
2585.13	992
2586.03	999
2586.93	1000
2587.83	1006
2588.72	1005.5
2589.62	998
2590.51	986
2591.41	997.5
2592.31	999
2593.2	995
2594.1	989.5
2594.99	995
2595.89	970
2596.79	987
2597.68	985.5
2598.58	975.5
2599.47	989.5
2600.37	1003.5
2601.26	984.5
2602.16	978.5
2603.05	974
2603.94	966
2604.84	965
2605.73	977
2606.63	965
2607.52	965
2608.42	978
2609.31	991
2610.2	980.5
2611.1	956
2611.99	951
2612.88	951
2613.78	952.5
2614.67	978
2615.56	963.5
2616.45	956
2617.35	966
2618.24	956
2619.13	964.5
2620.02	957
2620.91	952
2621.81	947
2622.7	943.5
2623.59	947
2624.48	944.5
2625.37	939.5
2626.26	967
2627.15	949
2628.04	966
2628.94	918
2629.83	948.5
2630.72	950.5
2631.61	958.5
2632.5	934.5
2633.39	956.5
2634.28	934.5
2635.17	940
2636.06	931
2636.95	916.5
2637.84	950.5
2638.73	907
2639.61	927
2640.5	927
2641.39	940.5
2642.28	919
2643.17	906.5
2644.06	905
2644.95	900
2645.84	930
2646.72	908.5
2647.61	935
2648.5	919
2649.39	903
2650.28	884.5
2651.16	927.5
2652.05	923.5
2652.94	917.5
2653.82	905
2654.71	903.5
2655.6	908
2656.49	895.5
2657.37	923.5
2658.26	910.5
2659.14	907.5
2660.03	902
2660.92	909.5
2661.8	909.5
2662.69	886
2663.57	912.5
2664.46	902
2665.35	904.5
2666.23	874
2667.12	888
2668	892
2668.89	880
2669.77	915.5
2670.66	916.5
2671.54	889.5
2672.42	897
2673.31	904.5
2674.19	888.5
2675.08	904.5
2675.96	894.5
2676.84	892.5
2677.73	884
2678.61	877
2679.49	883.5
2680.38	884
2681.26	893
2682.14	887
2683.03	883.5
2683.91	882
2684.79	894.5
2685.68	893
2686.56	877
2687.44	877
2688.32	880.5
2689.2	882
2690.09	860
2690.97	881.5
2691.85	872.5
2692.73	885
2693.61	883.5
2694.49	860.5
2695.37	864
2696.25	870
2697.14	868
2698.02	851
2698.9	868.5
2699.78	865
2700.66	853.5
2701.54	878.5
2702.42	855
2703.3	853.5
2704.18	854.5
2705.06	879.5
2705.94	864.5
2706.82	855
2707.7	851.5
2708.57	846.5
2709.45	853.5
2710.33	854
2711.21	851
2712.09	854
2712.97	838
2713.85	840.5
2714.72	850.5
2715.6	846
2716.48	856
2717.36	836.5
2718.24	850.5
2719.11	829
2719.99	841.5
2720.87	815.5
2721.75	843.5
2722.62	825
2723.5	833.5
2724.38	847
2725.25	832.5
2726.13	835
2727.01	841
2727.88	848.5
2728.76	818
2729.63	829.5
2730.51	827
2731.39	832.5
2732.26	826
2733.14	815.5
2734.01	807.5
2734.89	821.5
2735.76	813
2736.64	833.5
2737.51	822.5
2738.39	827
2739.26	805
2740.14	832.5
2741.01	812
2741.89	816
2742.76	829
2743.63	819
2744.51	812
2745.38	797.5
2746.26	810
2747.13	802.5
2748	790.5
2748.88	801
2749.75	804.5
2750.62	808
2751.5	817.5
2752.37	808.5
2753.24	795
2754.11	796
2754.99	800
2755.86	795
2756.73	791.5
2757.6	798
2758.47	796
2759.35	779
2760.22	785
2761.09	781.5
2761.96	791
2762.83	777.5
2763.7	786.5
2764.57	795
2765.44	783
2766.32	794.5
2767.19	777.5
2768.06	770
2768.93	791.5
2769.8	772
2770.67	767
2771.54	767.5
2772.41	773.5
2773.28	777
2774.15	778.5
2775.02	784.5
2775.89	766
2776.75	773.5
2777.62	764.5
2778.49	758
2779.36	770
2780.23	760
2781.1	770
2781.97	763
2782.84	764.5
2783.7	754.5
2784.57	784
2785.44	759.5
2786.31	736.5
2787.18	770
2788.04	781.5
2788.91	750.5
2789.78	776
2790.64	760
2791.51	772.5
2792.38	760.5
2793.24	757
2794.11	741
2794.98	762
2795.85	753
2796.71	764
2797.58	728
2798.44	740.5
2799.31	763.5
2800.18	746
2801.04	734
2801.91	739
2802.77	752
2803.64	748.5
2804.5	745
2805.37	731
2806.23	737.5
2807.1	744
2807.96	732
2808.83	736
2809.69	742
2810.55	716
2811.42	730
2812.28	746
2813.15	728
2814.01	732
2814.88	733.5
2815.74	719.5
2816.6	720.5
2817.46	719
2818.33	721.5
2819.19	718
2820.05	724
2820.92	717
2821.78	741.5
2822.64	718.5
2823.51	713
2824.37	724.5
2825.23	734
2826.09	720
2826.95	717.5
2827.81	708.5
2828.68	715.5
2829.54	711
2830.4	732.5
2831.26	718
2832.12	715
2832.98	721
2833.84	717
2834.71	721.5
2835.57	724.5
2836.43	699.5
2837.29	712
2838.15	705.5
2839.01	710.5
2839.87	725
2840.73	707.5
2841.59	710
2842.45	710.5
2843.31	721.5
2844.17	718
2845.02	724
2845.88	726
2846.74	713
2847.6	716
2848.46	727
2849.32	720.5
2850.18	728
2851.04	720.5
2851.9	715
2852.75	727
2853.61	715
2854.47	733.5
2855.33	715
2856.19	724
2857.04	708.5
2857.9	706.5
2858.76	722
2859.61	712
2860.47	721.5
2861.33	719.5
2862.19	738.5
2863.04	722.5
2863.9	710.5
2864.76	710.5
2865.61	722.5
2866.47	722
2867.32	725
2868.18	715.5
2869.04	697
2869.89	703
2870.75	716
2871.6	708.5
2872.46	729.5
2873.31	721
2874.17	725.5
2875.02	708.5
2875.88	709
2876.73	726
2877.59	720
2878.44	714
2879.3	702
2880.15	716.5
2881	717.5
2881.86	712.5
2882.71	719
2883.57	708
2884.42	703.5
2885.27	703
2886.13	712
2886.98	699.5
2887.83	702.5
2888.69	721
2889.54	707
2890.39	697
2891.24	718.5
2892.1	720.5
2892.95	706.5
2893.8	721
2894.65	715
2895.51	703.5
2896.36	708
2897.21	703.5
2898.06	686.5
2898.91	708.5
2899.76	702.5
2900.62	711
2901.47	723
2902.32	719
2903.17	720.5
2904.02	727
2904.87	706
2905.72	721
2906.57	716
2907.42	710.5
2908.27	709.5
2909.12	710
2909.97	707.5
2910.82	697
2911.67	719.5
2912.52	715
2913.37	710
2914.22	709
2915.07	709
2915.92	711
2916.77	706.5
2917.62	732
2918.47	728.5
2919.31	714
2920.16	700
2921.01	705
2921.86	705
2922.71	718
2923.55	721.5
2924.4	720
2925.25	725
2926.1	734
2926.94	723.5
2927.79	729.5
2928.64	730
2929.49	717
2930.33	722
2931.18	731
2932.03	728
2932.87	723
2933.72	728
2934.57	702
2935.41	704.5
2936.26	721
2937.11	717.5
2937.95	714
2938.8	712
2939.64	708.5
2940.49	721
2941.33	707
2942.18	716
2943.02	711.5
2943.87	697
2944.71	700.5
2945.56	687.5
2946.4	685
2947.25	690.5
2948.09	673
2948.94	656
2949.78	683
2950.63	681.5
2951.47	666.5
2952.31	650.5
2953.16	645
2954	659.5
2954.84	649
2955.69	649
2956.53	662.5
2957.37	628
2958.22	647
2959.06	637
2959.9	632
2960.75	620
2961.59	636.5
2962.43	616.5
2963.27	643
2964.11	637.5
2964.96	625.5
2965.8	609.5
2966.64	616
2967.48	637
2968.32	612
2969.16	615
2970.01	627
2970.85	610
2971.69	620.5
2972.53	611.5
2973.37	620
2974.21	615.5
2975.05	603.5
2975.89	603.5
2976.73	605
2977.57	606.5
2978.41	597
2979.25	588.5
2980.09	595
2980.93	588
2981.77	588.5
2982.61	566.5
2983.45	573.5
2984.29	591
2985.13	594
2985.97	594
2986.81	586.5
2987.65	566.5
2988.49	577.5
2989.32	562.5
2990.16	556
2991	571.5
2991.84	577.5
2992.68	568.5
2993.51	552
2994.35	556
2995.19	557
2996.03	564.5
2996.86	551.5
2997.7	546
2998.54	542.5
2999.38	561.5
