#Acq. time (s)=	5
#Accumulations=	5
#Range (cm-¹)=	100...3000
#Windows=	3
#Autofocus=	Off
#AutoExposure=	Off
#Spike filter=	Multiple accum.
#Delay time (s)=	0
#Binning=	1
#Readout mode=	Signal
#DeNoise=	Off
#ICS correction=	Off
#Dark correction=	Off
#Inst. Process=	Off
#Instrument=	LabRAM HR Evol
#Detector=	Syncerity OE
#Objective=	x100_VIS_LWD
#Grating=	600 (500nm)
#ND Filter=	100%
#Laser=	633nm_Edge
#Hole=	100.021
#Range=	Visible
#Project=	Omar
#Sample=	chi
#Site=	f
#Title=	nsno
#Remark=	
#Date=	12.09.2023 16:45
#Acquired=	12.09.2023 16:45:21
101.026	2620.5
102.309	2612
103.592	2563
104.875	2530.5
106.158	2511
107.441	2499
108.723	2464.5
110.005	2427.5
111.289	2449
112.571	2402.5
113.852	2387.5
115.134	2390
116.415	2352.5
117.696	2333
118.976	2297
120.257	2317
121.537	2284
122.817	2257
124.097	2246.5
125.377	2257.5
126.656	2213.5
127.936	2205
129.215	2193
130.493	2187.5
131.772	2140.5
133.049	2128
134.327	2142.5
135.605	2111.5
136.883	2098.5
138.161	2066
139.438	2051.5
140.715	2079
141.992	2034.5
143.269	2004.5
144.545	1964.5
145.82	2007.5
147.096	1977
148.372	1945.5
149.648	1921.5
150.924	1908
152.199	1913
153.472	1902
154.747	1875
156.022	1862
157.296	1832.5
158.571	1826
159.843	1844
161.117	1798.5
162.391	1815
163.664	1790.5
164.937	1797.5
166.209	1771.5
167.482	1787.5
168.754	1752.5
170.025	1743
171.297	1759.5
172.569	1736
173.841	1731.5
175.111	1729.5
176.383	1733
177.654	1716
178.923	1694.5
180.194	1711.5
181.464	1704.5
182.733	1712
184.003	1685
185.273	1712.5
186.542	1710.5
187.811	1704.5
189.079	1728
190.348	1683
191.617	1687.5
192.884	1727.5
194.152	1709
195.419	1715.5
196.687	1712.5
197.955	1734.5
199.221	1716.5
200.489	1725
201.755	1751
203.022	1739.5
204.287	1741.5
205.554	1725
206.818	1723
208.085	1747
209.349	1748.5
210.615	1755.5
211.879	1733.5
213.144	1760
214.408	1758
215.673	1749.5
216.936	1759
218.201	1759
219.464	1741
220.728	1742.5
221.99	1742
223.253	1774.5
224.516	1744
225.778	1763
227.041	1753.5
228.303	1761
229.564	1746
230.826	1760.5
232.087	1772
233.348	1768
234.61	1773
235.87	1761
237.13	1798
238.391	1782
239.651	1794
240.91	1784
242.171	1807.5
243.43	1809.5
244.689	1852
245.949	1829.5
247.207	1835.5
248.465	1786.5
249.723	1806.5
250.983	1817
252.24	1838
253.498	1824.5
254.755	1829
256.013	1794
257.27	1863.5
258.526	1836.5
259.783	1827
261.039	1831
262.296	1862.5
263.552	1818
264.808	1841
266.063	1818.5
267.318	1839.5
268.573	1820
269.828	1825.5
271.084	1837.5
272.338	1844.5
273.592	1834.5
274.846	1842
276.1	1823
277.353	1847.5
278.607	1868.5
279.86	1848.5
281.113	1857.5
282.365	1862.5
283.619	1885.5
284.872	1872
286.124	1855
287.376	1858.5
288.627	1893
289.879	1885
291.13	1911.5
292.381	1913.5
293.632	1919.5
294.883	1875.5
296.133	1915.5
297.384	1925
298.634	1902
299.883	1932.5
301.133	1937.5
302.381	1912.5
303.63	1921
304.879	1913.5
306.128	1911.5
307.377	1900.5
308.625	1897
309.874	1926.5
311.122	1909
312.37	1923.5
313.617	1902.5
314.863	1906.5
316.111	1899
317.358	1892
318.604	1874
319.851	1863
321.098	1880
322.342	1858
323.588	1876.5
324.834	1844
326.08	1849.5
327.325	1853
328.569	1830
329.814	1835
331.059	1821
332.304	1822
333.548	1806
334.791	1823
336.035	1822
337.279	1781
338.521	1817
339.765	1786.5
341.008	1819.5
342.251	1802.5
343.492	1807.5
344.735	1790.5
345.977	1791
347.218	1804.5
348.46	1790
349.702	1789.5
350.942	1791.5
352.184	1779.5
353.425	1797.5
354.665	1811.5
355.905	1788.5
357.145	1789
358.385	1777
359.625	1805
360.864	1788.5
362.104	1810
363.342	1792
364.581	1789
365.819	1805
367.058	1812.5
368.296	1787
369.534	1817
370.771	1780.5
372.01	1797
373.246	1792
374.484	1797.5
375.72	1784
376.958	1783.5
378.194	1766.5
379.431	1802
380.666	1750.5
381.903	1784.5
383.138	1767
384.374	1793.5
385.609	1774
386.845	1803
388.079	1756
389.313	1773.5
390.548	1771.5
391.782	1799
393.016	1769
394.25	1787
395.483	1763
396.718	1780.5
397.95	1747.5
399.183	1764.5
400.416	1785
401.648	1784
402.88	1818
404.113	1810
405.345	1783.5
406.576	1787
407.807	1826.5
409.04	1795
410.27	1802.5
411.501	1831.5
412.731	1836
413.963	1847.5
415.193	1849.5
416.422	1848
417.652	1838.5
418.883	1840
420.112	1845.5
421.341	1852.5
422.569	1846.5
423.798	1844.5
425.028	1876
426.256	1855.5
427.484	1851
428.711	1843.5
429.939	1851
431.166	1876
432.394	1867
433.622	1843
434.849	1858
436.075	1851.5
437.302	1876
438.528	1846
439.754	1885
440.98	1846
442.205	1852.5
443.431	1852.5
444.656	1871
445.881	1859.5
447.106	1887
448.33	1863
449.555	1843.5
450.779	1833.5
452.003	1836
453.227	1863
454.45	1854
455.674	1853.5
456.897	1858.5
458.12	1853.5
459.343	1857
460.566	1835
461.788	1863.5
463.01	1817
464.232	1853
465.454	1835
466.676	1839.5
467.897	1839.5
469.119	1871.5
470.34	1844.5
471.559	1858
472.78	1876
474.001	1819
475.221	1837
476.441	1862.5
477.661	1862
478.879	1866
480.099	1855
481.318	1880
482.537	1858.5
483.756	1869
484.974	1862.5
486.192	1868
487.411	1868.5
488.629	1871
489.847	1896
491.063	1905
492.281	1884.5
493.498	1900.5
494.714	1920
495.931	1902
497.148	1900.5
498.365	1879.5
499.58	1914
500.796	1921.5
502.012	1915
503.226	1909.5
504.442	1911.5
505.657	1911
506.871	1934.5
508.086	1917.5
509.3	1939
510.515	1901
511.729	1928
512.942	1892
514.156	1932
515.369	1930
516.582	1910.5
517.796	1925.5
519.008	1912
520.221	1916
521.433	1884
522.645	1923.5
523.857	1935
525.069	1915.5
526.28	1905
527.492	1901
528.702	1901.5
529.914	1928.5
531.124	1895
532.335	1924
533.545	1890
534.756	1925
535.965	1918.5
537.175	1916.5
538.384	1928.5
539.593	1908
540.803	1903
542.011	1909.5
543.221	1910.5
544.429	1902.5
545.636	1891.5
546.845	1915
548.052	1920
549.261	1924
550.468	1946.5
551.675	1934
552.883	1889.5
554.089	1912
555.295	1928
556.503	1891
557.709	1907.5
558.914	1900.5
560.12	1926
561.326	1912
562.531	1932
563.736	1920
564.941	1926.5
566.147	1932.5
567.351	1930.5
568.555	1918
569.759	1944
570.964	1927.5
572.168	1943.5
573.371	1930
574.574	1942
575.777	1919
576.981	1943
578.184	1932.5
579.386	1925
580.588	1921
581.79	1954
582.992	1918
584.194	1923
585.395	1933.5
586.598	1938.5
587.799	1925
589	1964
590.201	1935
591.401	1958
592.601	1960
593.801	1949.5
595.001	1931
596.201	1955
597.401	1965
598.6	1956.5
599.799	1955
600.998	1953.5
602.197	1981.5
603.395	1983.5
604.594	1965
605.792	1942
606.99	1969.5
608.188	1979.5
609.386	1988
610.583	1975.5
611.78	1979.5
612.977	1962.5
614.174	1991.5
615.371	1998
616.566	2006
617.762	1995
618.958	2006.5
620.154	1983.5
621.35	1991
622.546	2007
623.741	2003.5
624.935	2012.5
626.13	2013.5
627.325	2034
628.519	2029.5
629.714	2050.5
630.908	2017.5
632.101	2013.5
633.295	2040
634.488	2022.5
635.682	2073.5
636.874	2019
638.067	2044.5
639.26	2041.5
640.453	2042
641.644	2078.5
642.836	2071
644.028	2056.5
645.219	2054.5
646.411	2065.5
647.602	2060
648.792	2057
649.984	2039
651.175	2072.5
652.364	2038.5
653.555	2038.5
654.745	2036.5
655.934	2060
657.124	2052
658.314	2045
659.503	2059.5
660.692	2036.5
661.88	2006
663.07	2025
664.257	2041
665.446	2030.5
666.635	2019.5
667.822	2041
669.01	2033
670.197	2012.5
671.384	2008
672.571	2031
673.758	2002.5
674.944	2020.5
676.131	2010
677.317	2016
678.502	2043.5
679.689	1999.5
680.874	1982
682.06	2003.5
683.245	2005
684.431	1981.5
685.615	1998
686.799	1982.5
687.984	1991
689.168	1995.5
690.353	1980
691.536	1997.5
692.719	2003.5
693.904	1978
695.086	1973.5
696.269	1991
697.453	1981.5
698.635	1982
699.817	1972
701	2004
702.182	2009
703.364	2009.5
704.545	1973.5
705.727	1990.5
706.908	1965
708.089	1980.5
709.27	1972
710.451	2016
711.632	1981
712.812	2007.5
713.991	1999
715.172	2011
716.352	1978.5
717.531	1979
718.71	2004
719.889	1993.5
721.068	1997.5
722.248	2001
723.426	1996.5
724.604	2000
725.782	1978.5
726.96	1986
728.138	1994.5
729.315	2020.5
730.492	2025
731.669	2016.5
732.846	2004
734.024	2008
735.201	2008.5
736.377	2040.5
737.553	2003
738.729	2010.5
739.905	2004
741.081	2049
742.256	1982
743.431	2023
744.606	2003
745.781	1972
746.956	2001.5
748.13	2011.5
749.303	2009.5
750.477	2027.5
751.651	2014
752.825	2004.5
753.999	1999.5
755.172	1984.5
756.345	1989
757.518	1993.5
758.691	2006.5
759.864	2019
761.035	1977.5
762.207	1962
763.379	2012.5
764.551	1999
765.723	2006.5
766.894	2002.5
768.064	1995
769.236	1999
770.407	2037
771.577	1981.5
772.748	2009
773.917	1999.5
775.088	2012
776.258	2005
777.427	1984
778.596	1996
779.765	1957.5
780.935	2010
782.104	2005
783.272	2009.5
784.44	2014.5
785.609	1974.5
786.776	1996
787.944	2027
789.113	1978.5
790.279	1992
791.447	2000
792.613	1969.5
793.78	1974
794.948	2008.5
796.113	1979.5
797.28	2009
798.445	1996
799.612	2008.5
800.778	2025
801.943	2027
803.109	2009.5
804.273	2037.5
805.439	2010
806.603	2019.5
807.768	2048
808.932	2006
810.096	2038.5
811.26	2041.5
812.424	2017
813.587	2064
814.751	2063
815.914	2045
817.078	2056
818.24	2060
819.402	2021
820.565	2046.5
821.727	2052
822.889	2084
824.051	2052
825.212	2068.5
826.374	2053.5
827.535	2054.5
828.697	2078.5
829.857	2057
831.018	2048
832.179	2087
833.339	2094.5
834.499	2065
835.659	2038.5
836.819	2081
837.978	2121
839.137	2088
840.297	2094
841.456	2068.5
842.614	2077
843.772	2083.5
844.932	2083.5
846.09	2080.5
847.247	2098.5
848.405	2079
849.562	2088
850.721	2076
851.878	2073.5
853.034	2086
854.191	2073
855.348	2091.5
856.504	2068.5
857.661	2118.5
858.817	2076.5
859.973	2096.5
861.129	2077
862.284	2102.5
863.439	2099.5
864.594	2051.5
865.749	2071
866.904	2088
868.058	2085.5
869.212	2052
870.367	2084.5
871.522	2067
872.676	2026.5
873.829	2048.5
874.983	2048.5
876.136	2038.5
877.289	2075.5
878.442	2044.5
879.593	2067.5
880.746	2037.5
881.898	2065.5
883.05	2019
884.202	2011
885.354	2033
886.506	2008
887.657	2026
888.808	2052
889.96	2046.5
891.11	2020
892.261	2024.5
893.41	2008
894.561	2000
895.711	2015
896.861	2000.5
898.011	2006.5
899.161	2028.5
900.309	2009
901.458	1999
902.607	2001.5
903.756	2004.5
904.904	2014.5
906.052	1970
907.201	1990
908.349	1999
909.496	1973.5
910.644	2006
911.791	1980
912.939	1974
914.085	1992
915.232	1991.5
916.379	1981.5
917.525	2019.5
918.671	2001
919.818	2001
920.963	1997.5
922.109	1973
923.255	2015
924.399	1971.5
925.545	1997
926.689	2007.5
927.834	1986.5
928.979	2034.5
930.123	2005
931.268	2000.5
932.411	2005
933.555	2006
934.698	1993.5
935.842	2016
936.985	1991.5
938.128	2042
939.271	1991
940.414	2016.5
941.556	2006
942.699	2010.5
943.84	2029.5
944.983	2014.5
946.124	2010
947.266	1986
948.407	1994.5
949.547	2010
950.689	2024.5
951.829	2041.5
952.971	2009.5
954.111	2018.5
955.25	2044.5
956.391	2047
957.531	2023
958.67	2015
959.81	2020
960.949	2045.5
962.088	2029
963.227	2038.5
964.366	2029.5
965.504	2036
966.643	2039
967.781	2018
968.919	2019
970.056	2023
971.195	2027.25
972.332	2021
973.469	2046
974.605	2060
975.743	2018
976.88	2025.5
978.016	2017
979.152	2019.5
980.288	2036
981.423	2029.5
982.56	2038.5
983.696	2030
984.831	2048
985.966	2024.5
987.101	2032
988.235	2029
989.37	2032
990.504	2032.5
991.638	2040.5
992.773	2063.5
993.907	2037.5
995.041	2051.5
996.174	2077.5
997.307	2097.5
998.44	2133
999.573	2131.5
1000.71	2118.5
1001.84	2113
1002.97	2047
1004.1	2041.5
1005.24	2039.5
1006.37	2049
1007.5	2036.5
1008.63	2035
1009.76	2034
1010.89	2017
1012.02	2024.5
1013.15	2033
1014.28	2031
1015.41	2015.5
1016.54	2040
1017.67	2049.5
1018.8	2058.5
1019.93	1999
1021.06	2004
1022.19	2002.5
1023.32	2044
1024.45	2046
1025.58	2056.5
1026.71	2028
1027.84	2020
1028.96	2045
1030.09	2017
1031.22	2025
1032.35	2053.5
1033.47	2023.5
1034.6	2031
1035.73	2014.5
1036.86	2045.5
1037.98	2054.5
1039.11	2046
1040.23	2064.5
1041.36	2012
1042.49	2061
1043.61	2047
1044.74	2054.5
1045.86	2044
1046.99	2054.5
1048.11	2064.5
1049.24	2070
1050.36	2070
1051.49	2046.5
1052.61	2051
1053.74	2063
1054.86	2068.5
1055.98	2063.5
1057.11	2052.5
1058.23	2056.5
1059.35	2058.5
1060.48	2039.5
1061.6	2086
1062.72	2045
1063.84	2097.5
1064.97	2025
1066.09	2090.5
1067.21	2086.5
1068.33	2061.5
1069.45	2063.5
1070.57	2034.5
1071.7	2052
1072.82	2067.5
1073.94	2045
1075.06	2080.5
1076.18	2078.5
1077.3	2044.5
1078.42	2044
1079.54	2056
1080.66	2028.5
1081.78	2048.5
1082.9	2034.5
1084.02	2026
1085.14	2052.5
1086.25	2026.5
1087.37	2027.5
1088.49	2039.5
1089.61	2028.5
1090.73	2040
1091.84	2030
1092.96	2022
1094.08	2010
1095.2	1997
1096.31	2022.5
1097.43	2028
1098.55	2051.5
1099.66	2022
1100.78	2032.5
1101.9	2020.5
1103.01	2014.5
1104.13	2030
1105.25	2013.5
1106.36	2031
1107.48	2028
1108.59	2006
1109.71	2038
1110.82	2012.5
1111.93	2039
1113.05	2045
1114.16	2023.5
1115.28	2016
1116.39	2001
1117.51	2038
1118.62	2006
1119.73	2025
1120.85	2021.5
1121.96	2055
1123.07	2007
1124.18	2018.5
1125.3	2032.5
1126.41	2039
1127.52	2034
1128.63	2023.5
1129.74	2056.5
1130.85	2037
1131.97	2041.5
1133.08	2063.5
1134.19	2042
1135.3	2081.5
1136.41	2057.5
1137.52	2045
1138.63	2017
1139.74	2041.5
1140.85	2083.5
1141.96	2068
1143.07	2094
1144.18	2087
1145.29	2108
1146.4	2086
1147.51	2098.5
1148.61	2123
1149.72	2112.5
1150.83	2107.5
1151.94	2113.5
1153.05	2115.5
1154.15	2142.5
1155.26	2175.5
1156.37	2159.5
1157.48	2178
1158.58	2188.5
1159.69	2167
1160.8	2197.5
1161.9	2205
1163.01	2206.5
1164.11	2200.5
1165.22	2222
1166.33	2211.5
1167.43	2208.5
1168.54	2237
1169.64	2238
1170.75	2227
1171.85	2220
1172.96	2227
1174.06	2188.5
1175.17	2184.5
1176.27	2201.5
1177.37	2178
1178.48	2188.5
1179.58	2136
1180.68	2126
1181.79	2158
1182.89	2142.5
1183.99	2140
1185.1	2128
1186.2	2163.5
1187.3	2157.5
1188.4	2152
1189.5	2157
1190.61	2121.5
1191.71	2143
1192.81	2127
1193.91	2117
1195.01	2128.5
1196.11	2131.62
1197.21	2108.71
1198.31	2142.5
1199.42	2128.18
1200.51	2137.77
1201.61	2129.42
1202.72	2167.45
1203.81	2151.63
1204.91	2129.32
1206.01	2111.22
1207.11	2143.65
1208.21	2100.86
1209.31	2111.8
1210.41	2117.88
1211.51	2105.34
1212.61	2103.48
1213.7	2125.13
1214.8	2109.58
1215.9	2108.9
1217	2097.79
1218.09	2122.98
1219.19	2116.03
1220.29	2098.01
1221.38	2104.04
1222.48	2105.14
1223.58	2095.73
1224.67	2095.06
1225.77	2109.93
1226.87	2083.4
1227.96	2100.65
1229.06	2085.37
1230.15	2115.72
1231.25	2073.18
1232.34	2107.87
1233.44	2114.3
1234.53	2111.58
1235.63	2112.21
1236.72	2109.94
1237.81	2131.65
1238.91	2098.6
1240	2138.97
1241.1	2121.62
1242.19	2120.67
1243.28	2118.24
1244.38	2136.19
1245.47	2138.9
1246.56	2122.32
1247.65	2141.7
1248.75	2134.77
1249.84	2119.46
1250.93	2141.21
1252.02	2125.05
1253.11	2143.55
1254.21	2141.96
1255.3	2141.77
1256.39	2153.25
1257.48	2140.82
1258.57	2142.88
1259.66	2149.93
1260.75	2156.7
1261.84	2157.44
1262.93	2154.79
1264.02	2170.23
1265.11	2171.22
1266.2	2185.24
1267.29	2188.32
1268.38	2173.21
1269.47	2179.14
1270.56	2178.89
1271.65	2182.64
1272.73	2172.17
1273.82	2180.29
1274.91	2187.58
1276	2175.57
1277.09	2192.84
1278.17	2184.61
1279.26	2190.34
1280.35	2189.85
1281.43	2192.63
1282.52	2182.7
1283.61	2183.82
1284.69	2161.98
1285.78	2211.4
1286.87	2177.44
1287.95	2211.83
1289.04	2183.67
1290.13	2184.51
1291.21	2195.22
1292.3	2194.48
1293.38	2179.43
1294.47	2204.38
1295.55	2196.33
1296.64	2195.74
1297.72	2198.48
1298.8	2202.42
1299.89	2184.69
1300.97	2163.24
1302.06	2176.37
1303.14	2204.31
1304.22	2181.13
1305.31	2163.41
1306.39	2173.3
1307.34	2197
1308.43	2152.5
1309.52	2181
1310.6	2187.5
1311.69	2199
1312.78	2176.5
1313.87	2155
1314.96	2178.5
1316.04	2164.5
1317.13	2203
1318.21	2165
1319.3	2174
1320.39	2124
1321.47	2153
1322.56	2160.5
1323.65	2178
1324.73	2178.5
1325.82	2158.5
1326.9	2146.5
1327.99	2147.5
1329.07	2176.5
1330.16	2141.5
1331.24	2129
1332.32	2137.5
1333.41	2138.5
1334.49	2135
1335.58	2151
1336.66	2136
1337.74	2100
1338.83	2110.5
1339.91	2100.5
1340.99	2123.5
1342.08	2111.5
1343.16	2127
1344.24	2099
1345.32	2124.5
1346.41	2114.5
1347.49	2066
1348.57	2071.5
1349.65	2054.5
1350.73	2065
1351.81	2064
1352.9	2055
1353.98	2067
1355.06	2065.5
1356.14	2077.5
1357.22	2069
1358.3	2061
1359.38	2081
1360.46	2035.5
1361.54	2086
1362.62	2069.5
1363.7	2078.5
1364.78	2064
1365.85	2064.5
1366.93	2045
1368.01	2041
1369.09	2041.5
1370.17	2039
1371.25	2046.5
1372.33	2044.5
1373.4	2023
1374.48	2042.5
1375.56	2028.5
1376.64	2040.5
1377.71	2052.5
1378.79	2066
1379.87	2032
1380.94	2061
1382.02	2059.5
1383.1	2026.5
1384.17	2037
1385.25	2037
1386.32	2041
1387.4	2021
1388.47	2034
1389.55	2039.5
1390.63	2021.5
1391.7	2041
1392.77	2025.5
1393.85	2000.5
1394.92	1995.5
1396	2024
1397.07	2015
1398.15	2034
1399.22	2035.5
1400.29	2030
1401.37	2045.5
1402.44	1991.5
1403.51	2028
1404.59	2065.5
1405.66	2013
1406.73	2044
1407.8	2063.5
1408.87	2013.5
1409.95	2061.5
1411.02	2066.5
1412.09	2016.5
1413.16	2035.5
1414.23	2061.5
1415.3	2038.5
1416.38	2042.5
1417.45	2034.5
1418.52	2048
1419.59	2056
1420.66	2047.5
1421.73	2041.5
1422.8	2054
1423.87	2093
1424.94	2075
1426.01	2064.5
1427.08	2064
1428.15	2078
1429.21	2073.5
1430.28	2069.5
1431.35	2036
1432.42	2079.5
1433.49	2074
1434.56	2078
1435.63	2085.5
1436.69	2090
1437.76	2070
1438.83	2078.5
1439.89	2087
1440.96	2130.5
1442.03	2106
1443.1	2083
1444.16	2111.5
1445.23	2078.5
1446.3	2105
1447.36	2096
1448.43	2075.5
1449.49	2085.5
1450.56	2094.5
1451.62	2118.5
1452.69	2096.5
1453.75	2097
1454.82	2094
1455.88	2065.5
1456.95	2110.5
1458.01	2112
1459.08	2082
1460.14	2112.5
1461.2	2119
1462.27	2092
1463.33	2147.5
1464.4	2108.5
1465.46	2106.5
1466.52	2113
1467.58	2126
1468.65	2125
1469.71	2122.5
1470.77	2114
1471.83	2133.5
1472.9	2137
1473.96	2135.5
1475.02	2091.5
1476.08	2123
1477.14	2106.5
1478.2	2124.5
1479.27	2170.5
1480.33	2169.5
1481.39	2141
1482.45	2136.5
1483.51	2150
1484.57	2128
1485.63	2159.5
1486.69	2139
1487.75	2143.5
1488.81	2154
1489.87	2167
1490.93	2125.5
1491.99	2152
1493.04	2136.5
1494.1	2133.5
1495.16	2126
1496.22	2139.5
1497.28	2132.5
1498.34	2139
1499.39	2171
1500.45	2131.5
1501.51	2115
1502.57	2134.5
1503.62	2117
1504.68	2129
1505.74	2102
1506.79	2095.5
1507.85	2103
1508.91	2142.5
1509.96	2127.5
1511.02	2124.5
1512.07	2114.5
1513.13	2139
1514.19	2110.5
1515.24	2131
1516.3	2104.5
1517.35	2111
1518.41	2123
1519.46	2131.5
1520.52	2097
1521.57	2110
1522.62	2156
1523.68	2173.5
1524.73	2159.5
1525.79	2144.5
1526.84	2126
1527.89	2105
1528.95	2129.5
1530	2138.5
1531.05	2132.5
1532.1	2133.5
1533.16	2109
1534.21	2123.5
1535.26	2135.5
1536.31	2135
1537.37	2134
1538.42	2112.5
1539.47	2119
1540.52	2115
1541.57	2082.5
1542.62	2118.5
1543.67	2127.5
1544.72	2106
1545.78	2102
1546.83	2113
1547.88	2094.5
1548.93	2071
1549.98	2104.5
1551.03	2081
1552.07	2119
1553.12	2073
1554.17	2090
1555.22	2090.5
1556.27	2107
1557.32	2096.5
1558.37	2055
1559.42	2091
1560.47	2096
1561.51	2057.5
1562.56	2067.5
1563.61	2073.5
1564.66	2099
1565.7	2072
1566.75	2067
1567.8	2066.5
1568.85	2080.5
1569.89	2066.5
1570.94	2047.5
1571.98	2039.5
1573.03	2061
1574.08	2051.5
1575.12	2064.5
1576.17	2051
1577.21	2081.5
1578.26	2081
1579.31	2061.5
1580.35	2035
1581.4	2077
1582.44	2070
1583.49	2084.5
1584.53	2072
1585.57	2045
1586.62	2095.5
1587.66	2094
1588.71	2064
1589.75	2086.5
1590.79	2147
1591.84	2064
1592.88	2091
1593.92	2092
1594.97	2109
1596.01	2099.5
1597.05	2104
1598.09	2072.5
1599.14	2094.5
1600.18	2065.5
1601.22	2051
1602.26	2031.5
1603.3	2029
1604.34	1999.5
1605.38	1995
1606.43	1966
1607.47	1969
1608.51	1913.5
1609.55	1922
1610.59	1883.5
1611.63	1889.5
1612.67	1862.5
1613.71	1873
1614.75	1850
1615.79	1826.5
1616.83	1805
1617.87	1791
1618.91	1805.5
1619.94	1769.5
1620.98	1745.5
1622.02	1760.5
1623.06	1746.5
1624.1	1716
1625.14	1710.5
1626.17	1722
1627.21	1708
1628.25	1674.5
1629.29	1688
1630.32	1664
1631.36	1636
1632.4	1659
1633.43	1630.5
1634.47	1623
1635.51	1625.5
1636.54	1608
1637.58	1608.5
1638.62	1601
1639.65	1569.5
1640.69	1597
1641.72	1578.5
1642.76	1550
1643.79	1528.5
1644.83	1539.5
1645.86	1535.5
1646.9	1525
1647.93	1507
1648.97	1525.5
1650	1515
1651.04	1492
1652.07	1493.5
1653.1	1480.5
1654.14	1480.5
1655.17	1461
1656.2	1450
1657.24	1461
1658.27	1424
1659.3	1426
1660.34	1429
1661.37	1428
1662.4	1425
1663.43	1388
1664.46	1401
1665.5	1416
1666.53	1399.5
1667.56	1380
1668.59	1389.5
1669.62	1384
1670.65	1406
1671.68	1388.5
1672.71	1345.5
1673.74	1377.5
1674.77	1360.5
1675.8	1370
1676.83	1355.5
1677.86	1334
1678.89	1344.5
1679.92	1314
1680.95	1350.5
1681.98	1343
1683.01	1349.5
1684.04	1315.5
1685.07	1314.5
1686.1	1311.5
1687.13	1330.5
1688.15	1303
1689.18	1301
1690.21	1307.5
1691.24	1294.5
1692.27	1301.5
1693.29	1294.5
1694.32	1289
1695.35	1289
1696.37	1284
1697.4	1262
1698.43	1270
1699.45	1275
1700.48	1277.5
1701.51	1287.5
1702.53	1285.5
1703.56	1273
1704.58	1266
1705.61	1255
1706.64	1257.5
1707.66	1261.5
1708.69	1267
1709.71	1244
1710.73	1265.5
1711.76	1260.5
1712.78	1246
1713.81	1234.5
1714.83	1246.5
1715.86	1245
1716.88	1237.5
1717.9	1242
1718.93	1219
1719.95	1252
1720.97	1214.5
1722	1239
1723.02	1240.5
1724.04	1248.5
1725.06	1212
1726.09	1225
1727.11	1237.5
1728.13	1223
1729.15	1212
1730.17	1199
1731.2	1203
1732.22	1211
1733.24	1214.5
1734.26	1209
1735.28	1218.5
1736.3	1211.5
1737.32	1182
1738.34	1196.5
1739.36	1206
1740.38	1202.5
1741.4	1195.5
1742.42	1174.5
1743.44	1175.5
1744.46	1191
1745.48	1199.5
1746.5	1180.5
1747.52	1179
1748.54	1168.5
1749.56	1181
1750.57	1182
1751.59	1169.5
1752.61	1156.5
1753.63	1165.5
1754.65	1165
1755.66	1166
1756.68	1166
1757.7	1159
1758.72	1150
1759.73	1144
1760.75	1123.5
1761.77	1119.5
1762.78	1161
1763.8	1111
1764.82	1148
1765.83	1124
1766.85	1127
1767.86	1103.5
1768.88	1126.5
1769.9	1136
1770.91	1125.5
1771.93	1108
1772.94	1138
1773.96	1106
1774.97	1132
1775.99	1123
1777	1131.5
1778.01	1119.5
1779.03	1096.5
1780.04	1103
1781.06	1110.5
1782.07	1102
1783.08	1106
1784.1	1114
1785.11	1095
1786.12	1100.5
1787.14	1103
1788.15	1090
1789.16	1099.5
1790.17	1104.5
1791.18	1079
1792.2	1097
1793.21	1082
1794.22	1095
1795.23	1068.5
1796.24	1090
1797.26	1051.5
1798.27	1063
1799.28	1101
1800.29	1070.5
1801.3	1071.5
1802.31	1067.5
1803.32	1075
1804.33	1082.5
1805.34	1072.5
1806.35	1079
1807.36	1069
1808.37	1068.5
1809.38	1061
1810.39	1061
1811.4	1037.5
1812.4	1029.5
1813.41	1052
1814.42	1050.5
1815.43	1042.5
1816.44	1057.5
1817.45	1057.5
1818.45	1047.5
1819.46	1040.5
1820.47	1040.5
1821.48	1056.5
1822.49	1032
1823.49	1038.5
1824.5	1013
1825.51	1026.5
1826.51	1056
1827.52	1035.5
1828.53	1042.5
1829.53	1028.5
1830.54	1017.5
1831.54	1036.5
1832.55	1029.5
1833.56	1014
1834.56	1009
1835.57	1020.5
1836.57	1020
1837.58	998.5
1838.58	1026
1839.59	1008.5
1840.59	1006
1841.59	981.5
1842.6	998.5
1843.6	1015
1844.61	998.5
1845.61	999.5
1846.61	990
1847.62	987.5
1848.62	996.5
1849.62	995.5
1850.63	993
1851.63	991.5
1852.63	982.5
1853.64	980.5
1854.64	983
1855.64	1000
1856.64	1005
1857.64	985
1858.65	1008.5
1859.65	974
1860.65	985
1861.65	998.5
1862.65	985
1863.65	969.5
1864.65	985
1865.65	960.5
1866.65	978.5
1867.65	978.5
1868.65	955.5
1869.65	979
1870.65	956.5
1871.65	963
1872.65	939.5
1873.65	929
1874.65	961
1875.65	959
1876.65	969
1877.65	963
1878.65	968.5
1879.65	958.5
1880.65	949.5
1881.64	946
1882.64	916
1883.64	943
1884.64	932
1885.63	953.5
1886.63	939
1887.63	949
1888.63	948
1889.62	955.5
1890.62	952
1891.62	953
1892.61	945.5
1893.61	949
1894.61	934.5
1895.6	946
1896.6	947.5
1897.59	943.5
1898.59	928
1899.58	929
1900.58	929.5
1901.57	921.5
1902.57	908.5
1903.56	945.5
1904.56	944.5
1905.55	941.5
1906.55	930.5
1907.54	922
1908.54	932
1909.53	936
1910.52	927.5
1911.52	918.5
1912.51	910.5
1913.5	930.5
1914.5	908.5
1915.49	932
1916.48	892
1917.48	927
1918.47	916.5
1919.46	908
1920.45	897
1921.44	888.5
1922.44	900
1923.43	912
1924.42	893
1925.41	916
1926.4	900
1927.39	917
1928.38	915.5
1929.38	898.5
1930.37	895
1931.36	912
1932.35	906.5
1933.34	893
1934.33	899
1935.32	908
1936.31	900.5
1937.3	896.5
1938.29	891.5
1939.28	878
1940.26	889.5
1941.25	894.5
1942.24	892.5
1943.23	871
1944.22	901
1945.21	879.5
1946.2	877
1947.18	874
1948.17	882.5
1949.16	888
1950.15	893.75
1951.13	882
1952.12	885
1953.11	875.5
1954.1	883.5
1955.08	878
1956.07	869
1957.06	869.5
1958.04	867
1959.03	889
1960.01	890.5
1961	882
1961.99	862
1962.97	873.5
1963.96	864.5
1964.94	848.5
1965.93	846
1966.91	833
1967.9	868
1968.88	870
1969.87	859.5
1970.85	860
1971.84	862.5
1972.82	838
1973.81	852
1974.79	853
1975.77	862.5
1976.76	859
1977.74	840.5
1978.72	844.5
1979.71	850.5
1980.69	852
1981.67	854.5
1982.65	851.5
1983.64	825
1984.62	860
1985.6	839
1986.58	852.5
1987.56	838
1988.55	858
1989.53	839.5
1990.51	832
1991.49	825
1992.47	858
1993.45	847.5
1994.43	833
1995.41	851
1996.39	828.5
1997.37	825.5
1998.36	825.5
1999.34	821.5
2000.31	824
2001.29	816.5
2002.27	834.5
2003.25	821.5
2004.23	802
2005.21	824
2006.19	814.5
2007.17	836
2008.15	818
2009.13	831.5
2010.11	824
2011.08	819.5
2012.06	816
2013.04	828.5
2014.02	830.5
2015	822
2015.97	796.5
2016.95	815
2017.93	809
2018.91	814
2019.88	810.5
2020.86	795.5
2021.83	809
2022.81	801.5
2023.79	797
2024.76	807.5
2025.74	818
2026.72	797.5
2027.69	785
2028.67	800.5
2029.64	796
2030.62	791
2031.59	805
2032.57	791
2033.54	804
2034.52	794
2035.49	783
2036.47	782.5
2037.44	775.5
2038.41	804.5
2039.39	806
2040.36	799
2041.34	782
2042.31	795
2043.28	780
2044.26	785
2045.23	799
2046.2	787.5
2047.17	790
2048.15	786
2049.12	779
2050.09	789
2051.06	799
2052.04	782
2053.01	776
2053.98	794
2054.95	782
2055.92	772
2056.89	786
2057.86	775
2058.84	764.5
2059.81	775.5
2060.78	743.5
2061.75	761
2062.72	760.5
2063.69	751.5
2064.66	775
2065.63	753.5
2066.6	767.5
2067.57	745
2068.54	780.5
2069.51	765.5
2070.48	778
2071.44	781
2072.41	767.5
2073.38	775
2074.35	763.5
2075.32	736
2076.29	754
2077.26	749
2078.22	764
2079.19	762
2080.16	755
2081.13	747
2082.09	751.5
2083.06	756
2084.03	753
2085	734.5
2085.96	753.5
2086.93	755.5
2087.9	750
2088.86	758
2089.83	751
2090.79	752
2091.76	723.5
2092.73	737
2093.69	750
2094.66	719.5
2095.62	761.5
2096.59	743
2097.55	752
2098.52	746.5
2099.48	726
2100.45	739
2101.41	753.5
2102.38	742
2103.34	746
2104.3	762
2105.27	730.5
2106.23	745
2107.19	743.5
2108.16	771.5
2109.12	770.5
2110.08	778.5
2111.05	751.5
2112.01	780
2112.97	775
2113.94	762.5
2114.9	769.5
2115.86	762
2116.82	786.5
2117.78	796.5
2118.75	800
2119.71	815
2120.67	796.5
2121.63	815.5
2122.59	810
2123.55	824.5
2124.51	832.5
2125.47	831
2126.43	835.5
2127.4	827
2128.36	837.5
2129.32	820
2130.28	836
2131.24	824
2132.2	823
2133.16	813
2134.11	792
2135.07	789.5
2136.03	799.5
2136.99	796.5
2137.95	750.5
2138.91	775.5
2139.87	770.5
2140.83	767.5
2141.78	770
2142.74	763.5
2143.7	749
2144.66	744.5
2145.62	740.918
2146.57	734.236
2147.53	733.143
2148.49	727.562
2149.45	734.151
2150.4	732.015
2151.36	718.827
2152.32	705.965
2153.27	732.838
2154.23	716.08
2155.19	711.319
2156.14	706.833
2157.1	698.848
2158.05	702.849
2159.01	700.753
2159.96	701.279
2160.92	694.721
2161.88	697.539
2162.83	688.3
2163.78	692.241
2164.74	700.048
2165.69	691.174
2166.65	687.514
2167.6	673.554
2168.56	669.178
2169.51	667.413
2170.47	666.201
2171.42	677.78
2172.37	668.208
2173.33	677.268
2174.28	672.421
2175.23	673.594
2176.19	673.088
2177.14	667.086
2178.09	665.653
2179.04	671.796
2180	660.711
2180.95	664.575
2181.9	650.983
2182.85	675.362
2183.81	647.198
2184.76	659.089
2185.71	648.521
2186.66	659.918
2187.61	638.14
2188.56	644.646
2189.51	650.752
2190.46	649.668
2191.42	648.953
2192.37	654.536
2193.32	661.514
2194.27	647.837
2195.22	631.992
2196.17	642.053
2197.12	643.109
2198.07	633.662
2199.02	641.549
2199.97	647.47
2200.92	635.885
2201.86	635.027
2202.81	639.199
2203.76	635.593
2204.71	634.884
2205.66	635.678
2206.61	638.438
2207.56	635.488
2208.5	643.972
2209.45	643.228
2210.4	635.206
2211.35	632.517
2212.3	624.621
2213.24	627.464
2214.19	624.926
2215.14	634.18
2216.08	633.611
2217.03	619.91
2217.98	628.117
2218.92	621.682
2219.87	623.68
2220.82	618.182
2221.76	621.188
2222.71	627.125
2223.65	621.761
2224.6	619.213
2225.55	623.199
2226.49	623.411
2227.44	617.602
2228.38	618.46
2229.33	624.766
2230.27	617.531
2231.22	618.991
2232.16	623.351
2233.11	629.066
2234.05	631.951
2234.99	625.274
2235.94	621.242
2236.88	615.193
2237.83	610.873
2238.77	620.238
2239.71	633.475
2240.66	624.266
2241.6	626.899
2242.06	639
2243.01	636.5
2243.96	618
2244.91	628.5
2245.85	626
2246.8	632
2247.75	628
2248.7	645.5
2249.64	615
2250.59	625.5
2251.54	626.5
2252.48	638.5
2253.43	608
2254.38	603.5
2255.32	610.5
2256.27	617
2257.21	611
2258.16	619.5
2259.1	603.5
2260.05	597
2260.99	601
2261.94	609.5
2262.89	613.5
2263.83	599
2264.77	599.5
2265.72	602.5
2266.66	589
2267.61	594
2268.55	583
2269.5	612
2270.44	575.5
2271.38	580
2272.33	599.5
2273.27	593
2274.21	600
2275.16	597.5
2276.1	589
2277.04	591
2277.98	583
2278.93	581.5
2279.87	587.5
2280.81	558.5
2281.75	585
2282.7	579.5
2283.64	581
2284.58	597
2285.52	585
2286.46	580
2287.4	568
2288.34	578
2289.29	583.5
2290.23	587.5
2291.17	577
2292.11	574.5
2293.05	572.5
2293.99	570.5
2294.93	576.5
2295.87	580.5
2296.81	567
2297.75	563.5
2298.69	574.5
2299.63	573.5
2300.57	548
2301.51	580
2302.44	569
2303.38	574
2304.32	568
2305.26	562
2306.2	571
2307.14	562
2308.08	565.5
2309.01	558.5
2309.95	572
2310.89	576.5
2311.83	560.5
2312.77	567.5
2313.7	556
2314.64	564
2315.58	554
2316.51	561.5
2317.45	544
2318.39	561
2319.32	556.5
2320.26	553
2321.2	555
2322.13	534
2323.07	549.5
2324	554
2324.94	563.5
2325.88	556.5
2326.81	554.5
2327.75	554.5
2328.68	553
2329.62	566.5
2330.55	547
2331.49	556
2332.42	543
2333.35	552
2334.29	545.5
2335.22	553.5
2336.16	530.5
2337.09	541.5
2338.02	542.5
2338.96	532
2339.89	536
2340.82	530.5
2341.76	534
2342.69	547
2343.62	549
2344.56	531.5
2345.49	541.5
2346.42	545
2347.35	530.5
2348.29	552
2349.22	542
2350.15	535.5
2351.08	537
2352.01	541
2352.94	536
2353.88	547.5
2354.81	531.5
2355.74	528
2356.67	535
2357.6	526
2358.53	530.5
2359.46	537
2360.39	552.5
2361.32	549.5
2362.25	550.5
2363.18	540
2364.11	539.5
2365.04	537
2365.97	535.5
2366.9	512
2367.83	515
2368.76	538.5
2369.69	548
2370.62	515.5
2371.55	523
2372.47	541.5
2373.4	527
2374.33	527.5
2375.26	515
2376.19	518
2377.11	523.5
2378.04	515
2378.97	532.5
2379.9	518.5
2380.83	518
2381.75	531.5
2382.68	520
2383.61	519.5
2384.53	528.5
2385.46	525.5
2386.39	522
2387.31	528.5
2388.24	511
2389.17	516.5
2390.09	517.5
2391.02	515.5
2391.94	524.5
2392.87	516.5
2393.79	516.5
2394.72	497.5
2395.64	517
2396.57	495
2397.49	514
2398.42	495.5
2399.34	512
2400.27	507
2401.19	513
2402.12	521.5
2403.04	500
2403.96	501
2404.89	504
2405.81	505.5
2406.74	513.5
2407.66	510
2408.58	528
2409.51	513.5
2410.43	519
2411.35	520.5
2412.27	503.5
2413.2	510
2414.12	510
2415.04	500.5
2415.96	504
2416.89	503
2417.81	500
2418.73	495
2419.65	490
2420.57	499
2421.49	486
2422.41	493.5
2423.34	495
2424.26	500.5
2425.18	491.5
2426.1	497.5
2427.02	493
2427.94	494
2428.86	496.5
2429.78	491.5
2430.7	477.5
2431.62	504.5
2432.54	495
2433.46	492
2434.38	493
2435.3	494
2436.22	492.5
2437.13	498
2438.05	482.5
2438.97	496.5
2439.89	496
2440.81	486.5
2441.73	500
2442.65	499
2443.56	478.5
2444.48	481.5
2445.4	487.5
2446.32	492
2447.24	485
2448.15	482.5
2449.07	475
2449.99	488
2450.9	477.5
2451.82	478
2452.74	490
2453.65	485
2454.57	480
2455.49	485
2456.4	472.5
2457.32	472
2458.23	478.5
2459.15	475.5
2460.07	486.5
2460.98	479
2461.9	469
2462.81	482
2463.73	482.5
2464.64	470
2465.56	477
2466.47	473
2467.39	481.5
2468.3	461.5
2469.21	483
2470.13	463.5
2471.04	481.5
2471.96	479.5
2472.87	484.5
2473.78	470.5
2474.7	479
2475.61	483
2476.52	471.5
2477.44	474.5
2478.35	463
2479.26	486.5
2480.17	477
2481.09	465
2482	470
2482.91	480.5
2483.82	467.5
2484.74	466.5
2485.65	463
2486.56	462
2487.47	455.5
2488.38	467.5
2489.29	463.5
2490.21	478.5
2491.12	459
2492.03	446.5
2492.94	469
2493.85	466
2494.76	464
2495.67	458
2496.58	473
2497.49	460.5
2498.4	478.5
2499.31	461.5
2500.22	459
2501.13	467
2502.04	472
2502.95	452
2503.86	449
2504.76	463
2505.67	460.5
2506.58	463.5
2507.49	452.5
2508.4	453.5
2509.31	442
2510.22	452.5
2511.12	452
2512.03	457.5
2512.94	446
2513.85	449
2514.76	450.5
2515.66	464
2516.57	452
2517.48	449.5
2518.38	454.5
2519.29	455
2520.2	447
2521.1	450
2522.01	445.5
2522.92	446
2523.82	449.5
2524.73	441
2525.64	451.5
2526.54	453.5
2527.45	448
2528.35	439.5
2529.26	453.5
2530.16	451
2531.07	447.5
2531.97	453
2532.88	433.5
2533.78	433.5
2534.69	447.5
2535.59	452
2536.5	443
2537.4	442
2538.31	443
2539.21	425
2540.11	452
2541.02	438.5
2541.92	456
2542.82	444
2543.73	430.5
2544.63	454
2545.53	438.5
2546.44	442
2547.34	451
2548.24	433.5
2549.14	432.5
2550.05	428
2550.95	432
2551.85	435
2552.75	436
2553.65	433.5
2554.56	443.5
2555.46	436
2556.36	422
2557.26	435.5
2558.16	444.5
2559.06	427.5
2559.96	430
2560.86	426
2561.76	428
2562.67	429.5
2563.57	439
2564.47	428.5
2565.37	417
2566.27	428
2567.17	425.5
2568.06	416
2568.96	422
2569.86	433.5
2570.76	423.5
2571.66	432
2572.56	422
2573.46	419
2574.36	433
2575.26	421.5
2576.16	419.5
2577.05	426
2577.95	414
2578.85	400.5
2579.75	427
2580.65	414.5
2581.54	425.5
2582.44	414
2583.34	424.5
2584.24	418
2585.13	425.5
2586.03	422
2586.93	404
2587.83	409
2588.72	417.5
2589.62	393
2590.51	424
2591.41	420
2592.31	419.5
2593.2	420
2594.1	425.5
2594.99	414
2595.89	411.5
2596.79	405.5
2597.68	408.5
2598.58	422
2599.47	410
2600.37	410.5
2601.26	408
2602.16	408
2603.05	421
2603.94	405.5
2604.84	408.5
2605.73	411.5
2606.63	411
2607.52	400.5
2608.42	418
2609.31	403
2610.2	403.5
2611.1	411
2611.99	402
2612.88	407
2613.78	410
2614.67	409
2615.56	401.5
2616.45	395
2617.35	401.5
2618.24	390.5
2619.13	402
2620.02	409.5
2620.91	404.5
2621.81	393.5
2622.7	408.5
2623.59	407
2624.48	413
2625.37	402
2626.26	398.5
2627.15	400
2628.04	398
2628.94	401
2629.83	401
2630.72	397.5
2631.61	407
2632.5	405
2633.39	392
2634.28	391
2635.17	397
2636.06	391
2636.95	402.5
2637.84	400
2638.73	400.5
2639.61	384
2640.5	382.5
2641.39	385.5
2642.28	385
2643.17	389
2644.06	391
2644.95	388.5
2645.84	396.5
2646.72	379
2647.61	387.5
2648.5	390.5
2649.39	379
2650.28	390.5
2651.16	391
2652.05	388.5
2652.94	382
2653.82	369.5
2654.71	375
2655.6	389.5
2656.49	382.5
2657.37	377
2658.26	391
2659.14	378
2660.03	401.5
2660.92	400
2661.8	388.5
2662.69	390
2663.57	386.5
2664.46	383.5
2665.35	371.5
2666.23	386.5
2667.12	375.5
2668	373.5
2668.89	386
2669.77	386.5
2670.66	379
2671.54	381
2672.42	376
2673.31	374
2674.19	384.5
2675.08	378
2675.96	391
2676.84	389
2677.73	379.5
2678.61	376
2679.49	381
2680.38	370.5
2681.26	385.5
2682.14	384.5
2683.03	371
2683.91	385
2684.79	379.5
2685.68	375.5
2686.56	376.5
2687.44	372.5
2688.32	383.5
2689.2	373.5
2690.09	373.5
2690.97	375
2691.85	373
2692.73	373.5
2693.61	373
2694.49	380
2695.37	350
2696.25	364
2697.14	361
2698.02	374.5
2698.9	368
2699.78	372
2700.66	370.5
2701.54	365.5
2702.42	372.5
2703.3	372
2704.18	370.5
2705.06	374
2705.94	363.5
2706.82	370
2707.7	375.5
2708.57	362
2709.45	371
2710.33	358
2711.21	369.5
2712.09	357.5
2712.97	368.5
2713.85	368.5
2714.72	366
2715.6	359
2716.48	364.5
2717.36	373
2718.24	369.5
2719.11	366.5
2719.99	370
2720.87	364
2721.75	376.5
2722.62	374.5
2723.5	361.5
2724.38	369.5
2725.25	362.5
2726.13	363.5
2727.01	359.5
2727.88	363
2728.76	375
2729.63	354
2730.51	356
2731.39	357
2732.26	354
2733.14	368
2734.01	365
2734.89	358.5
2735.76	364.5
2736.64	369.5
2737.51	355.5
2738.39	344
2739.26	354
2740.14	360.5
2741.01	366.5
2741.89	355
2742.76	358.5
2743.63	343
2744.51	356
2745.38	356
2746.26	346
2747.13	349.5
2748	359.5
2748.88	358
2749.75	348.5
2750.62	349.5
2751.5	359
2752.37	355
2753.24	347.5
2754.11	339
2754.99	347
2755.86	344
2756.73	348.5
2757.6	342
2758.47	338
2759.35	335.5
2760.22	351
2761.09	339
2761.96	345
2762.83	341
2763.7	347
2764.57	332.5
2765.44	338.5
2766.32	331.5
2767.19	341
2768.06	344.5
2768.93	334.5
2769.8	335
2770.67	347
2771.54	334.5
2772.41	331.5
2773.28	339
2774.15	346.5
2775.02	333
2775.89	332.5
2776.75	337.5
2777.62	319
2778.49	340.5
2779.36	326
2780.23	337.5
2781.1	330
2781.97	343
2782.84	328.5
2783.7	335.5
2784.57	333
2785.44	340
2786.31	328
2787.18	330
2788.04	340
2788.91	345.5
2789.78	324
2790.64	342
2791.51	328.5
2792.38	330.5
2793.24	334.5
2794.11	342
2794.98	317.5
2795.85	329.5
2796.71	328
2797.58	322.5
2798.44	327.5
2799.31	325
2800.18	324.5
2801.04	334.5
2801.91	327
2802.77	322
2803.64	326
2804.5	329.5
2805.37	334.5
2806.23	338
2807.1	331
2807.96	320
2808.83	322.5
2809.69	320
2810.55	331.5
2811.42	323
2812.28	334
2813.15	322.5
2814.01	319
2814.88	326
2815.74	325
2816.6	329.5
2817.46	329.5
2818.33	322.5
2819.19	327
2820.05	322.5
2820.92	317.5
2821.78	326
2822.64	326
2823.51	317
2824.37	324.5
2825.23	321
2826.09	329
2826.95	328
2827.81	326.5
2828.68	323.5
2829.54	326
2830.4	327
2831.26	321
2832.12	320.5
2832.98	328
2833.84	333
2834.71	326
2835.57	327.5
2836.43	323
2837.29	329.5
2838.15	326.5
2839.01	329.5
2839.87	333
2840.73	335
2841.59	324
2842.45	331
2843.31	331
2844.17	342
2845.02	348
2845.88	352
2846.74	347
2847.6	341.5
2848.46	349
2849.32	367.5
2850.18	360.5
2851.04	360
2851.9	364
2852.75	369
2853.61	357.5
2854.47	354.5
2855.33	354
2856.19	349.5
2857.04	353
2857.9	345
2858.76	346
2859.61	354
2860.47	358
2861.33	347.5
2862.19	352
2863.04	355.5
2863.9	354.5
2864.76	351.5
2865.61	351
2866.47	338
2867.32	359
2868.18	357
2869.04	364.5
2869.89	354
2870.75	349
2871.6	353.5
2872.46	348
2873.31	354
2874.17	357
2875.02	355
2875.88	341
2876.73	337.5
2877.59	345.5
2878.44	338
2879.3	349
2880.15	355
2881	348.5
2881.86	334.5
2882.71	347
2883.57	348.5
2884.42	347.5
2885.27	345.5
2886.13	350.5
2886.98	359.5
2887.83	349.5
2888.69	350.5
2889.54	355.5
2890.39	345
2891.24	352.5
2892.1	348
2892.95	349
2893.8	354
2894.65	355
2895.51	349.5
2896.36	357.5
2897.21	368
2898.06	351.5
2898.91	353.5
2899.76	358
2900.62	359
2901.47	361.5
2902.32	367
2903.17	348
2904.02	349
2904.87	354.5
2905.72	352
2906.57	354
2907.42	356.5
2908.27	359.5
2909.12	355.5
2909.97	352.5
2910.82	356
2911.67	351.5
2912.52	363
2913.37	364
2914.22	361.5
2915.07	364.5
2915.92	349
2916.77	349
2917.62	354.5
2918.47	356
2919.31	350.5
2920.16	359.5
2921.01	366
2921.86	363.5
2922.71	342
2923.55	361
2924.4	362
2925.25	367.5
2926.1	358.5
2926.94	374
2927.79	357.5
2928.64	353
2929.49	367.5
2930.33	360.5
2931.18	364.5
2932.03	357.5
2932.87	369.5
2933.72	364
2934.57	354.5
2935.41	360
2936.26	365
2937.11	348
2937.95	350.5
2938.8	350.5
2939.64	354
2940.49	341
2941.33	353
2942.18	342.5
2943.02	343.5
2943.87	350.5
2944.71	340.5
2945.56	340.5
2946.4	329
2947.25	329.5
2948.09	325.5
2948.94	320.5
2949.78	324.5
2950.63	330.5
2951.47	319.5
2952.31	326.5
2953.16	314
2954	316.5
2954.84	319
2955.69	308
2956.53	304
2957.37	304
2958.22	307.5
2959.06	300
2959.9	299
2960.75	301
2961.59	296.5
2962.43	305
2963.27	306
2964.11	301
2964.96	297.5
2965.8	292
2966.64	302
2967.48	298.5
2968.32	292.5
2969.16	299
2970.01	303
2970.85	294
2971.69	295
2972.53	289
2973.37	290.5
2974.21	294.5
2975.05	286.5
2975.89	300
2976.73	284
2977.57	287.5
2978.41	274.5
2979.25	274
2980.09	278
2980.93	288
2981.77	279.5
2982.61	286
2983.45	286
2984.29	275.5
2985.13	269
2985.97	281
2986.81	275.5
2987.65	284
2988.49	256
2989.32	271
2990.16	263.5
2991	268
2991.84	273.5
2992.68	272
2993.51	267.5
2994.35	260.5
2995.19	266
2996.03	257
2996.86	257.5
2997.7	275
2998.54	265
2999.38	255
