#Acq. time (s)=	5
#Accumulations=	5
#Range (cm-¹)=	100...3000
#Windows=	3
#Autofocus=	Off
#AutoExposure=	Off
#Spike filter=	Multiple accum.
#Delay time (s)=	0
#Binning=	1
#Readout mode=	Signal
#DeNoise=	Off
#ICS correction=	Off
#Dark correction=	Off
#Inst. Process=	Off
#Instrument=	LabRAM HR Evol
#Detector=	Syncerity OE
#Objective=	x100_VIS_LWD
#Grating=	600 (500nm)
#ND Filter=	100%
#Laser=	633nm_Edge
#Hole=	100.021
#Range=	Visible
#Project=	Omar
#Sample=	chi
#Site=	f
#Title=	nsno
#Remark=	
#Date=	12.09.2023 17:40
#Acquired=	12.09.2023 17:40:53
101.026	4098.5
102.309	4084.5
103.592	4031.5
104.875	3985.5
106.158	3992.5
107.441	3900.5
108.723	3887
110.005	3853
111.289	3829
112.571	3832
113.852	3752
115.134	3762
116.415	3717.5
117.696	3730.5
118.976	3691
120.257	3637.5
121.537	3607.5
122.817	3631
124.097	3616.5
125.377	3577.5
126.656	3591
127.936	3549
129.215	3542.5
130.493	3551.5
131.772	3513
133.049	3477.5
134.327	3450
135.605	3399.5
136.883	3380
138.161	3351.5
139.438	3343
140.715	3282.5
141.992	3298.5
143.269	3280
144.545	3208.5
145.82	3250
147.096	3217.5
148.372	3178.5
149.648	3142
150.924	3148
152.199	3133.5
153.472	3139
154.747	3080.5
156.022	3065
157.296	3067
158.571	3016
159.843	3024
161.117	2986
162.391	2996.5
163.664	2966.5
164.937	2967
166.209	2951.5
167.482	2948
168.754	2927
170.025	2887
171.297	2906
172.569	2919
173.841	2887
175.111	2876
176.383	2892.5
177.654	2870.5
178.923	2860.5
180.194	2852
181.464	2814.5
182.733	2854.5
184.003	2888.5
185.273	2835
186.542	2838
187.811	2793.5
189.079	2875
190.348	2840.5
191.617	2872.5
192.884	2895
194.152	2861
195.419	2880.5
196.687	2840.5
197.955	2852
199.221	2880
200.489	2887.5
201.755	2902.5
203.022	2915.5
204.287	2883.5
205.554	2875
206.818	2856.5
208.085	2872
209.349	2929
210.615	2933
211.879	2910
213.144	2955
214.408	2960.5
215.673	2964.5
216.936	2925
218.201	2888
219.464	2953.5
220.728	2939
221.99	2931
223.253	2926
224.516	2937
225.778	2996
227.041	2940.5
228.303	2933
229.564	2985.5
230.826	2986
232.087	2980
233.348	2995.5
234.61	3018
235.87	2976
237.13	2955
238.391	3010
239.651	2980.5
240.91	3028.5
242.171	3031.5
243.43	3060
244.689	3018.5
245.949	3052
247.207	3026.5
248.465	3023
249.723	3053.5
250.983	3051.5
252.24	3068.5
253.498	3073
254.755	3065
256.013	3067.5
257.27	3083.5
258.526	3092.5
259.783	3051.5
261.039	3025
262.296	3021
263.552	3030.5
264.808	3044.5
266.063	3075
267.318	3069
268.573	3047.5
269.828	3019
271.084	3058
272.338	3071
273.592	3034
274.846	2982
276.1	3080.5
277.353	3017.5
278.607	3047
279.86	3079.5
281.113	3079.5
282.365	3049.5
283.619	3108.5
284.872	3116.5
286.124	3118.5
287.376	3111.5
288.627	3139
289.879	3112.5
291.13	3096
292.381	3118
293.632	3171.5
294.883	3125.5
296.133	3160.5
297.384	3107
298.634	3159
299.883	3144.5
301.133	3153.5
302.381	3179.5
303.63	3143.5
304.879	3169
306.128	3135.5
307.377	3137
308.625	3128
309.874	3206
311.122	3133
312.37	3132
313.617	3121
314.863	3108.5
316.111	3145.5
317.358	3059
318.604	3096.5
319.851	3117.5
321.098	3043
322.342	3089
323.588	3056
324.834	3070
326.08	3059.5
327.325	3074.5
328.569	3049.5
329.814	3037
331.059	3019.5
332.304	3003
333.548	3097.5
334.791	3016
336.035	3060
337.279	3018
338.521	3002
339.765	2937
341.008	2978.5
342.251	3042.5
343.492	3010.5
344.735	2979.5
345.977	3023.5
347.218	2964
348.46	3002.5
349.702	2969
350.942	2982.5
352.184	3013
353.425	3036.5
354.665	3022
355.905	3051.5
357.145	2988
358.385	3006
359.625	3005.5
360.864	3012
362.104	2997.5
363.342	2989.5
364.581	3044
365.819	2997
367.058	3018
368.296	3027
369.534	3024
370.771	3000
372.01	2982.5
373.246	3004
374.484	2982
375.72	3015.5
376.958	2995
378.194	3000
379.431	3033
380.666	3012
381.903	2989
383.138	2988.5
384.374	2990.5
385.609	2980
386.845	2973.5
388.079	2998.5
389.313	2965
390.548	2964.5
391.782	2971
393.016	2973
394.25	2961.5
395.483	2970.5
396.718	2980.5
397.95	3005.5
399.183	3043.5
400.416	2962
401.648	3002
402.88	3012.5
404.113	3011.5
405.345	3050
406.576	3077.5
407.807	3008
409.04	3036
410.27	3077
411.501	3064.5
412.731	3043.5
413.963	3060.5
415.193	3116
416.422	3067
417.652	3120
418.883	3063.5
420.112	3088.5
421.341	3091.5
422.569	3127.5
423.798	3136.5
425.028	3136.5
426.256	3134.5
427.484	3085.5
428.711	3172.5
429.939	3121.5
431.166	3171.5
432.394	3162.5
433.622	3159
434.849	3186.5
436.075	3190
437.302	3129
438.528	3155.5
439.754	3171
440.98	3172
442.205	3156.5
443.431	3136
444.656	3161
445.881	3137
447.106	3136.5
448.33	3147.5
449.555	3154
450.779	3146
452.003	3156.5
453.227	3144
454.45	3153
455.674	3124
456.897	3134.5
458.12	3150.5
459.343	3124.5
460.566	3151.5
461.788	3121
463.01	3136.5
464.232	3126
465.454	3154
466.676	3152
467.897	3166.5
469.119	3106
470.34	3160.5
471.559	3165.5
472.78	3127
474.001	3104
475.221	3127.5
476.441	3141
477.661	3231
478.879	3156
480.099	3131.5
481.318	3168.5
482.537	3159
483.756	3165
484.974	3120
486.192	3164.5
487.411	3179
488.629	3172
489.847	3196
491.063	3204
492.281	3205
493.498	3205.5
494.714	3196.5
495.931	3193
497.148	3241
498.365	3225.5
499.58	3178
500.796	3214
502.012	3252.5
503.226	3234
504.442	3223.5
505.657	3216.5
506.871	3240
508.086	3233.5
509.3	3234.5
510.515	3216
511.729	3217.5
512.942	3215
514.156	3216.5
515.369	3225.5
516.582	3235
517.796	3249
519.008	3217.5
520.221	3243
521.433	3213.5
522.645	3225
523.857	3205
525.069	3220
526.28	3168.5
527.492	3184
528.702	3197
529.914	3157
531.124	3171
532.335	3229
533.545	3201
534.756	3156.5
535.965	3188
537.175	3184
538.384	3187.5
539.593	3214.5
540.803	3197
542.011	3194.5
543.221	3201
544.429	3195.5
545.636	3177.5
546.845	3199
548.052	3225.5
549.261	3175
550.468	3200
551.675	3181.5
552.883	3214.5
554.089	3246.5
555.295	3186
556.503	3208
557.709	3205
558.914	3212.5
560.12	3218.5
561.326	3192.5
562.531	3233.5
563.736	3208
564.941	3234
566.147	3210.5
567.351	3243.5
568.555	3229
569.759	3222.5
570.964	3218.5
572.168	3209.5
573.371	3219
574.574	3249
575.777	3260.5
576.981	3247
578.184	3220
579.386	3253
580.588	3198
581.79	3200
582.992	3224
584.194	3241
585.395	3186.5
586.598	3187
587.799	3218.5
589	3227
590.201	3232
591.401	3253
592.601	3260
593.801	3271.5
595.001	3256.5
596.201	3228
597.401	3263.5
598.6	3244
599.799	3299.5
600.998	3267.5
602.197	3259.5
603.395	3308
604.594	3251.5
605.792	3306
606.99	3318
608.188	3287
609.386	3308
610.583	3324
611.78	3320
612.977	3305.5
614.174	3317.5
615.371	3364
616.566	3325
617.762	3345.5
618.958	3379
620.154	3331.5
621.35	3353.5
622.546	3326
623.741	3374.5
624.935	3343.5
626.13	3357
627.325	3339.5
628.519	3357.5
629.714	3399.5
630.908	3394.5
632.101	3417.5
633.295	3434.5
634.488	3389
635.682	3454
636.874	3420.5
638.067	3414.5
639.26	3428
640.453	3452
641.644	3448.5
642.836	3432.5
644.028	3424
645.219	3483.5
646.411	3463
647.602	3475.5
648.792	3467.5
649.984	3438.5
651.175	3399
652.364	3429
653.555	3444
654.745	3400
655.934	3419
657.124	3425.5
658.314	3389.5
659.503	3399
660.692	3412
661.88	3415
663.07	3402
664.257	3394
665.446	3409.5
666.635	3373
667.822	3379
669.01	3360
670.197	3376
671.384	3379
672.571	3372
673.758	3420.5
674.944	3364
676.131	3338
677.317	3405
678.502	3406.5
679.689	3348.5
680.874	3349
682.06	3383
683.245	3390
684.431	3379.5
685.615	3394
686.799	3362
687.984	3401
689.168	3409
690.353	3349.5
691.536	3361
692.719	3381.5
693.904	3381
695.086	3351.5
696.269	3316
697.453	3378
698.635	3320
699.817	3347
701	3345.5
702.182	3322.5
703.364	3337
704.545	3350
705.727	3339
706.908	3350
708.089	3357
709.27	3322
710.451	3349
711.632	3374
712.812	3318
713.991	3357.5
715.172	3383.5
716.352	3351
717.531	3356
718.71	3382.5
719.889	3366.5
721.068	3398
722.248	3370
723.426	3368
724.604	3355
725.782	3303
726.96	3334
728.138	3364.5
729.315	3374
730.492	3392
731.669	3404
732.846	3331.5
734.024	3331
735.201	3355
736.377	3400
737.553	3342.5
738.729	3372.5
739.905	3375.5
741.081	3388
742.256	3367
743.431	3388
744.606	3356
745.781	3367
746.956	3356.5
748.13	3349
749.303	3414.5
750.477	3359
751.651	3420.5
752.825	3356
753.999	3330
755.172	3419
756.345	3322
757.518	3346.5
758.691	3331
759.864	3365.5
761.035	3386.5
762.207	3378
763.379	3367
764.551	3339
765.723	3350.5
766.894	3344.5
768.064	3353.5
769.236	3353
770.407	3355
771.577	3343.5
772.748	3332
773.917	3345
775.088	3312
776.258	3383
777.427	3348.5
778.596	3344.5
779.765	3359
780.935	3360
782.104	3350
783.272	3332
784.44	3313.5
785.609	3367
786.776	3381
787.944	3366.5
789.113	3385
790.279	3364
791.447	3322
792.613	3325
793.78	3384
794.948	3373
796.113	3326
797.28	3389
798.445	3352
799.612	3344.5
800.778	3353.5
801.943	3365.5
803.109	3337
804.273	3344
805.439	3371
806.603	3391
807.768	3415
808.932	3389.5
810.096	3411
811.26	3403.5
812.424	3402
813.587	3408
814.751	3429.5
815.914	3391
817.078	3431.5
818.24	3459
819.402	3478
820.565	3440
821.727	3455.5
822.889	3492.5
824.051	3440
825.212	3493
826.374	3479
827.535	3487
828.697	3397.5
829.857	3516
831.018	3430
832.179	3465.5
833.339	3454.5
834.499	3478.5
835.659	3473.5
836.819	3513
837.978	3452
839.137	3486
840.297	3508.5
841.456	3506.5
842.614	3518
843.772	3501
844.932	3514.5
846.09	3531.5
847.247	3510
848.405	3511
849.562	3513
850.721	3527
851.878	3497
853.034	3516.5
854.191	3483
855.348	3561
856.504	3499
857.661	3546
858.817	3501
859.973	3554
861.129	3494.5
862.284	3535.5
863.439	3528
864.594	3483.5
865.749	3490.5
866.904	3502
868.058	3475.5
869.212	3420
870.367	3468
871.522	3403.5
872.676	3484.5
873.829	3469
874.983	3424
876.136	3415
877.289	3450
878.442	3448.5
879.593	3416
880.746	3447.5
881.898	3409
883.05	3389
884.202	3437.5
885.354	3450
886.506	3393
887.657	3435
888.808	3433
889.96	3405
891.11	3382
892.261	3414
893.41	3357.5
894.561	3367
895.711	3374.5
896.861	3396.5
898.011	3348
899.161	3330.5
900.309	3367
901.458	3359
902.607	3371
903.756	3346
904.904	3328
906.052	3317.5
907.201	3335
908.349	3329
909.496	3331
910.644	3252
911.791	3353
912.939	3332
914.085	3303.5
915.232	3332
916.379	3360.5
917.525	3354
918.671	3306.5
919.818	3313.5
920.963	3357.5
922.109	3332
923.255	3340.5
924.399	3324
925.545	3353.5
926.689	3346.5
927.834	3362
928.979	3303.5
930.123	3339.5
931.268	3327.5
932.411	3351.5
933.555	3340.5
934.698	3343
935.842	3354
936.985	3363.5
938.128	3338
939.271	3322.5
940.414	3336.5
941.556	3333
942.699	3336
943.84	3362
944.983	3318.5
946.124	3342
947.266	3370.5
948.407	3391
949.547	3362
950.689	3347
951.829	3349
952.971	3389.5
954.111	3386.5
955.25	3396
956.391	3376
957.531	3356
958.67	3365
959.81	3368
960.949	3415
962.088	3394
963.227	3397
964.366	3377
965.504	3411.5
966.643	3392
967.781	3347
968.919	3390.5
970.056	3431.5
971.195	3413
972.332	3388.5
973.469	3374
974.605	3376.5
975.743	3418.5
976.88	3405.5
978.016	3384
979.152	3419
980.288	3350.5
981.423	3385.5
982.56	3416.5
983.696	3409
984.831	3439
985.966	3419.5
987.101	3397.5
988.235	3441
989.37	3447.5
990.504	3436
991.638	3365.5
992.773	3373
993.907	3411
995.041	3432
996.174	3479
997.307	3521.5
998.44	3539.5
999.573	3577
1000.71	3553.5
1001.84	3535.5
1002.97	3470.5
1004.1	3466
1005.24	3412.5
1006.37	3453
1007.5	3407
1008.63	3397
1009.76	3373
1010.89	3398
1012.02	3427.5
1013.15	3404
1014.28	3414
1015.41	3434.5
1016.54	3414
1017.67	3381.5
1018.8	3378
1019.93	3428.5
1021.06	3376
1022.19	3366
1023.32	3406
1024.45	3381.5
1025.58	3373
1026.71	3383
1027.84	3417
1028.96	3396
1030.09	3409
1031.22	3394.5
1032.35	3396
1033.47	3415
1034.6	3361
1035.73	3392.5
1036.86	3422
1037.98	3406.5
1039.11	3416.5
1040.23	3368
1041.36	3393
1042.49	3412
1043.61	3412
1044.74	3415
1045.86	3411.5
1046.99	3425
1048.11	3470
1049.24	3401
1050.36	3378
1051.49	3441
1052.61	3418
1053.74	3388
1054.86	3391
1055.98	3358
1057.11	3393
1058.23	3448
1059.35	3392
1060.48	3473.5
1061.6	3426.5
1062.72	3432
1063.84	3387
1064.97	3422.5
1066.09	3425
1067.21	3392
1068.33	3409.5
1069.45	3427
1070.57	3418
1071.7	3431.5
1072.82	3403
1073.94	3407
1075.06	3435.5
1076.18	3387
1077.3	3411
1078.42	3400
1079.54	3416
1080.66	3452.5
1081.78	3411
1082.9	3452
1084.02	3364
1085.14	3399.5
1086.25	3409
1087.37	3406
1088.49	3367
1089.61	3395.5
1090.73	3399
1091.84	3368
1092.96	3375
1094.08	3366.5
1095.2	3375.5
1096.31	3369
1097.43	3403.5
1098.55	3399.5
1099.66	3385
1100.78	3383
1101.9	3455
1103.01	3362
1104.13	3398
1105.25	3390
1106.36	3391.5
1107.48	3405
1108.59	3424
1109.71	3465
1110.82	3397.5
1111.93	3430
1113.05	3430.5
1114.16	3376.5
1115.28	3485.5
1116.39	3420
1117.51	3465.5
1118.62	3465.5
1119.73	3413.5
1120.85	3389.5
1121.96	3401
1123.07	3429.5
1124.18	3419
1125.3	3466
1126.41	3382
1127.52	3411
1128.63	3372
1129.74	3468.5
1130.85	3465.5
1131.97	3463
1133.08	3434
1134.19	3453
1135.3	3515
1136.41	3489
1137.52	3462
1138.63	3477
1139.74	3465.5
1140.85	3449
1141.96	3453
1143.07	3497.5
1144.18	3502
1145.29	3484.5
1146.4	3461.5
1147.51	3532
1148.61	3523
1149.72	3487.5
1150.83	3526
1151.94	3496.5
1153.05	3531
1154.15	3564.5
1155.26	3566.5
1156.37	3613
1157.48	3617
1158.58	3590.5
1159.69	3619
1160.8	3595.5
1161.9	3582
1163.01	3615
1164.11	3574.5
1165.22	3634
1166.33	3585.5
1167.43	3627.5
1168.54	3620
1169.64	3656
1170.75	3612
1171.85	3644
1172.96	3620.5
1174.06	3600.5
1175.17	3613
1176.27	3628.5
1177.37	3627
1178.48	3593
1179.58	3589
1180.68	3608
1181.79	3597.5
1182.89	3642
1183.99	3615
1185.1	3607
1186.2	3597.5
1187.3	3574
1188.4	3614.5
1189.5	3573
1190.61	3588
1191.71	3547
1192.81	3610
1193.91	3491
1195.01	3519
1196.11	3539.29
1197.21	3555.55
1198.31	3565.03
1199.42	3541.67
1200.51	3544.45
1201.61	3558.37
1202.72	3528.4
1203.81	3595.99
1204.91	3560.12
1206.01	3553.46
1207.11	3535.05
1208.21	3509.6
1209.31	3507.84
1210.41	3513.54
1211.51	3516.14
1212.61	3547.2
1213.7	3506.56
1214.8	3462.06
1215.9	3470.73
1217	3499.82
1218.09	3498.08
1219.19	3511.09
1220.29	3483.28
1221.38	3473.39
1222.48	3431.44
1223.58	3470.77
1224.67	3458.62
1225.77	3482.34
1226.87	3489.77
1227.96	3493.49
1229.06	3479.14
1230.15	3525.44
1231.25	3510.71
1232.34	3454.19
1233.44	3482.8
1234.53	3490.02
1235.63	3493.25
1236.72	3473.89
1237.81	3481.51
1238.91	3486.14
1240	3501.26
1241.1	3479.16
1242.19	3499.15
1243.28	3511.43
1244.38	3507.45
1245.47	3490.15
1246.56	3535.67
1247.65	3559.47
1248.75	3562.49
1249.84	3581.95
1250.93	3589.36
1252.02	3600.44
1253.11	3619.27
1254.21	3610.92
1255.3	3618.1
1256.39	3603.12
1257.48	3554.98
1258.57	3552.84
1259.66	3558.68
1260.75	3554.11
1261.84	3550.18
1262.93	3582.92
1264.02	3574.96
1265.11	3575.13
1266.2	3579.53
1267.29	3572.88
1268.38	3611.45
1269.47	3584.13
1270.56	3563.99
1271.65	3585.8
1272.73	3597.32
1273.82	3580.48
1274.91	3575.55
1276	3584.3
1277.09	3613.53
1278.17	3625.13
1279.26	3691.32
1280.35	3673.67
1281.43	3683.78
1282.52	3713.81
1283.61	3684.25
1284.69	3663.58
1285.78	3660.46
1286.87	3634.39
1287.95	3621.5
1289.04	3582.31
1290.13	3593.12
1291.21	3572.22
1292.3	3569.81
1293.38	3520.26
1294.47	3518.94
1295.55	3520
1296.64	3511.42
1297.72	3525.93
1298.8	3519.17
1299.89	3510.31
1300.97	3557.94
1302.06	3477.06
1303.14	3494.95
1304.22	3515.82
1305.31	3498.19
1306.39	3508.77
1307.34	3528.5
1308.43	3505.5
1309.52	3497
1310.6	3553.5
1311.69	3542.5
1312.78	3497
1313.87	3528
1314.96	3520.5
1316.04	3541.5
1317.13	3532
1318.21	3560
1319.3	3521
1320.39	3542
1321.47	3554
1322.56	3551
1323.65	3507
1324.73	3550
1325.82	3508.5
1326.9	3576
1327.99	3537
1329.07	3596.5
1330.16	3561
1331.24	3572
1332.32	3587
1333.41	3583.5
1334.49	3571
1335.58	3570.5
1336.66	3579
1337.74	3510
1338.83	3552
1339.91	3524
1340.99	3539.5
1342.08	3555
1343.16	3549
1344.24	3541
1345.32	3490
1346.41	3508
1347.49	3547.5
1348.57	3506
1349.65	3571
1350.73	3554.5
1351.81	3506
1352.9	3439.5
1353.98	3495
1355.06	3452
1356.14	3479
1357.22	3467.5
1358.3	3461
1359.38	3418
1360.46	3445
1361.54	3429
1362.62	3458
1363.7	3418.5
1364.78	3402.5
1365.85	3416.5
1366.93	3362.5
1368.01	3413
1369.09	3406
1370.17	3375.5
1371.25	3384
1372.33	3332
1373.4	3332
1374.48	3301.5
1375.56	3311.5
1376.64	3317.5
1377.71	3296
1378.79	3324.5
1379.87	3281
1380.94	3265.5
1382.02	3274.5
1383.1	3235.5
1384.17	3250
1385.25	3279
1386.32	3224
1387.4	3251.5
1388.47	3245
1389.55	3240.5
1390.63	3206.5
1391.7	3243
1392.77	3201.5
1393.85	3216
1394.92	3198.5
1396	3160.5
1397.07	3171.5
1398.15	3233.5
1399.22	3199
1400.29	3197
1401.37	3235.5
1402.44	3212
1403.51	3217
1404.59	3201.5
1405.66	3214.5
1406.73	3210.5
1407.8	3243
1408.87	3258.5
1409.95	3245
1411.02	3250.5
1412.09	3268.5
1413.16	3228
1414.23	3243.5
1415.3	3239.5
1416.38	3250
1417.45	3264.5
1418.52	3260.5
1419.59	3197.5
1420.66	3226.5
1421.73	3231
1422.8	3198.5
1423.87	3212.5
1424.94	3248.5
1426.01	3227.5
1427.08	3230
1428.15	3208
1429.21	3223
1430.28	3184.5
1431.35	3210.5
1432.42	3222
1433.49	3216.5
1434.56	3176
1435.63	3184.5
1436.69	3179.5
1437.76	3186.5
1438.83	3210
1439.89	3234
1440.96	3216
1442.03	3226.5
1443.1	3282
1444.16	3274
1445.23	3256
1446.3	3273
1447.36	3259
1448.43	3297
1449.49	3308
1450.56	3315
1451.62	3321.5
1452.69	3327
1453.75	3279
1454.82	3263.5
1455.88	3277
1456.95	3259
1458.01	3221.5
1459.08	3200
1460.14	3235
1461.2	3246.5
1462.27	3300
1463.33	3246.5
1464.4	3239
1465.46	3206
1466.52	3220.5
1467.58	3176.5
1468.65	3200
1469.71	3232
1470.77	3227.5
1471.83	3221.5
1472.9	3230.5
1473.96	3269
1475.02	3209
1476.08	3286.5
1477.14	3256
1478.2	3248.5
1479.27	3276
1480.33	3250.5
1481.39	3267.5
1482.45	3252
1483.51	3205
1484.57	3248
1485.63	3240
1486.69	3284
1487.75	3248
1488.81	3254.5
1489.87	3285.5
1490.93	3257.5
1491.99	3219.5
1493.04	3242.5
1494.1	3245
1495.16	3256
1496.22	3272
1497.28	3217.5
1498.34	3303
1499.39	3235.5
1500.45	3281.5
1501.51	3250
1502.57	3222
1503.62	3293
1504.68	3271.5
1505.74	3227
1506.79	3284.5
1507.85	3281.5
1508.91	3285
1509.96	3285
1511.02	3261.5
1512.07	3295
1513.13	3314.5
1514.19	3308.5
1515.24	3340
1516.3	3354
1517.35	3317.5
1518.41	3379
1519.46	3399
1520.52	3399
1521.57	3397
1522.62	3407
1523.68	3415
1524.73	3434
1525.79	3386.5
1526.84	3391.5
1527.89	3440.5
1528.95	3441.5
1530	3388
1531.05	3445.5
1532.1	3439.5
1533.16	3452.5
1534.21	3449.5
1535.26	3489
1536.31	3495.5
1537.37	3464
1538.42	3483.5
1539.47	3457.5
1540.52	3459.5
1541.57	3440
1542.62	3468.5
1543.67	3427.5
1544.72	3419.5
1545.78	3399
1546.83	3418
1547.88	3426.5
1548.93	3393
1549.98	3396
1551.03	3405
1552.07	3373
1553.12	3374.5
1554.17	3410.5
1555.22	3373
1556.27	3353
1557.32	3350
1558.37	3383
1559.42	3400
1560.47	3363
1561.51	3356
1562.56	3399
1563.61	3351
1564.66	3416
1565.7	3395
1566.75	3435
1567.8	3458
1568.85	3536.5
1569.89	3499.5
1570.94	3498
1571.98	3484.5
1573.03	3500.5
1574.08	3512.5
1575.12	3582.5
1576.17	3555.5
1577.21	3532
1578.26	3563
1579.31	3518
1580.35	3586
1581.4	3558
1582.44	3603.5
1583.49	3630
1584.53	3615
1585.57	3623
1586.62	3707.5
1587.66	3793.5
1588.71	3751.5
1589.75	3802
1590.79	3841.5
1591.84	3882.5
1592.88	3875.5
1593.92	3918
1594.97	3880
1596.01	3794.5
1597.05	3790.5
1598.09	3747.5
1599.14	3666.5
1600.18	3682.5
1601.22	3562.5
1602.26	3559
1603.3	3451.5
1604.34	3386
1605.38	3366
1606.43	3306
1607.47	3271
1608.51	3235.5
1609.55	3169.5
1610.59	3133.5
1611.63	3064.5
1612.67	3039
1613.71	3003.5
1614.75	2972.5
1615.79	2981.5
1616.83	2899.5
1617.87	2912
1618.91	2918.5
1619.94	2869
1620.98	2845
1622.02	2800.5
1623.06	2765.5
1624.1	2725.5
1625.14	2709.5
1626.17	2707.5
1627.21	2681
1628.25	2635
1629.29	2630
1630.32	2621.5
1631.36	2590
1632.4	2613.5
1633.43	2591
1634.47	2528.5
1635.51	2550
1636.54	2490
1637.58	2521.5
1638.62	2468
1639.65	2443.5
1640.69	2415
1641.72	2417
1642.76	2403
1643.79	2392
1644.83	2378
1645.86	2325
1646.9	2347.5
1647.93	2297.5
1648.97	2365
1650	2317
1651.04	2283
1652.07	2266
1653.1	2241
1654.14	2250.5
1655.17	2227.5
1656.2	2232.5
1657.24	2202.5
1658.27	2214.5
1659.3	2186.5
1660.34	2168
1661.37	2118
1662.4	2125
1663.43	2166.5
1664.46	2120
1665.5	2138.5
1666.53	2126.5
1667.56	2104.5
1668.59	2113
1669.62	2074
1670.65	2057
1671.68	2062
1672.71	2034
1673.74	2101
1674.77	2054
1675.8	2038
1676.83	2056
1677.86	2032
1678.89	2018
1679.92	2000.5
1680.95	2018.5
1681.98	2012
1683.01	2008
1684.04	1991
1685.07	1985
1686.1	1969
1687.13	2009
1688.15	1990
1689.18	1951.5
1690.21	1942
1691.24	1938
1692.27	1932.5
1693.29	1946
1694.32	1930
1695.35	1948
1696.37	1897.5
1697.4	1912.5
1698.43	1897
1699.45	1910.5
1700.48	1933
1701.51	1918
1702.53	1886.5
1703.56	1884
1704.58	1895.5
1705.61	1874
1706.64	1896
1707.66	1905
1708.69	1891
1709.71	1834
1710.73	1838
1711.76	1825
1712.78	1848
1713.81	1840
1714.83	1851.5
1715.86	1861
1716.88	1832
1717.9	1836
1718.93	1825
1719.95	1794.5
1720.97	1807
1722	1761.5
1723.02	1811
1724.04	1790
1725.06	1825
1726.09	1795.5
1727.11	1775
1728.13	1805.5
1729.15	1775
1730.17	1776
1731.2	1746
1732.22	1759.5
1733.24	1778.5
1734.26	1760
1735.28	1750
1736.3	1759
1737.32	1760
1738.34	1763
1739.36	1747
1740.38	1751
1741.4	1715.5
1742.42	1739.5
1743.44	1742.5
1744.46	1743
1745.48	1746.5
1746.5	1737.5
1747.52	1754.5
1748.54	1736
1749.56	1767.5
1750.57	1725
1751.59	1731.5
1752.61	1723
1753.63	1735.5
1754.65	1721
1755.66	1712
1756.68	1726.5
1757.7	1692
1758.72	1668.5
1759.73	1699
1760.75	1703.5
1761.77	1701
1762.78	1680
1763.8	1683.5
1764.82	1679.5
1765.83	1656
1766.85	1650.5
1767.86	1635.5
1768.88	1654.5
1769.9	1640.5
1770.91	1638
1771.93	1637
1772.94	1623
1773.96	1626
1774.97	1634
1775.99	1608
1777	1598.5
1778.01	1589.5
1779.03	1600
1780.04	1585
1781.06	1565
1782.07	1587
1783.08	1557
1784.1	1602
1785.11	1588.5
1786.12	1549
1787.14	1573
1788.15	1571.5
1789.16	1550
1790.17	1565
1791.18	1548.5
1792.2	1573
1793.21	1533
1794.22	1527.5
1795.23	1520
1796.24	1537
1797.26	1533
1798.27	1540.5
1799.28	1490
1800.29	1507
1801.3	1548.5
1802.31	1542
1803.32	1507
1804.33	1501
1805.34	1523
1806.35	1526
1807.36	1518.5
1808.37	1512
1809.38	1496.5
1810.39	1512
1811.4	1490
1812.4	1470
1813.41	1502
1814.42	1484
1815.43	1500.5
1816.44	1504
1817.45	1474
1818.45	1496
1819.46	1490
1820.47	1473.5
1821.48	1492
1822.49	1481.5
1823.49	1459
1824.5	1477
1825.51	1451
1826.51	1480
1827.52	1439.5
1828.53	1477.5
1829.53	1439
1830.54	1438.5
1831.54	1424.5
1832.55	1437
1833.56	1461
1834.56	1444.5
1835.57	1411
1836.57	1430.5
1837.58	1434
1838.58	1414
1839.59	1436
1840.59	1411.5
1841.59	1426.5
1842.6	1403
1843.6	1398
1844.61	1411.5
1845.61	1382
1846.61	1391.5
1847.62	1392
1848.62	1404.5
1849.62	1370
1850.63	1382
1851.63	1388
1852.63	1379.5
1853.64	1398
1854.64	1368.5
1855.64	1385.5
1856.64	1398
1857.64	1398
1858.65	1373
1859.65	1377
1860.65	1391
1861.65	1357.5
1862.65	1369
1863.65	1379
1864.65	1352
1865.65	1355.5
1866.65	1366.5
1867.65	1338
1868.65	1343
1869.65	1385
1870.65	1306
1871.65	1351
1872.65	1333
1873.65	1337
1874.65	1336.5
1875.65	1316.5
1876.65	1348
1877.65	1323
1878.65	1306
1879.65	1340
1880.65	1321
1881.64	1314
1882.64	1322.5
1883.64	1322
1884.64	1301
1885.63	1325
1886.63	1324
1887.63	1330
1888.63	1322
1889.62	1312.5
1890.62	1322.5
1891.62	1332.5
1892.61	1297.5
1893.61	1313
1894.61	1302
1895.6	1309
1896.6	1295
1897.59	1298
1898.59	1286
1899.58	1295
1900.58	1296
1901.57	1294
1902.57	1315
1903.56	1303
1904.56	1309
1905.55	1290
1906.55	1289
1907.54	1277
1908.54	1304
1909.53	1283
1910.52	1292.5
1911.52	1279.5
1912.51	1289.5
1913.5	1283
1914.5	1251.5
1915.49	1287
1916.48	1299
1917.48	1264
1918.47	1283.5
1919.46	1292
1920.45	1272
1921.44	1267
1922.44	1271
1923.43	1260
1924.42	1275
1925.41	1271
1926.4	1275
1927.39	1248
1928.38	1259
1929.38	1260.5
1930.37	1246
1931.36	1271.5
1932.35	1249
1933.34	1253.5
1934.33	1273
1935.32	1233.5
1936.31	1219
1937.3	1225
1938.29	1238
1939.28	1243.5
1940.26	1242
1941.25	1258
1942.24	1230
1943.23	1250
1944.22	1232
1945.21	1255
1946.2	1225.5
1947.18	1210
1948.17	1244.5
1949.16	1221
1950.15	1220.5
1951.13	1220
1952.12	1234
1953.11	1246
1954.1	1215
1955.08	1224
1956.07	1209
1957.06	1215.5
1958.04	1187
1959.03	1219.5
1960.01	1209
1961	1235
1961.99	1208.5
1962.97	1199
1963.96	1187.5
1964.94	1181.5
1965.93	1194.5
1966.91	1204
1967.9	1177
1968.88	1180
1969.87	1187.5
1970.85	1202.5
1971.84	1172
1972.82	1191.5
1973.81	1187.5
1974.79	1195
1975.77	1176
1976.76	1179
1977.74	1173.5
1978.72	1163
1979.71	1163.5
1980.69	1169.5
1981.67	1168
1982.65	1171
1983.64	1150
1984.62	1161
1985.6	1156.5
1986.58	1154
1987.56	1157
1988.55	1168
1989.53	1152
1990.51	1150
1991.49	1153
1992.47	1157
1993.45	1173
1994.43	1141
1995.41	1147
1996.39	1148
1997.37	1143
1998.36	1153.5
1999.34	1143
2000.31	1155.5
2001.29	1112
2002.27	1166.5
2003.25	1155
2004.23	1138
2005.21	1122
2006.19	1126
2007.17	1119
2008.15	1139.5
2009.13	1141
2010.11	1146.5
2011.08	1127.5
2012.06	1129.5
2013.04	1120.5
2014.02	1127
2015	1129
2015.97	1149
2016.95	1103
2017.93	1114
2018.91	1099
2019.88	1121
2020.86	1156
2021.83	1089
2022.81	1127
2023.79	1093
2024.76	1136.5
2025.74	1109
2026.72	1123.5
2027.69	1093
2028.67	1099.5
2029.64	1069
2030.62	1080.5
2031.59	1084
2032.57	1080.5
2033.54	1092.5
2034.52	1090.5
2035.49	1070.5
2036.47	1104
2037.44	1096.5
2038.41	1117
2039.39	1100
2040.36	1084.5
2041.34	1093.5
2042.31	1097
2043.28	1086
2044.26	1072.5
2045.23	1073
2046.2	1077.5
2047.17	1095.5
2048.15	1108
2049.12	1062
2050.09	1075
2051.06	1094
2052.04	1068.5
2053.01	1061.5
2053.98	1090.5
2054.95	1062
2055.92	1076
2056.89	1060.5
2057.86	1076
2058.84	1079.5
2059.81	1028
2060.78	1047
2061.75	1054.5
2062.72	1042
2063.69	1068
2064.66	1037
2065.63	1070.5
2066.6	1046.5
2067.57	1051
2068.54	1087
2069.51	1053
2070.48	1027
2071.44	1043.5
2072.41	1041
2073.38	1067.5
2074.35	1051.5
2075.32	1033
2076.29	1067.5
2077.26	1020
2078.22	1062
2079.19	1043
2080.16	1032
2081.13	1025.5
2082.09	1016
2083.06	1022
2084.03	1051
2085	1049.5
2085.96	1027
2086.93	1017
2087.9	1012
2088.86	1006
2089.83	1028
2090.79	1031.5
2091.76	1052
2092.73	1044.5
2093.69	1021
2094.66	1020.5
2095.62	1026.5
2096.59	1015
2097.55	1034
2098.52	1039.5
2099.48	1047
2100.45	1022.5
2101.41	1021.5
2102.38	1042.5
2103.34	1037
2104.3	1046
2105.27	1039
2106.23	1049.5
2107.19	1032.5
2108.16	1023.5
2109.12	1065.5
2110.08	1064.5
2111.05	1073
2112.01	1076
2112.97	1083
2113.94	1069.5
2114.9	1095
2115.86	1104.5
2116.82	1113.5
2117.78	1114.5
2118.75	1158.5
2119.71	1134
2120.67	1148
2121.63	1150
2122.59	1174.5
2123.55	1149
2124.51	1168.5
2125.47	1179.5
2126.43	1166.5
2127.4	1171
2128.36	1190.5
2129.32	1201.5
2130.28	1162.5
2131.24	1166.5
2132.2	1179
2133.16	1151.5
2134.11	1185
2135.07	1160
2136.03	1192
2136.99	1155.5
2137.95	1142
2138.91	1122.5
2139.87	1131
2140.83	1132
2141.78	1128
2142.74	1124
2143.7	1131.5
2144.66	1108.5
2145.62	1120.27
2146.57	1095.63
2147.53	1085.92
2148.49	1059.62
2149.45	1076.49
2150.4	1093.42
2151.36	1053.14
2152.32	1071.57
2153.27	1060.06
2154.23	1061.35
2155.19	1032.71
2156.14	1030.14
2157.1	1029.28
2158.05	1022.29
2159.01	1009.93
2159.96	1016.29
2160.92	1001.32
2161.88	977.265
2162.83	981.238
2163.78	988.163
2164.74	983.735
2165.69	978.075
2166.65	972.696
2167.6	955.592
2168.56	955.725
2169.51	947.274
2170.47	943.519
2171.42	949.201
2172.37	929.799
2173.33	921.486
2174.28	920.015
2175.23	929.648
2176.19	929.974
2177.14	911.368
2178.09	929.865
2179.04	924.095
2180	909.471
2180.95	912.328
2181.9	890.773
2182.85	911.38
2183.81	910
2184.76	910.26
2185.71	906.114
2186.66	876.205
2187.61	894.506
2188.56	884.904
2189.51	900.551
2190.46	882.823
2191.42	897.343
2192.37	893.241
2193.32	894.829
2194.27	890.938
2195.22	885.085
2196.17	881.561
2197.12	890.703
2198.07	874.315
2199.02	884.783
2199.97	888.402
2200.92	863.789
2201.86	873.797
2202.81	885.134
2203.76	860.294
2204.71	868.187
2205.66	874.927
2206.61	876.184
2207.56	886.895
2208.5	880.278
2209.45	871.826
2210.4	870.752
2211.35	877.403
2212.3	871.59
2213.24	860.506
2214.19	875.694
2215.14	865.481
2216.08	867.858
2217.03	868.806
2217.98	866.669
2218.92	857.782
2219.87	854.355
2220.82	848.828
2221.76	854.961
2222.71	855.599
2223.65	862.134
2224.6	846.911
2225.55	852.591
2226.49	859.368
2227.44	862.046
2228.38	853.731
2229.33	840.477
2230.27	835.592
2231.22	839.292
2232.16	850.932
2233.11	846.568
2234.05	849.82
2234.99	848.568
2235.94	846.524
2236.88	853.489
2237.83	852.438
2238.77	845.903
2239.71	848.125
2240.66	850.514
2241.6	849.785
2242.06	851.5
2243.01	860
2243.96	861
2244.91	877.5
2245.85	881
2246.8	864
2247.75	838
2248.7	881.5
2249.64	851
2250.59	875
2251.54	844.5
2252.48	847.5
2253.43	853
2254.38	819
2255.32	834.5
2256.27	824.5
2257.21	820.5
2258.16	848.5
2259.1	797
2260.05	820
2260.99	805
2261.94	805.5
2262.89	799.5
2263.83	814.5
2264.77	804.5
2265.72	792.5
2266.66	809
2267.61	801
2268.55	808
2269.5	781
2270.44	802
2271.38	812.5
2272.33	789
2273.27	786.5
2274.21	801.5
2275.16	797
2276.1	790
2277.04	791
2277.98	798.5
2278.93	801
2279.87	777
2280.81	777
2281.75	788
2282.7	792.5
2283.64	776
2284.58	768.5
2285.52	790
2286.46	782.5
2287.4	784
2288.34	788.5
2289.29	765
2290.23	779
2291.17	768
2292.11	787
2293.05	760
2293.99	779.5
2294.93	767
2295.87	755
2296.81	791
2297.75	768
2298.69	763
2299.63	768
2300.57	766
2301.51	752
2302.44	746
2303.38	764
2304.32	758
2305.26	745
2306.2	744
2307.14	758
2308.08	743
2309.01	765
2309.95	741
2310.89	750.5
2311.83	737.5
2312.77	757
2313.7	763
2314.64	745.5
2315.58	738
2316.51	740.5
2317.45	756
2318.39	745
2319.32	740
2320.26	734.5
2321.2	760
2322.13	739.5
2323.07	737.5
2324	748
2324.94	746.5
2325.88	749.5
2326.81	734.5
2327.75	745
2328.68	737.5
2329.62	732
2330.55	732.5
2331.49	731.5
2332.42	725
2333.35	737.5
2334.29	732.5
2335.22	707
2336.16	737
2337.09	734
2338.02	720
2338.96	735.5
2339.89	731.5
2340.82	737
2341.76	725
2342.69	722.5
2343.62	714
2344.56	718.5
2345.49	730
2346.42	716
2347.35	722.5
2348.29	723
2349.22	723.5
2350.15	691
2351.08	710.5
2352.01	716.5
2352.94	723.5
2353.88	705
2354.81	711.5
2355.74	706.5
2356.67	725
2357.6	710.5
2358.53	722
2359.46	703
2360.39	716.5
2361.32	702.5
2362.25	714
2363.18	703
2364.11	705.5
2365.04	698
2365.97	706
2366.9	721
2367.83	717.5
2368.76	683
2369.69	717
2370.62	703.5
2371.55	715
2372.47	721
2373.4	709.5
2374.33	702
2375.26	706.5
2376.19	713.5
2377.11	695.5
2378.04	703.5
2378.97	693
2379.9	700
2380.83	682.5
2381.75	696
2382.68	704.5
2383.61	680.5
2384.53	696
2385.46	697
2386.39	690
2387.31	698
2388.24	683
2389.17	697
2390.09	713.5
2391.02	681
2391.94	691
2392.87	673
2393.79	688.5
2394.72	684
2395.64	698.5
2396.57	664
2397.49	677.5
2398.42	680
2399.34	675.5
2400.27	685
2401.19	695.5
2402.12	688.5
2403.04	665
2403.96	673.5
2404.89	673
2405.81	671.5
2406.74	676
2407.66	654
2408.58	669
2409.51	672.5
2410.43	686
2411.35	672
2412.27	669
2413.2	674.5
2414.12	677
2415.04	681
2415.96	671
2416.89	644
2417.81	678.5
2418.73	660.5
2419.65	666
2420.57	651
2421.49	656
2422.41	648
2423.34	670.5
2424.26	665
2425.18	671
2426.1	635
2427.02	671.5
2427.94	672.5
2428.86	654
2429.78	664.5
2430.7	663.5
2431.62	646.5
2432.54	650
2433.46	651
2434.38	644.5
2435.3	646
2436.22	649.5
2437.13	668.5
2438.05	667.5
2438.97	651.5
2439.89	661
2440.81	671.5
2441.73	638
2442.65	649
2443.56	644.5
2444.48	628.5
2445.4	642
2446.32	650
2447.24	624
2448.15	615
2449.07	635
2449.99	623
2450.9	629
2451.82	637
2452.74	616.5
2453.65	628
2454.57	640
2455.49	609
2456.4	642.5
2457.32	633
2458.23	631.5
2459.15	643
2460.07	638.5
2460.98	629
2461.9	630.5
2462.81	627
2463.73	635.5
2464.64	628.5
2465.56	638
2466.47	634
2467.39	629
2468.3	618.5
2469.21	624.5
2470.13	639
2471.04	628
2471.96	609
2472.87	634.5
2473.78	610
2474.7	624.5
2475.61	632.5
2476.52	628
2477.44	607.5
2478.35	629.5
2479.26	606
2480.17	626
2481.09	621
2482	617
2482.91	614.5
2483.82	602
2484.74	627
2485.65	638
2486.56	621.5
2487.47	624.5
2488.38	613
2489.29	629
2490.21	616
2491.12	593
2492.03	604
2492.94	605
2493.85	613
2494.76	614
2495.67	603
2496.58	599
2497.49	608
2498.4	616.5
2499.31	605
2500.22	603
2501.13	598
2502.04	593.5
2502.95	601
2503.86	593.5
2504.76	602.5
2505.67	595
2506.58	574
2507.49	582
2508.4	591.5
2509.31	587
2510.22	593.5
2511.12	583
2512.03	596
2512.94	608.5
2513.85	586
2514.76	600
2515.66	593.5
2516.57	612
2517.48	594
2518.38	571.5
2519.29	595
2520.2	576
2521.1	586
2522.01	581.5
2522.92	599.5
2523.82	576
2524.73	579
2525.64	598
2526.54	581.5
2527.45	590
2528.35	599
2529.26	592
2530.16	587.5
2531.07	588.5
2531.97	568.5
2532.88	577.5
2533.78	577.5
2534.69	574
2535.59	570
2536.5	553
2537.4	587
2538.31	579.5
2539.21	580.5
2540.11	563.5
2541.02	585
2541.92	585
2542.82	565
2543.73	568.5
2544.63	560
2545.53	574
2546.44	576
2547.34	562
2548.24	562
2549.14	566
2550.05	574
2550.95	555
2551.85	557.5
2552.75	556
2553.65	556
2554.56	575.5
2555.46	572
2556.36	571
2557.26	562.5
2558.16	570
2559.06	557
2559.96	548
2560.86	559.5
2561.76	540
2562.67	556
2563.57	557
2564.47	573
2565.37	552.5
2566.27	563
2567.17	566
2568.06	550
2568.96	561.5
2569.86	546
2570.76	557
2571.66	557.5
2572.56	567
2573.46	540
2574.36	548
2575.26	540
2576.16	540.5
2577.05	560
2577.95	539.5
2578.85	542
2579.75	551
2580.65	552
2581.54	536
2582.44	566
2583.34	546
2584.24	556
2585.13	548
2586.03	544.5
2586.93	532
2587.83	533
2588.72	538.5
2589.62	552
2590.51	533
2591.41	542
2592.31	536
2593.2	541
2594.1	531.5
2594.99	536
2595.89	532
2596.79	529
2597.68	543
2598.58	542
2599.47	543.5
2600.37	529
2601.26	544
2602.16	527.5
2603.05	517
2603.94	540.5
2604.84	518
2605.73	522.5
2606.63	522
2607.52	535
2608.42	525
2609.31	513.5
2610.2	516
2611.1	526
2611.99	530
2612.88	520
2613.78	523.5
2614.67	520
2615.56	527
2616.45	521.5
2617.35	517
2618.24	517
2619.13	513
2620.02	542.5
2620.91	511
2621.81	501.5
2622.7	527.5
2623.59	526
2624.48	520
2625.37	527
2626.26	518
2627.15	501.5
2628.04	514
2628.94	515.5
2629.83	508.5
2630.72	517
2631.61	500
2632.5	526
2633.39	509
2634.28	514
2635.17	505
2636.06	501.5
2636.95	493.5
2637.84	502
2638.73	514
2639.61	497
2640.5	504.5
2641.39	510
2642.28	494.5
2643.17	505.5
2644.06	492.5
2644.95	494
2645.84	495
2646.72	487.5
2647.61	493
2648.5	487
2649.39	494
2650.28	518
2651.16	499.5
2652.05	489.5
2652.94	496
2653.82	489
2654.71	508
2655.6	486
2656.49	494
2657.37	492
2658.26	479
2659.14	490
2660.03	484
2660.92	510.5
2661.8	471
2662.69	488
2663.57	485.5
2664.46	488.5
2665.35	475.5
2666.23	494
2667.12	481.5
2668	473
2668.89	484
2669.77	482
2670.66	505.5
2671.54	476.5
2672.42	473
2673.31	489
2674.19	473
2675.08	501.5
2675.96	482.5
2676.84	490
2677.73	491
2678.61	486.5
2679.49	475
2680.38	491
2681.26	486
2682.14	474
2683.03	467
2683.91	476
2684.79	471.5
2685.68	469
2686.56	486.5
2687.44	483
2688.32	474
2689.2	483
2690.09	481
2690.97	487.5
2691.85	475
2692.73	468.5
2693.61	465
2694.49	487
2695.37	473
2696.25	462.5
2697.14	484.5
2698.02	475
2698.9	457
2699.78	468
2700.66	467.5
2701.54	462.5
2702.42	484.5
2703.3	465
2704.18	441
2705.06	473
2705.94	479
2706.82	458
2707.7	459
2708.57	459
2709.45	470.5
2710.33	463
2711.21	466.5
2712.09	463
2712.97	469
2713.85	448
2714.72	445
2715.6	468.5
2716.48	467
2717.36	444.5
2718.24	452
2719.11	457.5
2719.99	458
2720.87	466
2721.75	454
2722.62	455.5
2723.5	459.5
2724.38	456
2725.25	462.5
2726.13	468.5
2727.01	442
2727.88	458
2728.76	457.5
2729.63	458
2730.51	450
2731.39	459
2732.26	459
2733.14	461
2734.01	455
2734.89	438
2735.76	462
2736.64	458
2737.51	435.5
2738.39	450
2739.26	431
2740.14	449.5
2741.01	432
2741.89	436
2742.76	437.5
2743.63	428
2744.51	435.5
2745.38	450.5
2746.26	430.5
2747.13	431
2748	430
2748.88	430
2749.75	450
2750.62	417
2751.5	434
2752.37	438
2753.24	414.5
2754.11	425.5
2754.99	436.5
2755.86	426
2756.73	433
2757.6	426.5
2758.47	427
2759.35	429.5
2760.22	417.5
2761.09	427
2761.96	414
2762.83	427.5
2763.7	428
2764.57	442.5
2765.44	417
2766.32	414
2767.19	429.5
2768.06	415.5
2768.93	412
2769.8	418
2770.67	417.5
2771.54	429
2772.41	430
2773.28	415
2774.15	414
2775.02	410
2775.89	421.5
2776.75	415
2777.62	414
2778.49	405.5
2779.36	411
2780.23	399
2781.1	409
2781.97	411
2782.84	411.5
2783.7	414.5
2784.57	422.5
2785.44	420
2786.31	418
2787.18	411
2788.04	405
2788.91	415.5
2789.78	410
2790.64	416
2791.51	405
2792.38	417.5
2793.24	405
2794.11	412
2794.98	408
2795.85	415.5
2796.71	404
2797.58	403
2798.44	410
2799.31	420
2800.18	415
2801.04	420
2801.91	403
2802.77	410
2803.64	401.5
2804.5	393
2805.37	404
2806.23	396
2807.1	404.5
2807.96	409
2808.83	418.5
2809.69	408
2810.55	404.5
2811.42	388
2812.28	403.5
2813.15	397
2814.01	401.5
2814.88	399.5
2815.74	411.5
2816.6	397.5
2817.46	392.5
2818.33	397
2819.19	385
2820.05	397
2820.92	398
2821.78	385.5
2822.64	387
2823.51	392
2824.37	393.5
2825.23	387
2826.09	399
2826.95	402
2827.81	394
2828.68	396
2829.54	393
2830.4	387
2831.26	397
2832.12	398.5
2832.98	394
2833.84	390
2834.71	388
2835.57	390
2836.43	394.5
2837.29	401
2838.15	394
2839.01	410.5
2839.87	392
2840.73	404.5
2841.59	411.5
2842.45	409.5
2843.31	396
2844.17	402
2845.02	397
2845.88	394
2846.74	406
2847.6	404
2848.46	409.5
2849.32	408
2850.18	406.5
2851.04	401
2851.9	407
2852.75	414
2853.61	413
2854.47	405.5
2855.33	419.5
2856.19	410
2857.04	413.5
2857.9	401
2858.76	416
2859.61	396.5
2860.47	410
2861.33	407.5
2862.19	397
2863.04	399.5
2863.9	406
2864.76	400.5
2865.61	399
2866.47	394.5
2867.32	415
2868.18	406.5
2869.04	416
2869.89	416.5
2870.75	403
2871.6	409
2872.46	401.5
2873.31	408
2874.17	409.5
2875.02	410
2875.88	408.5
2876.73	410.5
2877.59	407
2878.44	411.5
2879.3	401.5
2880.15	399
2881	400.5
2881.86	414.5
2882.71	395
2883.57	404.5
2884.42	401.5
2885.27	408.5
2886.13	409
2886.98	420.5
2887.83	415.5
2888.69	411
2889.54	401
2890.39	403
2891.24	391.5
2892.1	408
2892.95	400.5
2893.8	407.5
2894.65	409
2895.51	408.5
2896.36	408
2897.21	404.5
2898.06	406.5
2898.91	416
2899.76	413.5
2900.62	416
2901.47	403
2902.32	405
2903.17	424.5
2904.02	403
2904.87	397
2905.72	418.5
2906.57	411.5
2907.42	416.5
2908.27	422.5
2909.12	411
2909.97	410.5
2910.82	426
2911.67	416
2912.52	424
2913.37	417.5
2914.22	423
2915.07	406.5
2915.92	416
2916.77	407
2917.62	426
2918.47	414
2919.31	418
2920.16	406.5
2921.01	416.5
2921.86	419
2922.71	414
2923.55	406.5
2924.4	416
2925.25	415.5
2926.1	422
2926.94	419
2927.79	436
2928.64	413
2929.49	418.5
2930.33	418.5
2931.18	429
2932.03	415.5
2932.87	436
2933.72	422
2934.57	426
2935.41	416
2936.26	417
2937.11	422
2937.95	411
2938.8	416.5
2939.64	413
2940.49	426
2941.33	406.5
2942.18	415.5
2943.02	407.5
2943.87	400.5
2944.71	402
2945.56	398
2946.4	389
2947.25	387.5
2948.09	403
2948.94	388.5
2949.78	391
2950.63	393.5
2951.47	388
2952.31	388
2953.16	369
2954	389.5
2954.84	379
2955.69	372.5
2956.53	374
2957.37	378.5
2958.22	369
2959.06	367.5
2959.9	370
2960.75	366
2961.59	363
2962.43	356.5
2963.27	354
2964.11	359
2964.96	353
2965.8	362
2966.64	352
2967.48	358.5
2968.32	364.5
2969.16	349.5
2970.01	354
2970.85	367
2971.69	333.5
2972.53	350.5
2973.37	358
2974.21	341.5
2975.05	353.5
2975.89	350.5
2976.73	341
2977.57	343.5
2978.41	333
2979.25	353.5
2980.09	344
2980.93	340.5
2981.77	329
2982.61	334
2983.45	335.5
2984.29	329
2985.13	333.5
2985.97	338.5
2986.81	337.5
2987.65	324
2988.49	322.5
2989.32	338.5
2990.16	327.5
2991	325
2991.84	324
2992.68	311
2993.51	320
2994.35	326
2995.19	315
2996.03	311
2996.86	323.5
2997.7	322.5
2998.54	314.5
2999.38	312
