#Acq. time (s)=	5
#Accumulations=	5
#Range (cm-¹)=	100...3000
#Windows=	3
#Autofocus=	Off
#AutoExposure=	Off
#Spike filter=	Multiple accum.
#Delay time (s)=	0
#Binning=	1
#Readout mode=	Signal
#DeNoise=	Off
#ICS correction=	Off
#Dark correction=	Off
#Inst. Process=	Off
#Instrument=	LabRAM HR Evol
#Detector=	Syncerity OE
#Objective=	x100_VIS_LWD
#Grating=	600 (500nm)
#ND Filter=	100%
#Laser=	633nm_Edge
#Hole=	100.021
#Range=	Visible
#Project=	Omar
#Sample=	chi
#Site=	f
#Title=	nsno
#Remark=	
#Date=	12.09.2023 17:25
#Acquired=	12.09.2023 17:25:13
101.026	3201.5
102.309	3178
103.592	3110.5
104.875	3128.5
106.158	3084.5
107.441	3026.5
108.723	3041.5
110.005	3018
111.289	2966
112.571	2923.5
113.852	2928
115.134	2895.5
116.415	2895
117.696	2908
118.976	2900
120.257	2834.5
121.537	2865.5
122.817	2824.5
124.097	2818.5
125.377	2791
126.656	2745
127.936	2748.5
129.215	2729
130.493	2716
131.772	2696
133.049	2690.5
134.327	2699.5
135.605	2652.5
136.883	2605
138.161	2565.5
139.438	2579
140.715	2576
141.992	2579.5
143.269	2530
144.545	2518.5
145.82	2505.5
147.096	2485
148.372	2439.5
149.648	2454
150.924	2425.5
152.199	2430.5
153.472	2420
154.747	2393
156.022	2366.5
157.296	2338
158.571	2367.5
159.843	2325.5
161.117	2351
162.391	2348.5
163.664	2336.5
164.937	2278.5
166.209	2308
167.482	2266.5
168.754	2302
170.025	2250
171.297	2264
172.569	2286
173.841	2267
175.111	2257
176.383	2199
177.654	2263
178.923	2212.5
180.194	2191
181.464	2190
182.733	2232
184.003	2235
185.273	2182
186.542	2191.5
187.811	2212.5
189.079	2221
190.348	2218.5
191.617	2200
192.884	2225.5
194.152	2198
195.419	2209.5
196.687	2230.5
197.955	2244
199.221	2212.5
200.489	2248
201.755	2233
203.022	2275.5
204.287	2243
205.554	2274
206.818	2260
208.085	2268
209.349	2245
210.615	2260.5
211.879	2249
213.144	2272
214.408	2288.5
215.673	2263
216.936	2271.5
218.201	2246
219.464	2267.5
220.728	2261
221.99	2285.5
223.253	2261
224.516	2260
225.778	2279
227.041	2267.5
228.303	2258.5
229.564	2323
230.826	2285.5
232.087	2305
233.348	2279
234.61	2310
235.87	2298
237.13	2312
238.391	2283
239.651	2316
240.91	2305.5
242.171	2294.5
243.43	2332.5
244.689	2320.5
245.949	2315.5
247.207	2299
248.465	2320
249.723	2343.5
250.983	2329
252.24	2318
253.498	2293
254.755	2335.5
256.013	2337
257.27	2332
258.526	2335
259.783	2343
261.039	2341.5
262.296	2302
263.552	2333.5
264.808	2314.5
266.063	2305
267.318	2302.5
268.573	2313
269.828	2320
271.084	2320.5
272.338	2324.5
273.592	2332
274.846	2311
276.1	2309
277.353	2273.5
278.607	2289.5
279.86	2324
281.113	2285.5
282.365	2319
283.619	2311
284.872	2280
286.124	2269.5
287.376	2325
288.627	2291
289.879	2339.5
291.13	2326
292.381	2319.5
293.632	2330.5
294.883	2296.5
296.133	2340.5
297.384	2341
298.634	2360
299.883	2354
301.133	2359.5
302.381	2349
303.63	2356.5
304.879	2321.5
306.128	2350
307.377	2365
308.625	2366.5
309.874	2327.5
311.122	2407
312.37	2355
313.617	2344
314.863	2381.5
316.111	2358.5
317.358	2310
318.604	2322
319.851	2325.5
321.098	2339.5
322.342	2338
323.588	2329.5
324.834	2336
326.08	2315.5
327.325	2284.5
328.569	2311.5
329.814	2319
331.059	2292
332.304	2267.5
333.548	2291.5
334.791	2279
336.035	2269.5
337.279	2300
338.521	2294
339.765	2274
341.008	2228
342.251	2246.5
343.492	2258.5
344.735	2267
345.977	2262
347.218	2264.5
348.46	2255.5
349.702	2268.5
350.942	2267.5
352.184	2290.5
353.425	2267
354.665	2311
355.905	2297
357.145	2259
358.385	2271
359.625	2289
360.864	2278
362.104	2279.5
363.342	2319.5
364.581	2304
365.819	2277.5
367.058	2299.5
368.296	2290
369.534	2294
370.771	2295
372.01	2254
373.246	2281
374.484	2263
375.72	2240.5
376.958	2275
378.194	2248
379.431	2240
380.666	2226
381.903	2257.5
383.138	2210.5
384.374	2223.5
385.609	2241.5
386.845	2199.5
388.079	2248
389.313	2236.5
390.548	2231
391.782	2218.5
393.016	2220
394.25	2263.5
395.483	2264.5
396.718	2234
397.95	2237.5
399.183	2273
400.416	2271
401.648	2276
402.88	2273.5
404.113	2269
405.345	2276
406.576	2286
407.807	2283
409.04	2313
410.27	2295.5
411.501	2321.5
412.731	2280.5
413.963	2315
415.193	2322
416.422	2335.5
417.652	2301.5
418.883	2325
420.112	2327
421.341	2315
422.569	2327
423.798	2299
425.028	2350
426.256	2352.5
427.484	2307
428.711	2377.5
429.939	2369
431.166	2362.5
432.394	2351
433.622	2333.5
434.849	2347.5
436.075	2366.5
437.302	2353
438.528	2367.5
439.754	2389
440.98	2384
442.205	2331
443.431	2342.5
444.656	2371.5
445.881	2378
447.106	2336.5
448.33	2372.5
449.555	2356
450.779	2346.5
452.003	2369.5
453.227	2375
454.45	2347
455.674	2368.5
456.897	2340
458.12	2342.5
459.343	2318
460.566	2355.5
461.788	2395.5
463.01	2340
464.232	2339.5
465.454	2354
466.676	2345
467.897	2354.5
469.119	2345
470.34	2347
471.559	2340
472.78	2362.5
474.001	2334.5
475.221	2337.5
476.441	2362.5
477.661	2362.5
478.879	2386.5
480.099	2386.5
481.318	2363
482.537	2352
483.756	2373.5
484.974	2389
486.192	2343
487.411	2378
488.629	2376.5
489.847	2376.5
491.063	2388
492.281	2398.5
493.498	2406
494.714	2407
495.931	2402
497.148	2405.5
498.365	2369
499.58	2407.5
500.796	2409.5
502.012	2413
503.226	2429.5
504.442	2383.5
505.657	2426
506.871	2412.5
508.086	2407.5
509.3	2405
510.515	2408
511.729	2421.5
512.942	2440
514.156	2429.5
515.369	2430.5
516.582	2412
517.796	2399.5
519.008	2437.5
520.221	2400.5
521.433	2410.5
522.645	2402
523.857	2419.5
525.069	2402.5
526.28	2398.5
527.492	2421
528.702	2434
529.914	2431
531.124	2415
532.335	2372
533.545	2403
534.756	2386.5
535.965	2364.5
537.175	2347.5
538.384	2372.5
539.593	2424.5
540.803	2429.5
542.011	2396.5
543.221	2400.5
544.429	2423
545.636	2416.5
546.845	2434.5
548.052	2435
549.261	2421
550.468	2402
551.675	2415.5
552.883	2443.5
554.089	2393.5
555.295	2399
556.503	2406
557.709	2404
558.914	2413.5
560.12	2411.5
561.326	2423
562.531	2433
563.736	2388.5
564.941	2419
566.147	2424.5
567.351	2412
568.555	2409
569.759	2409.5
570.964	2423
572.168	2435
573.371	2475.5
574.574	2414
575.777	2410.5
576.981	2425
578.184	2424.5
579.386	2408.5
580.588	2435
581.79	2447
582.992	2450
584.194	2448
585.395	2421.5
586.598	2443.5
587.799	2439
589	2412.5
590.201	2447.5
591.401	2439
592.601	2432
593.801	2411
595.001	2435.5
596.201	2460
597.401	2430
598.6	2450.5
599.799	2453
600.998	2454.5
602.197	2453.5
603.395	2467
604.594	2424
605.792	2495.5
606.99	2467.5
608.188	2471
609.386	2468
610.583	2435.5
611.78	2448.5
612.977	2448
614.174	2484.5
615.371	2492.5
616.566	2483.5
617.762	2475.5
618.958	2488.5
620.154	2504.5
621.35	2516
622.546	2478.5
623.741	2500.5
624.935	2523
626.13	2488.5
627.325	2505.5
628.519	2494.5
629.714	2545.5
630.908	2497.5
632.101	2520.5
633.295	2535.5
634.488	2524.5
635.682	2573.5
636.874	2564
638.067	2547
639.26	2551
640.453	2564
641.644	2578.5
642.836	2556
644.028	2556
645.219	2556
646.411	2574
647.602	2565
648.792	2574.5
649.984	2564
651.175	2570
652.364	2551.5
653.555	2562.5
654.745	2531.5
655.934	2555
657.124	2537
658.314	2541.5
659.503	2543.5
660.692	2485.5
661.88	2534
663.07	2528.5
664.257	2497.5
665.446	2539.5
666.635	2488.5
667.822	2495
669.01	2511.5
670.197	2497.5
671.384	2514
672.571	2505.5
673.758	2508
674.944	2499.5
676.131	2522.5
677.317	2486.5
678.502	2460.5
679.689	2511.5
680.874	2468
682.06	2506.5
683.245	2466.5
684.431	2505
685.615	2511.5
686.799	2488
687.984	2486
689.168	2497
690.353	2502
691.536	2458.5
692.719	2501
693.904	2491.5
695.086	2475
696.269	2463.5
697.453	2500.5
698.635	2475.5
699.817	2480.5
701	2461.5
702.182	2465
703.364	2427
704.545	2476.5
705.727	2464.5
706.908	2467.5
708.089	2480.5
709.27	2481.5
710.451	2445
711.632	2485
712.812	2489.5
713.991	2466.5
715.172	2460.5
716.352	2469
717.531	2453
718.71	2471
719.889	2479
721.068	2444.5
722.248	2469.5
723.426	2468.5
724.604	2460
725.782	2517
726.96	2491
728.138	2493.5
729.315	2483
730.492	2480.5
731.669	2504.5
732.846	2474.5
734.024	2479
735.201	2504
736.377	2502
737.553	2488
738.729	2497
739.905	2485
741.081	2492.5
742.256	2472
743.431	2462
744.606	2477
745.781	2477
746.956	2491
748.13	2492
749.303	2497.5
750.477	2477
751.651	2430.5
752.825	2498.5
753.999	2474
755.172	2464.5
756.345	2448.5
757.518	2479
758.691	2467
759.864	2483
761.035	2485.5
762.207	2444.5
763.379	2494.5
764.551	2458
765.723	2446.5
766.894	2451
768.064	2470.5
769.236	2453
770.407	2467.5
771.577	2447.5
772.748	2472.5
773.917	2445
775.088	2441
776.258	2456
777.427	2463
778.596	2437
779.765	2468.5
780.935	2420
782.104	2474
783.272	2460
784.44	2485
785.609	2447
786.776	2482
787.944	2444.5
789.113	2445
790.279	2468.5
791.447	2439
792.613	2428.5
793.78	2448.5
794.948	2462.5
796.113	2441.5
797.28	2485
798.445	2469.5
799.612	2473
800.778	2495
801.943	2473.5
803.109	2465
804.273	2467
805.439	2496
806.603	2474
807.768	2471.5
808.932	2518
810.096	2521
811.26	2468.5
812.424	2497
813.587	2457.5
814.751	2505
815.914	2542
817.078	2530
818.24	2537.5
819.402	2532
820.565	2520.5
821.727	2530
822.889	2522.5
824.051	2499
825.212	2512
826.374	2521.5
827.535	2534.5
828.697	2510
829.857	2526
831.018	2533
832.179	2552
833.339	2526.5
834.499	2546
835.659	2547
836.819	2521.5
837.978	2568
839.137	2532.5
840.297	2575
841.456	2549.5
842.614	2536
843.772	2540
844.932	2541
846.09	2570.5
847.247	2534
848.405	2563
849.562	2558
850.721	2538.5
851.878	2546
853.034	2604.5
854.191	2548.5
855.348	2586.5
856.504	2599.5
857.661	2604.5
858.817	2592.5
859.973	2577
861.129	2552
862.284	2562
863.439	2565
864.594	2552
865.749	2515.5
866.904	2543
868.058	2537
869.212	2570.5
870.367	2559.5
871.522	2519.5
872.676	2492.5
873.829	2530
874.983	2521
876.136	2506
877.289	2447
878.442	2481
879.593	2493
880.746	2484.5
881.898	2485
883.05	2482.5
884.202	2481.5
885.354	2482.5
886.506	2483.5
887.657	2482
888.808	2456.5
889.96	2459
891.11	2413
892.261	2448
893.41	2431.5
894.561	2441.5
895.711	2466
896.861	2426
898.011	2443
899.161	2422
900.309	2435.5
901.458	2423
902.607	2428
903.756	2448.5
904.904	2413
906.052	2414
907.201	2416.5
908.349	2441.5
909.496	2404
910.644	2436.5
911.791	2409
912.939	2397
914.085	2415
915.232	2406.5
916.379	2434.5
917.525	2429
918.671	2408.5
919.818	2411.5
920.963	2410.5
922.109	2419
923.255	2418
924.399	2431
925.545	2385
926.689	2439
927.834	2385
928.979	2415.5
930.123	2432
931.268	2392.5
932.411	2419
933.555	2434
934.698	2410.5
935.842	2434.5
936.985	2413
938.128	2424.5
939.271	2433
940.414	2461.5
941.556	2426.5
942.699	2433.5
943.84	2421
944.983	2417
946.124	2436
947.266	2456.5
948.407	2435
949.547	2430.5
950.689	2412.5
951.829	2457.5
952.971	2439.5
954.111	2442
955.25	2442.5
956.391	2458.5
957.531	2476.5
958.67	2471
959.81	2453
960.949	2469.5
962.088	2461
963.227	2488
964.366	2467
965.504	2456
966.643	2446.5
967.781	2447.5
968.919	2475
970.056	2463.5
971.195	2454.5
972.332	2440
973.469	2424.5
974.605	2466.5
975.743	2480.5
976.88	2433.5
978.016	2482
979.152	2466.5
980.288	2474.5
981.423	2458
982.56	2452.5
983.696	2438.5
984.831	2468
985.966	2463
987.101	2422.5
988.235	2408
989.37	2453
990.504	2480.5
991.638	2474
992.773	2495.5
993.907	2458.5
995.041	2489.5
996.174	2494
997.307	2490
998.44	2533.5
999.573	2578.5
1000.71	2512.5
1001.84	2534.5
1002.97	2490
1004.1	2464.5
1005.24	2458.5
1006.37	2455
1007.5	2485
1008.63	2442.5
1009.76	2438.5
1010.89	2437.5
1012.02	2426.5
1013.15	2470.5
1014.28	2471
1015.41	2405
1016.54	2467.5
1017.67	2441.5
1018.8	2460.5
1019.93	2423.5
1021.06	2422
1022.19	2456
1023.32	2456.5
1024.45	2442.5
1025.58	2466.5
1026.71	2425
1027.84	2435.5
1028.96	2466.5
1030.09	2447
1031.22	2434
1032.35	2460
1033.47	2464.5
1034.6	2508.5
1035.73	2449
1036.86	2437.5
1037.98	2453
1039.11	2455
1040.23	2425
1041.36	2446.5
1042.49	2466
1043.61	2460
1044.74	2459.5
1045.86	2479
1046.99	2469
1048.11	2467.5
1049.24	2477.5
1050.36	2490
1051.49	2492
1052.61	2452
1053.74	2450
1054.86	2456.5
1055.98	2472
1057.11	2462.5
1058.23	2451
1059.35	2437.5
1060.48	2450
1061.6	2469.5
1062.72	2464.5
1063.84	2465
1064.97	2475.5
1066.09	2468
1067.21	2496.5
1068.33	2459.5
1069.45	2504
1070.57	2441
1071.7	2477.5
1072.82	2462
1073.94	2450
1075.06	2460
1076.18	2450
1077.3	2500.5
1078.42	2470
1079.54	2481.5
1080.66	2467
1081.78	2465.5
1082.9	2448.5
1084.02	2467.5
1085.14	2450.5
1086.25	2429
1087.37	2446
1088.49	2434.5
1089.61	2434.5
1090.73	2435
1091.84	2441.5
1092.96	2443.5
1094.08	2424.5
1095.2	2393.5
1096.31	2417.5
1097.43	2448.5
1098.55	2418.5
1099.66	2398
1100.78	2457.5
1101.9	2437.5
1103.01	2435.5
1104.13	2412
1105.25	2463
1106.36	2439
1107.48	2451
1108.59	2428
1109.71	2441
1110.82	2432
1111.93	2420
1113.05	2438
1114.16	2414.5
1115.28	2446.5
1116.39	2456
1117.51	2444.5
1118.62	2462.5
1119.73	2394
1120.85	2426.5
1121.96	2438
1123.07	2443.5
1124.18	2463
1125.3	2430
1126.41	2439.5
1127.52	2427
1128.63	2454.5
1129.74	2459.5
1130.85	2452
1131.97	2449.5
1133.08	2428
1134.19	2454
1135.3	2466
1136.41	2456
1137.52	2476.5
1138.63	2463.5
1139.74	2515.5
1140.85	2466.5
1141.96	2479.5
1143.07	2490
1144.18	2500
1145.29	2477
1146.4	2512.5
1147.51	2523.5
1148.61	2555.5
1149.72	2543
1150.83	2534
1151.94	2543
1153.05	2561
1154.15	2545.5
1155.26	2537.5
1156.37	2601.5
1157.48	2545
1158.58	2583.5
1159.69	2570.5
1160.8	2585
1161.9	2571.5
1163.01	2594.5
1164.11	2636.5
1165.22	2579.5
1166.33	2621
1167.43	2637.5
1168.54	2607
1169.64	2615.5
1170.75	2623.5
1171.85	2649.5
1172.96	2605.5
1174.06	2615
1175.17	2623.5
1176.27	2632
1177.37	2622
1178.48	2588
1179.58	2587
1180.68	2556
1181.79	2553.5
1182.89	2564.5
1183.99	2564.5
1185.1	2555.5
1186.2	2567.5
1187.3	2549.5
1188.4	2537.5
1189.5	2560.5
1190.61	2543.5
1191.71	2528.5
1192.81	2526
1193.91	2552.5
1195.01	2544.5
1196.11	2555.13
1197.21	2523.31
1198.31	2555.45
1199.42	2563.9
1200.51	2530.03
1201.61	2548.1
1202.72	2540.17
1203.81	2533.81
1204.91	2531.3
1206.01	2528.48
1207.11	2544.84
1208.21	2522.5
1209.31	2541.04
1210.41	2504.8
1211.51	2536.18
1212.61	2526.23
1213.7	2500.15
1214.8	2513.64
1215.9	2492.75
1217	2528.4
1218.09	2509.88
1219.19	2490.51
1220.29	2496.68
1221.38	2503.04
1222.48	2513.09
1223.58	2518.16
1224.67	2482.09
1225.77	2500.65
1226.87	2514.39
1227.96	2489.46
1229.06	2479.81
1230.15	2522.05
1231.25	2498.91
1232.34	2516.99
1233.44	2509.12
1234.53	2513.02
1235.63	2513.22
1236.72	2517.7
1237.81	2539.49
1238.91	2524.21
1240	2503.42
1241.1	2511.12
1242.19	2534.51
1243.28	2523.94
1244.38	2518.14
1245.47	2533.31
1246.56	2505.94
1247.65	2518.57
1248.75	2526.38
1249.84	2539.26
1250.93	2552.83
1252.02	2560.24
1253.11	2554.95
1254.21	2558.84
1255.3	2568.15
1256.39	2559.5
1257.48	2562.67
1258.57	2547.19
1259.66	2548.58
1260.75	2574.21
1261.84	2579.64
1262.93	2573.98
1264.02	2579.55
1265.11	2580.92
1266.2	2560.84
1267.29	2578.58
1268.38	2577.45
1269.47	2586.1
1270.56	2580.56
1271.65	2564.75
1272.73	2568.98
1273.82	2558.29
1274.91	2551.08
1276	2566.29
1277.09	2557.27
1278.17	2578.8
1279.26	2590.95
1280.35	2592.83
1281.43	2579.8
1282.52	2559.11
1283.61	2565.05
1284.69	2562.73
1285.78	2582.21
1286.87	2593.15
1287.95	2557.23
1289.04	2564.05
1290.13	2587.07
1291.21	2562.02
1292.3	2564.74
1293.38	2555.96
1294.47	2588.44
1295.55	2570.47
1296.64	2540.3
1297.72	2579.69
1298.8	2571.59
1299.89	2554.35
1300.97	2586.19
1302.06	2560.07
1303.14	2535.88
1304.22	2574.97
1305.31	2569.58
1306.39	2542.79
1307.34	2562
1308.43	2561.5
1309.52	2563
1310.6	2570.5
1311.69	2528
1312.78	2570
1313.87	2531
1314.96	2557
1316.04	2522.5
1317.13	2518.5
1318.21	2552.5
1319.3	2513.5
1320.39	2543
1321.47	2516
1322.56	2511.5
1323.65	2542.5
1324.73	2541
1325.82	2508
1326.9	2507
1327.99	2530
1329.07	2502
1330.16	2511.5
1331.24	2530
1332.32	2526.5
1333.41	2479.5
1334.49	2522.5
1335.58	2475.5
1336.66	2535
1337.74	2478
1338.83	2504.5
1339.91	2489.5
1340.99	2484.5
1342.08	2509.5
1343.16	2472
1344.24	2504.5
1345.32	2467
1346.41	2470
1347.49	2460.5
1348.57	2431
1349.65	2426.5
1350.73	2426
1351.81	2419
1352.9	2410
1353.98	2469.5
1355.06	2423
1356.14	2436
1357.22	2412
1358.3	2430.5
1359.38	2437.5
1360.46	2410.5
1361.54	2389.5
1362.62	2438
1363.7	2426
1364.78	2380
1365.85	2419.5
1366.93	2421
1368.01	2421
1369.09	2415
1370.17	2401.5
1371.25	2414
1372.33	2369
1373.4	2408.5
1374.48	2405
1375.56	2385
1376.64	2397
1377.71	2379
1378.79	2412
1379.87	2401
1380.94	2337
1382.02	2374.5
1383.1	2378.5
1384.17	2377.5
1385.25	2365
1386.32	2362.5
1387.4	2375
1388.47	2375
1389.55	2369.5
1390.63	2374.5
1391.7	2374.5
1392.77	2347
1393.85	2358
1394.92	2351
1396	2368.5
1397.07	2344
1398.15	2336
1399.22	2357
1400.29	2377
1401.37	2375.5
1402.44	2363.5
1403.51	2397.5
1404.59	2369
1405.66	2365.5
1406.73	2357.5
1407.8	2362
1408.87	2358
1409.95	2349
1411.02	2351
1412.09	2338.5
1413.16	2345
1414.23	2366.5
1415.3	2370.5
1416.38	2375
1417.45	2334
1418.52	2357
1419.59	2351.5
1420.66	2368.5
1421.73	2354.5
1422.8	2378
1423.87	2363
1424.94	2401
1426.01	2376.5
1427.08	2369.5
1428.15	2364.5
1429.21	2377
1430.28	2390.5
1431.35	2384
1432.42	2379
1433.49	2396
1434.56	2396
1435.63	2376
1436.69	2409
1437.76	2385.5
1438.83	2384.5
1439.89	2397.5
1440.96	2416
1442.03	2393
1443.1	2434.5
1444.16	2410.5
1445.23	2412
1446.3	2415
1447.36	2404
1448.43	2409
1449.49	2409.5
1450.56	2406
1451.62	2432
1452.69	2403
1453.75	2395
1454.82	2427.5
1455.88	2380
1456.95	2388
1458.01	2399
1459.08	2390
1460.14	2389
1461.2	2382.5
1462.27	2402.5
1463.33	2399.5
1464.4	2416
1465.46	2393.5
1466.52	2399.5
1467.58	2387.5
1468.65	2368
1469.71	2344
1470.77	2391
1471.83	2425.5
1472.9	2375
1473.96	2392.5
1475.02	2363
1476.08	2399
1477.14	2389
1478.2	2412
1479.27	2390.5
1480.33	2379
1481.39	2364
1482.45	2367
1483.51	2382.5
1484.57	2405.5
1485.63	2405.5
1486.69	2382
1487.75	2394.5
1488.81	2395
1489.87	2381
1490.93	2374
1491.99	2367
1493.04	2367.5
1494.1	2356.5
1495.16	2398
1496.22	2376
1497.28	2379.5
1498.34	2380
1499.39	2414
1500.45	2388
1501.51	2394
1502.57	2388
1503.62	2356
1504.68	2380.5
1505.74	2397
1506.79	2417
1507.85	2372
1508.91	2407.5
1509.96	2398
1511.02	2408
1512.07	2413.5
1513.13	2371
1514.19	2407
1515.24	2388.5
1516.3	2411
1517.35	2413
1518.41	2400.5
1519.46	2394.5
1520.52	2382
1521.57	2396
1522.62	2390.5
1523.68	2397
1524.73	2400
1525.79	2402
1526.84	2359.5
1527.89	2370
1528.95	2412
1530	2380
1531.05	2396
1532.1	2382
1533.16	2399
1534.21	2413.5
1535.26	2395.5
1536.31	2422
1537.37	2411.5
1538.42	2382.5
1539.47	2356.5
1540.52	2409
1541.57	2387
1542.62	2381
1543.67	2373.5
1544.72	2388.5
1545.78	2419
1546.83	2394.5
1547.88	2360
1548.93	2420.5
1549.98	2380
1551.03	2400.5
1552.07	2414.5
1553.12	2379
1554.17	2397.5
1555.22	2398.5
1556.27	2366.5
1557.32	2409
1558.37	2408
1559.42	2421
1560.47	2430.5
1561.51	2430
1562.56	2405
1563.61	2394
1564.66	2431
1565.7	2362.5
1566.75	2374.5
1567.8	2370.5
1568.85	2405.5
1569.89	2369
1570.94	2351
1571.98	2350.5
1573.03	2361
1574.08	2364.5
1575.12	2326
1576.17	2323
1577.21	2351.5
1578.26	2361
1579.31	2370
1580.35	2329.5
1581.4	2370
1582.44	2357.5
1583.49	2396
1584.53	2348
1585.57	2319
1586.62	2352.5
1587.66	2323.5
1588.71	2390.5
1589.75	2342
1590.79	2337
1591.84	2376
1592.88	2337
1593.92	2384.5
1594.97	2356
1596.01	2358
1597.05	2389
1598.09	2365
1599.14	2344.5
1600.18	2296
1601.22	2293.5
1602.26	2296
1603.3	2262.5
1604.34	2287
1605.38	2258.5
1606.43	2248
1607.47	2231
1608.51	2228.5
1609.55	2191
1610.59	2184.5
1611.63	2170.5
1612.67	2133.5
1613.71	2102
1614.75	2092
1615.79	2077.5
1616.83	2055.5
1617.87	2051.5
1618.91	2041
1619.94	2015
1620.98	2020.5
1622.02	2027.5
1623.06	1994.5
1624.1	2001
1625.14	1964
1626.17	1940.5
1627.21	1920.5
1628.25	1911
1629.29	1903.5
1630.32	1904
1631.36	1920
1632.4	1909
1633.43	1846.5
1634.47	1841
1635.51	1828
1636.54	1817.5
1637.58	1807
1638.62	1794
1639.65	1781.5
1640.69	1783.5
1641.72	1772.5
1642.76	1755
1643.79	1713.5
1644.83	1726
1645.86	1729
1646.9	1704.5
1647.93	1671
1648.97	1684
1650	1687
1651.04	1664.5
1652.07	1661.5
1653.1	1642.5
1654.14	1632
1655.17	1626.5
1656.2	1626
1657.24	1613
1658.27	1599.5
1659.3	1593
1660.34	1573.5
1661.37	1595
1662.4	1553
1663.43	1568
1664.46	1534.5
1665.5	1539
1666.53	1538.5
1667.56	1537
1668.59	1529.5
1669.62	1527.5
1670.65	1498.5
1671.68	1506.5
1672.71	1474.5
1673.74	1478.5
1674.77	1494.5
1675.8	1477
1676.83	1469
1677.86	1485.5
1678.89	1474
1679.92	1444.5
1680.95	1463
1681.98	1460.5
1683.01	1448.5
1684.04	1421.5
1685.07	1452
1686.1	1421.5
1687.13	1451.5
1688.15	1432.5
1689.18	1440
1690.21	1416
1691.24	1412.5
1692.27	1408.5
1693.29	1386.5
1694.32	1395
1695.35	1380.5
1696.37	1379.5
1697.4	1386.5
1698.43	1394.5
1699.45	1376.5
1700.48	1371.5
1701.51	1385
1702.53	1399
1703.56	1365.5
1704.58	1361.5
1705.61	1364
1706.64	1349
1707.66	1359.5
1708.69	1336.5
1709.71	1354.5
1710.73	1377.5
1711.76	1330.5
1712.78	1324.5
1713.81	1329
1714.83	1358
1715.86	1326.5
1716.88	1342
1717.9	1314
1718.93	1334.5
1719.95	1315
1720.97	1323.5
1722	1289
1723.02	1325.5
1724.04	1298.5
1725.06	1305
1726.09	1296
1727.11	1285
1728.13	1311
1729.15	1301
1730.17	1289.5
1731.2	1285
1732.22	1295
1733.24	1282.5
1734.26	1287
1735.28	1274
1736.3	1270.5
1737.32	1246
1738.34	1269.5
1739.36	1259.5
1740.38	1255.5
1741.4	1273.5
1742.42	1281.5
1743.44	1243.5
1744.46	1242.5
1745.48	1252
1746.5	1242.5
1747.52	1251.5
1748.54	1252.5
1749.56	1244
1750.57	1247.5
1751.59	1222.5
1752.61	1221.5
1753.63	1208
1754.65	1214
1755.66	1217
1756.68	1228.5
1757.7	1225
1758.72	1195.5
1759.73	1221
1760.75	1209.5
1761.77	1190.5
1762.78	1211
1763.8	1189
1764.82	1209
1765.83	1180
1766.85	1196.5
1767.86	1188.5
1768.88	1197
1769.9	1177.5
1770.91	1178.5
1771.93	1167.5
1772.94	1177.5
1773.96	1182.5
1774.97	1169.5
1775.99	1166
1777	1153.5
1778.01	1158
1779.03	1137
1780.04	1156
1781.06	1149
1782.07	1149.5
1783.08	1162.5
1784.1	1173
1785.11	1143
1786.12	1143.5
1787.14	1157
1788.15	1154
1789.16	1138.5
1790.17	1141.5
1791.18	1147.5
1792.2	1124.5
1793.21	1134.5
1794.22	1121
1795.23	1104.5
1796.24	1109
1797.26	1101
1798.27	1118.5
1799.28	1118.5
1800.29	1128.5
1801.3	1116.5
1802.31	1106.5
1803.32	1115
1804.33	1087
1805.34	1105
1806.35	1108
1807.36	1120
1808.37	1087.5
1809.38	1106.5
1810.39	1083.5
1811.4	1091
1812.4	1088
1813.41	1096
1814.42	1093
1815.43	1086
1816.44	1075.5
1817.45	1075
1818.45	1068
1819.46	1095
1820.47	1067.5
1821.48	1054.5
1822.49	1073.5
1823.49	1057.5
1824.5	1059.5
1825.51	1087.5
1826.51	1061
1827.52	1082
1828.53	1072.5
1829.53	1069
1830.54	1044.5
1831.54	1052
1832.55	1028
1833.56	1054
1834.56	1043.5
1835.57	1026.5
1836.57	1033.5
1837.58	1032
1838.58	1061.5
1839.59	1029
1840.59	1031.5
1841.59	1035
1842.6	1019
1843.6	1023
1844.61	1023
1845.61	1020
1846.61	1025
1847.62	1031
1848.62	1025.5
1849.62	1004
1850.63	1024.5
1851.63	1005.5
1852.63	1013
1853.64	1002
1854.64	1012
1855.64	991.5
1856.64	1003
1857.64	996
1858.65	975
1859.65	1004.5
1860.65	1004
1861.65	995.5
1862.65	994.5
1863.65	1011.5
1864.65	975.5
1865.65	1003.5
1866.65	987
1867.65	987
1868.65	993.5
1869.65	962.5
1870.65	997
1871.65	987
1872.65	996.5
1873.65	966
1874.65	956
1875.65	985
1876.65	958.5
1877.65	954
1878.65	977
1879.65	957.5
1880.65	979.5
1881.64	972
1882.64	970
1883.64	943
1884.64	936.5
1885.63	964
1886.63	955
1887.63	957
1888.63	971
1889.62	951
1890.62	972
1891.62	945.5
1892.61	954.5
1893.61	932.5
1894.61	939
1895.6	938
1896.6	911
1897.59	930.5
1898.59	938
1899.58	920
1900.58	929.5
1901.57	922.5
1902.57	942
1903.56	958
1904.56	933.5
1905.55	937.5
1906.55	929.5
1907.54	950
1908.54	930.5
1909.53	909
1910.52	912.5
1911.52	931.5
1912.51	907.5
1913.5	920
1914.5	925
1915.49	928
1916.48	929
1917.48	921
1918.47	916
1919.46	915.5
1920.45	926
1921.44	922
1922.44	900.5
1923.43	921.5
1924.42	894
1925.41	907.5
1926.4	915
1927.39	906
1928.38	900
1929.38	899.5
1930.37	897
1931.36	890
1932.35	887
1933.34	906
1934.33	907
1935.32	904
1936.31	899.5
1937.3	895.5
1938.29	888.5
1939.28	888
1940.26	890
1941.25	880.5
1942.24	890
1943.23	897
1944.22	903
1945.21	886.5
1946.2	877
1947.18	877
1948.17	874.5
1949.16	872.5
1950.15	873.75
1951.13	875
1952.12	877.5
1953.11	860
1954.1	885.5
1955.08	877
1956.07	874.5
1957.06	846
1958.04	870.5
1959.03	865
1960.01	881.5
1961	874.5
1961.99	862
1962.97	848
1963.96	858.5
1964.94	849.5
1965.93	867.5
1966.91	863
1967.9	847.5
1968.88	840
1969.87	862
1970.85	875
1971.84	852
1972.82	848.5
1973.81	852
1974.79	835
1975.77	871
1976.76	869
1977.74	827
1978.72	844.5
1979.71	823.5
1980.69	838
1981.67	839.5
1982.65	839.5
1983.64	818
1984.62	843.5
1985.6	845.5
1986.58	824
1987.56	835.5
1988.55	831
1989.53	834
1990.51	833
1991.49	835
1992.47	839.5
1993.45	819
1994.43	835.5
1995.41	830.5
1996.39	834.5
1997.37	819.5
1998.36	797
1999.34	811.5
2000.31	829.5
2001.29	832
2002.27	823.5
2003.25	815
2004.23	813.5
2005.21	809.5
2006.19	818.5
2007.17	821.5
2008.15	810.5
2009.13	815.5
2010.11	817
2011.08	818
2012.06	800.5
2013.04	795
2014.02	809
2015	803
2015.97	813
2016.95	814.5
2017.93	804.5
2018.91	809.5
2019.88	821
2020.86	798.5
2021.83	801
2022.81	785
2023.79	805.5
2024.76	784
2025.74	785
2026.72	777.5
2027.69	801.5
2028.67	782
2029.64	792.5
2030.62	778
2031.59	787.5
2032.57	802.5
2033.54	776
2034.52	773.5
2035.49	784
2036.47	786.5
2037.44	783.5
2038.41	768
2039.39	780
2040.36	779.5
2041.34	790.5
2042.31	782.5
2043.28	770
2044.26	784.5
2045.23	762
2046.2	765
2047.17	761
2048.15	753.5
2049.12	771
2050.09	744.5
2051.06	768
2052.04	767.5
2053.01	764.5
2053.98	757.5
2054.95	768
2055.92	764
2056.89	763.5
2057.86	758
2058.84	746.5
2059.81	742
2060.78	748.5
2061.75	748
2062.72	738.5
2063.69	754.5
2064.66	730
2065.63	751
2066.6	734.5
2067.57	746
2068.54	752
2069.51	741
2070.48	757
2071.44	751.5
2072.41	743
2073.38	741.5
2074.35	745
2075.32	738
2076.29	743.5
2077.26	736.5
2078.22	741.5
2079.19	733
2080.16	722
2081.13	731.5
2082.09	728.5
2083.06	736
2084.03	727
2085	731
2085.96	703
2086.93	713.5
2087.9	715.5
2088.86	721
2089.83	732.5
2090.79	716
2091.76	704
2092.73	720
2093.69	704.5
2094.66	724
2095.62	726
2096.59	703.5
2097.55	712
2098.52	710.5
2099.48	713.5
2100.45	708.5
2101.41	717
2102.38	706.5
2103.34	707.5
2104.3	719
2105.27	728
2106.23	712
2107.19	706
2108.16	715
2109.12	712
2110.08	719
2111.05	714
2112.01	711
2112.97	702.5
2113.94	717
2114.9	695.5
2115.86	707
2116.82	717.5
2117.78	714.5
2118.75	722
2119.71	725.5
2120.67	731.5
2121.63	710.5
2122.59	715
2123.55	715
2124.51	703.5
2125.47	711.5
2126.43	701.5
2127.4	711
2128.36	708.5
2129.32	709.5
2130.28	689.5
2131.24	717.5
2132.2	715.5
2133.16	692
2134.11	718
2135.07	715
2136.03	697.5
2136.99	697
2137.95	703
2138.91	691
2139.87	698
2140.83	684.5
2141.78	693.5
2142.74	680
2143.7	678
2144.66	670
2145.62	689.516
2146.57	668.996
2147.53	686.306
2148.49	680.161
2149.45	666.518
2150.4	681.744
2151.36	679.092
2152.32	668.441
2153.27	668.738
2154.23	668.554
2155.19	661.387
2156.14	659.75
2157.1	685.236
2158.05	672.001
2159.01	677.155
2159.96	665.033
2160.92	666.588
2161.88	650.694
2162.83	658.366
2163.78	634.446
2164.74	657.057
2165.69	645.753
2166.65	647.384
2167.6	647.44
2168.56	640.365
2169.51	637.339
2170.47	647.912
2171.42	645.65
2172.37	630.881
2173.33	631.817
2174.28	645.642
2175.23	637.1
2176.19	638.538
2177.14	638.609
2178.09	635.883
2179.04	637.513
2180	634.536
2180.95	632.125
2181.9	626.748
2182.85	628.081
2183.81	629.983
2184.76	630.591
2185.71	620.347
2186.66	622.052
2187.61	619.958
2188.56	623.437
2189.51	614.997
2190.46	612.404
2191.42	619.627
2192.37	620.072
2193.32	626.911
2194.27	616.905
2195.22	617.259
2196.17	622.286
2197.12	597.348
2198.07	615.258
2199.02	609.475
2199.97	619.2
2200.92	617.125
2201.86	611.479
2202.81	613.18
2203.76	617.279
2204.71	615.897
2205.66	610.557
2206.61	615.903
2207.56	613.544
2208.5	617.126
2209.45	611.048
2210.4	610.916
2211.35	611.159
2212.3	607.632
2213.24	610.183
2214.19	613.483
2215.14	604.451
2216.08	607.848
2217.03	613.559
2217.98	601.328
2218.92	608.189
2219.87	615.213
2220.82	614.188
2221.76	616.85
2222.71	613.354
2223.65	607.858
2224.6	616.314
2225.55	609.841
2226.49	607.559
2227.44	611.182
2228.38	611.348
2229.33	607.742
2230.27	612.146
2231.22	608.974
2232.16	611.51
2233.11	608.247
2234.05	603.405
2234.99	606.36
2235.94	606.769
2236.88	612.363
2237.83	612.128
2238.77	616.821
2239.71	616.643
2240.66	616.21
2241.6	624.945
2242.06	625.5
2243.01	637
2243.96	630
2244.91	633.5
2245.85	634
2246.8	630
2247.75	640.5
2248.7	647
2249.64	665
2250.59	626
2251.54	645
2252.48	632.5
2253.43	621
2254.38	623
2255.32	624
2256.27	615
2257.21	594
2258.16	595.5
2259.1	587
2260.05	594
2260.99	589.5
2261.94	591
2262.89	584
2263.83	590.5
2264.77	564
2265.72	569
2266.66	576.5
2267.61	564.5
2268.55	572.5
2269.5	577.5
2270.44	571
2271.38	581
2272.33	572
2273.27	573.5
2274.21	557.5
2275.16	564
2276.1	554
2277.04	557.5
2277.98	552
2278.93	554.5
2279.87	549
2280.81	542.5
2281.75	535.5
2282.7	565.5
2283.64	559.5
2284.58	552.5
2285.52	557
2286.46	542
2287.4	547.5
2288.34	549
2289.29	547.5
2290.23	549
2291.17	541
2292.11	550.5
2293.05	551
2293.99	536.5
2294.93	529
2295.87	546
2296.81	550.5
2297.75	544
2298.69	542.5
2299.63	542
2300.57	531
2301.51	524
2302.44	543.5
2303.38	518
2304.32	544
2305.26	546.5
2306.2	531.5
2307.14	527.5
2308.08	532
2309.01	546
2309.95	533
2310.89	541
2311.83	517
2312.77	526
2313.7	543.5
2314.64	521.5
2315.58	530
2316.51	515.5
2317.45	524
2318.39	536
2319.32	508
2320.26	523
2321.2	520.5
2322.13	513.5
2323.07	521
2324	526.5
2324.94	533
2325.88	521
2326.81	510
2327.75	524.5
2328.68	513.5
2329.62	522.5
2330.55	510
2331.49	515
2332.42	527.5
2333.35	516
2334.29	522
2335.22	527.5
2336.16	511
2337.09	513
2338.02	513.5
2338.96	506
2339.89	520
2340.82	515
2341.76	509.5
2342.69	510
2343.62	516
2344.56	508
2345.49	512
2346.42	515.5
2347.35	511
2348.29	504
2349.22	493
2350.15	480
2351.08	503.5
2352.01	507
2352.94	489
2353.88	491
2354.81	509
2355.74	510.5
2356.67	496.5
2357.6	512
2358.53	498
2359.46	508
2360.39	500.5
2361.32	498
2362.25	488.5
2363.18	501
2364.11	495
2365.04	502.5
2365.97	503
2366.9	508
2367.83	493.5
2368.76	503.5
2369.69	478.5
2370.62	488.5
2371.55	479
2372.47	506
2373.4	487
2374.33	498
2375.26	472.5
2376.19	491.5
2377.11	484
2378.04	502.5
2378.97	488.5
2379.9	480
2380.83	479.5
2381.75	489.5
2382.68	484
2383.61	493.5
2384.53	503
2385.46	481.5
2386.39	501.5
2387.31	482.5
2388.24	475
2389.17	492
2390.09	487.5
2391.02	484.5
2391.94	475.5
2392.87	492.5
2393.79	477
2394.72	475.5
2395.64	468
2396.57	475
2397.49	483
2398.42	476
2399.34	470
2400.27	481
2401.19	483
2402.12	484
2403.04	486.5
2403.96	480
2404.89	479.5
2405.81	471.5
2406.74	474.5
2407.66	467
2408.58	469
2409.51	479
2410.43	470
2411.35	476
2412.27	486.5
2413.2	459.5
2414.12	479
2415.04	473
2415.96	459
2416.89	465
2417.81	473.5
2418.73	460
2419.65	459
2420.57	464
2421.49	461
2422.41	464.5
2423.34	470.5
2424.26	465
2425.18	467.5
2426.1	462
2427.02	457
2427.94	449
2428.86	472
2429.78	466
2430.7	461.5
2431.62	455.5
2432.54	450
2433.46	454
2434.38	452
2435.3	444.5
2436.22	447.5
2437.13	445.5
2438.05	443
2438.97	457.5
2439.89	460
2440.81	468
2441.73	464
2442.65	451.5
2443.56	447.5
2444.48	462
2445.4	454.5
2446.32	452
2447.24	455
2448.15	439
2449.07	440.5
2449.99	450
2450.9	457
2451.82	461
2452.74	449
2453.65	443
2454.57	449
2455.49	441
2456.4	444
2457.32	442
2458.23	451
2459.15	438
2460.07	450
2460.98	434
2461.9	449
2462.81	453
2463.73	435
2464.64	437.5
2465.56	444.5
2466.47	438.5
2467.39	446
2468.3	454
2469.21	425
2470.13	436
2471.04	436.5
2471.96	433
2472.87	447
2473.78	446.5
2474.7	438.5
2475.61	444.5
2476.52	430
2477.44	436
2478.35	439
2479.26	436.5
2480.17	442
2481.09	431.5
2482	434.5
2482.91	433
2483.82	443.5
2484.74	438
2485.65	427.5
2486.56	435
2487.47	442.5
2488.38	423
2489.29	423
2490.21	428.5
2491.12	425
2492.03	415.5
2492.94	429
2493.85	434
2494.76	426
2495.67	421.5
2496.58	424
2497.49	430
2498.4	422.5
2499.31	426
2500.22	442.5
2501.13	417.5
2502.04	428.5
2502.95	422
2503.86	430.5
2504.76	411.5
2505.67	418
2506.58	408.5
2507.49	417.5
2508.4	433
2509.31	410
2510.22	409
2511.12	407.5
2512.03	413
2512.94	426
2513.85	428.5
2514.76	419
2515.66	423.5
2516.57	419
2517.48	414.5
2518.38	413
2519.29	420
2520.2	409.5
2521.1	412.5
2522.01	400.5
2522.92	413
2523.82	402.5
2524.73	418
2525.64	418
2526.54	399
2527.45	408.5
2528.35	403
2529.26	405.5
2530.16	400
2531.07	412
2531.97	428
2532.88	411.5
2533.78	410
2534.69	416
2535.59	409
2536.5	401
2537.4	401.5
2538.31	396
2539.21	405.5
2540.11	400
2541.02	416.5
2541.92	410.5
2542.82	409.5
2543.73	394.5
2544.63	403
2545.53	401
2546.44	397
2547.34	400.5
2548.24	407
2549.14	415
2550.05	392
2550.95	400.5
2551.85	400
2552.75	405.5
2553.65	398.5
2554.56	400
2555.46	382
2556.36	386
2557.26	399
2558.16	404
2559.06	396.5
2559.96	398
2560.86	394
2561.76	395.5
2562.67	392.5
2563.57	395
2564.47	403
2565.37	392.5
2566.27	392.5
2567.17	393
2568.06	380
2568.96	383
2569.86	389.5
2570.76	390
2571.66	391
2572.56	394
2573.46	384.5
2574.36	382
2575.26	389.5
2576.16	392
2577.05	384
2577.95	376.5
2578.85	381.5
2579.75	376
2580.65	387
2581.54	384
2582.44	396
2583.34	385.5
2584.24	394.5
2585.13	372.5
2586.03	387
2586.93	377
2587.83	383
2588.72	375.5
2589.62	377.5
2590.51	374
2591.41	387.5
2592.31	381.5
2593.2	387.5
2594.1	380.5
2594.99	368
2595.89	378
2596.79	376
2597.68	383.5
2598.58	382
2599.47	376
2600.37	385.5
2601.26	377
2602.16	372.5
2603.05	374
2603.94	377
2604.84	372
2605.73	377.5
2606.63	364
2607.52	368
2608.42	379
2609.31	379
2610.2	379.5
2611.1	379
2611.99	363
2612.88	363
2613.78	375
2614.67	371
2615.56	367
2616.45	356
2617.35	372
2618.24	356
2619.13	382.5
2620.02	370.5
2620.91	370
2621.81	361
2622.7	366
2623.59	360
2624.48	379
2625.37	363
2626.26	376
2627.15	371
2628.04	353
2628.94	345
2629.83	357
2630.72	363.5
2631.61	370
2632.5	363.5
2633.39	356.5
2634.28	358
2635.17	347
2636.06	371
2636.95	358.5
2637.84	359
2638.73	342
2639.61	348
2640.5	347.5
2641.39	361
2642.28	356
2643.17	338
2644.06	341
2644.95	361
2645.84	347.5
2646.72	345.5
2647.61	342.5
2648.5	349
2649.39	350.5
2650.28	349
2651.16	361.5
2652.05	346.5
2652.94	356.5
2653.82	345.5
2654.71	351
2655.6	355.5
2656.49	350.5
2657.37	346
2658.26	352
2659.14	344
2660.03	346
2660.92	337
2661.8	336
2662.69	356
2663.57	354.5
2664.46	333
2665.35	343
2666.23	344
2667.12	350
2668	342.5
2668.89	350.5
2669.77	340
2670.66	347.5
2671.54	333
2672.42	328
2673.31	341
2674.19	334.5
2675.08	344
2675.96	341.5
2676.84	359
2677.73	347
2678.61	338.5
2679.49	331
2680.38	334
2681.26	335.5
2682.14	340.5
2683.03	338
2683.91	327.5
2684.79	335
2685.68	346.5
2686.56	335
2687.44	334.5
2688.32	327.5
2689.2	335.5
2690.09	334
2690.97	349.5
2691.85	331.5
2692.73	334.5
2693.61	326.5
2694.49	330.5
2695.37	340.5
2696.25	338.5
2697.14	333.5
2698.02	335.5
2698.9	337
2699.78	329
2700.66	333
2701.54	333.5
2702.42	333
2703.3	335
2704.18	314
2705.06	334.5
2705.94	345
2706.82	328.5
2707.7	334
2708.57	319.5
2709.45	336
2710.33	335
2711.21	337
2712.09	326
2712.97	325.5
2713.85	315
2714.72	315.5
2715.6	331
2716.48	327.5
2717.36	334
2718.24	335
2719.11	332.5
2719.99	313
2720.87	320
2721.75	329.5
2722.62	317.5
2723.5	325.5
2724.38	321
2725.25	328
2726.13	318
2727.01	329.5
2727.88	321.5
2728.76	319.5
2729.63	318.5
2730.51	331.5
2731.39	317
2732.26	308.5
2733.14	314
2734.01	322.5
2734.89	319.5
2735.76	321.5
2736.64	316.5
2737.51	333
2738.39	307.5
2739.26	325.5
2740.14	305.5
2741.01	317
2741.89	311
2742.76	319.5
2743.63	314
2744.51	309
2745.38	308.5
2746.26	318
2747.13	314.5
2748	305.5
2748.88	309.5
2749.75	318.5
2750.62	315.5
2751.5	303
2752.37	315.5
2753.24	310
2754.11	304
2754.99	318.5
2755.86	310
2756.73	317.5
2757.6	306.5
2758.47	300.5
2759.35	295.5
2760.22	311.5
2761.09	317.5
2761.96	313
2762.83	307
2763.7	298.5
2764.57	306.5
2765.44	308.5
2766.32	300
2767.19	308
2768.06	304.5
2768.93	295
2769.8	303
2770.67	303
2771.54	312
2772.41	306.5
2773.28	299.5
2774.15	301.5
2775.02	300
2775.89	301
2776.75	300.5
2777.62	304
2778.49	296
2779.36	296.5
2780.23	302.5
2781.1	299
2781.97	299.5
2782.84	305
2783.7	300.5
2784.57	300.5
2785.44	302
2786.31	287.5
2787.18	297.5
2788.04	298
2788.91	284.5
2789.78	292
2790.64	307
2791.51	299.5
2792.38	294
2793.24	296
2794.11	304.5
2794.98	279.5
2795.85	286.5
2796.71	289.5
2797.58	285.5
2798.44	289
2799.31	284
2800.18	268
2801.04	299.5
2801.91	290.5
2802.77	291.5
2803.64	291.25
2804.5	289
2805.37	283
2806.23	276.5
2807.1	287
2807.96	284.5
2808.83	299
2809.69	288
2810.55	285.5
2811.42	285
2812.28	282.5
2813.15	286
2814.01	283.5
2814.88	270
2815.74	279.5
2816.6	292
2817.46	291
2818.33	277
2819.19	272.5
2820.05	273
2820.92	294
2821.78	282
2822.64	274
2823.51	282.5
2824.37	285
2825.23	283
2826.09	278
2826.95	273.5
2827.81	284
2828.68	261.5
2829.54	278.5
2830.4	281
2831.26	281.5
2832.12	275
2832.98	285
2833.84	266
2834.71	294.5
2835.57	277
2836.43	287.5
2837.29	295
2838.15	283.5
2839.01	295.5
2839.87	274
2840.73	270.5
2841.59	272
2842.45	275
2843.31	275
2844.17	277
2845.02	283.5
2845.88	276.5
2846.74	279
2847.6	286.5
2848.46	284.5
2849.32	286
2850.18	289
2851.04	279.5
2851.9	281.5
2852.75	278.5
2853.61	294
2854.47	282
2855.33	279.5
2856.19	290.5
2857.04	274.5
2857.9	281
2858.76	277
2859.61	275.5
2860.47	282.5
2861.33	285
2862.19	299
2863.04	280
2863.9	281.5
2864.76	290
2865.61	284
2866.47	282.5
2867.32	281.5
2868.18	282.5
2869.04	280
2869.89	279.5
2870.75	274.5
2871.6	280
2872.46	288.5
2873.31	280.5
2874.17	298
2875.02	290
2875.88	291.5
2876.73	283
2877.59	295.5
2878.44	286
2879.3	290
2880.15	275.5
2881	277.5
2881.86	288
2882.71	280
2883.57	287
2884.42	279
2885.27	277
2886.13	287.5
2886.98	279.5
2887.83	278.5
2888.69	293
2889.54	280.5
2890.39	273.5
2891.24	288
2892.1	286.5
2892.95	291.5
2893.8	291.5
2894.65	291
2895.51	287
2896.36	289.5
2897.21	278
2898.06	282
2898.91	284
2899.76	280
2900.62	292
2901.47	291
2902.32	285.5
2903.17	290
2904.02	283.5
2904.87	290
2905.72	282.5
2906.57	288
2907.42	295.5
2908.27	285.5
2909.12	281
2909.97	297
2910.82	290
2911.67	290
2912.52	282
2913.37	281.5
2914.22	285.5
2915.07	289
2915.92	288.5
2916.77	288
2917.62	297.5
2918.47	285.5
2919.31	287
2920.16	285
2921.01	293.5
2921.86	303.5
2922.71	292
2923.55	299
2924.4	287.5
2925.25	298
2926.1	303
2926.94	309.5
2927.79	304
2928.64	317.5
2929.49	299.5
2930.33	305.5
2931.18	313.5
2932.03	300
2932.87	306
2933.72	296
2934.57	295
2935.41	309
2936.26	307
2937.11	312.5
2937.95	306.5
2938.8	313
2939.64	322
2940.49	302.5
2941.33	298.5
2942.18	300.5
2943.02	307.5
2943.87	298
2944.71	302
2945.56	289
2946.4	296
2947.25	280
2948.09	293
2948.94	284.5
2949.78	280.5
2950.63	288
2951.47	276.5
2952.31	278
2953.16	276
2954	287
2954.84	279.5
2955.69	269
2956.53	262
2957.37	267.5
2958.22	266
2959.06	276
2959.9	267
2960.75	270.5
2961.59	262
2962.43	263
2963.27	261.5
2964.11	252
2964.96	257.5
2965.8	258
2966.64	264.5
2967.48	270
2968.32	264
2969.16	276
2970.01	266
2970.85	268
2971.69	258.5
2972.53	266.5
2973.37	261
2974.21	249.5
2975.05	262.5
2975.89	258.5
2976.73	257.5
2977.57	252.5
2978.41	256.5
2979.25	249.5
2980.09	239
2980.93	262.5
2981.77	247.5
2982.61	252
2983.45	252.5
2984.29	243
2985.13	237.5
2985.97	248
2986.81	244
2987.65	240
2988.49	249.5
2989.32	250
2990.16	237
2991	227
2991.84	241
2992.68	233
2993.51	236
2994.35	238.5
2995.19	231.5
2996.03	233
2996.86	236
2997.7	227.5
2998.54	223
2999.38	232
