#Acq. time (s)=	5
#Accumulations=	5
#Range (cm-¹)=	100...3000
#Windows=	3
#Autofocus=	Off
#AutoExposure=	Off
#Spike filter=	Multiple accum.
#Delay time (s)=	0
#Binning=	1
#Readout mode=	Signal
#DeNoise=	Off
#ICS correction=	Off
#Dark correction=	Off
#Inst. Process=	Off
#Instrument=	LabRAM HR Evol
#Detector=	Syncerity OE
#Objective=	x100_VIS_LWD
#Grating=	600 (500nm)
#ND Filter=	100%
#Laser=	633nm_Edge
#Hole=	100.021
#Range=	Visible
#Project=	Omar
#Sample=	chi
#Site=	f
#Title=	nsno
#Remark=	
#Date=	12.09.2023 16:53
#Acquired=	12.09.2023 16:53:15
101.026	15260.5
102.309	15052
103.592	14936
104.875	14963
106.158	14858.5
107.441	14765
108.723	14764.5
110.005	14575.5
111.289	14526.5
112.571	14490
113.852	14388.5
115.134	14291
116.415	14201
117.696	14148.5
118.976	14134.5
120.257	14111.5
121.537	14079
122.817	13986.5
124.097	13985
125.377	13908.5
126.656	13827
127.936	13827.5
129.215	13708
130.493	13714
131.772	13628
133.049	13566.5
134.327	13563
135.605	13464.5
136.883	13375
138.161	13340
139.438	13300.5
140.715	13257
141.992	13286.5
143.269	13026.5
144.545	13071.5
145.82	12898
147.096	13055
148.372	12906
149.648	12903.5
150.924	12848
152.199	12827.5
153.472	12771
154.747	12723
156.022	12770.5
157.296	12644.5
158.571	12657.5
159.843	12629.5
161.117	12616.5
162.391	12566
163.664	12484
164.937	12477
166.209	12425.5
167.482	12358.5
168.754	12351.5
170.025	12306.5
171.297	12254.5
172.569	12206
173.841	12210.5
175.111	12225
176.383	12149.5
177.654	12084
178.923	12003
180.194	11946
181.464	11917
182.733	12009
184.003	11999.5
185.273	11919.5
186.542	12002
187.811	11911
189.079	11923.5
190.348	11950
191.617	11963.5
192.884	12036
194.152	12051
195.419	12087
196.687	11991.5
197.955	12111.5
199.221	12091.5
200.489	12162.5
201.755	12066.5
203.022	12152.5
204.287	12150
205.554	12111.5
206.818	12154
208.085	12199
209.349	12173
210.615	12186
211.879	12186.5
213.144	12185.5
214.408	12143.5
215.673	12180.5
216.936	12188
218.201	12138
219.464	12184.5
220.728	12229
221.99	12211.5
223.253	12097.5
224.516	12191.5
225.778	12152.5
227.041	12183.5
228.303	12168
229.564	12229
230.826	12228
232.087	12301
233.348	12243
234.61	12295
235.87	12317
237.13	12385
238.391	12359.5
239.651	12335
240.91	12428.5
242.171	12435
243.43	12443.5
244.689	12466.5
245.949	12538.5
247.207	12447.5
248.465	12505.5
249.723	12531
250.983	12540.5
252.24	12535
253.498	12553.5
254.755	12622.5
256.013	12575.5
257.27	12556.5
258.526	12544.5
259.783	12581
261.039	12468
262.296	12576.5
263.552	12492
264.808	12494.5
266.063	12502
267.318	12430
268.573	12463
269.828	12323.5
271.084	12393
272.338	12352.5
273.592	12319
274.846	12354.5
276.1	12256.5
277.353	12386
278.607	12417.5
279.86	12386.5
281.113	12372
282.365	12428
283.619	12488
284.872	12445
286.124	12510.5
287.376	12466.5
288.627	12491.5
289.879	12600.5
291.13	12699
292.381	12739.5
293.632	12663
294.883	12710.5
296.133	12744
297.384	12793.5
298.634	12775
299.883	12846.5
301.133	12787.5
302.381	12887
303.63	12961
304.879	12878
306.128	12917.5
307.377	12984
308.625	12885.5
309.874	13065
311.122	12960.5
312.37	12996
313.617	13016.5
314.863	12999.5
316.111	12995.5
317.358	12993
318.604	12980
319.851	12944.5
321.098	12910.5
322.342	12927.5
323.588	12821.5
324.834	12888
326.08	12847.5
327.325	12746.5
328.569	12778
329.814	12706.5
331.059	12709
332.304	12715.5
333.548	12740.5
334.791	12744
336.035	12656.5
337.279	12633.5
338.521	12601.5
339.765	12677
341.008	12683.5
342.251	12727
343.492	12763.5
344.735	12726
345.977	12747
347.218	12752.5
348.46	12807
349.702	12767
350.942	12802
352.184	12818.5
353.425	12789
354.665	12847
355.905	12874
357.145	12877
358.385	12929
359.625	12851
360.864	12811.5
362.104	12929
363.342	12874.5
364.581	12898.5
365.819	12939
367.058	12841.5
368.296	12867
369.534	12818.5
370.771	12933.5
372.01	12856
373.246	12887
374.484	12933
375.72	12842.5
376.958	12818
378.194	12799.5
379.431	12800.5
380.666	12839.5
381.903	12754.5
383.138	12812.5
384.374	12774.5
385.609	12822
386.845	12861.5
388.079	12846
389.313	12691
390.548	12810
391.782	12800.5
393.016	12734.5
394.25	12783
395.483	12793.5
396.718	12737.5
397.95	12741.5
399.183	12759
400.416	12703.5
401.648	12839.5
402.88	12819
404.113	12888.5
405.345	12829
406.576	12921
407.807	12990
409.04	13041.5
410.27	12983.5
411.501	13060
412.731	13118.5
413.963	13042.5
415.193	13153.5
416.422	13153.5
417.652	13173
418.883	13236
420.112	13221
421.341	13274.5
422.569	13217.5
423.798	13287
425.028	13324.5
426.256	13366
427.484	13286
428.711	13383.5
429.939	13394.5
431.166	13398.5
432.394	13529
433.622	13447
434.849	13470
436.075	13522.5
437.302	13513
438.528	13523
439.754	13547.5
440.98	13485.5
442.205	13511.5
443.431	13509
444.656	13441
445.881	13462.5
447.106	13514.5
448.33	13536
449.555	13460
450.779	13458.5
452.003	13437
453.227	13435
454.45	13473.5
455.674	13374
456.897	13393.5
458.12	13390
459.343	13302.5
460.566	13367.5
461.788	13264.5
463.01	13355
464.232	13336.5
465.454	13277.5
466.676	13267
467.897	13299.5
469.119	13359.5
470.34	13312.5
471.559	13356.5
472.78	13347.5
474.001	13310
475.221	13273.5
476.441	13344.5
477.661	13368
478.879	13291.5
480.099	13315
481.318	13259
482.537	13402.5
483.756	13368.5
484.974	13410
486.192	13332.5
487.411	13360.5
488.629	13498
489.847	13410
491.063	13413
492.281	13453
493.498	13422.5
494.714	13445
495.931	13408.5
497.148	13499
498.365	13481
499.58	13474
500.796	13453.5
502.012	13566
503.226	13520.5
504.442	13558
505.657	13488.5
506.871	13506
508.086	13551.5
509.3	13506.5
510.515	13520
511.729	13487
512.942	13468
514.156	13518.5
515.369	13470
516.582	13502
517.796	13486
519.008	13517
520.221	13417.5
521.433	13473.5
522.645	13454.5
523.857	13454
525.069	13451.5
526.28	13356.5
527.492	13407.5
528.702	13457.5
529.914	13405.5
531.124	13420
532.335	13321.5
533.545	13432.5
534.756	13347.5
535.965	13294.5
537.175	13312
538.384	13337
539.593	13304
540.803	13274
542.011	13282.5
543.221	13304.5
544.429	13245
545.636	13364.5
546.845	13297.5
548.052	13306.5
549.261	13257
550.468	13216
551.675	13263
552.883	13311
554.089	13250.5
555.295	13284.5
556.503	13217
557.709	13273
558.914	13261
560.12	13267
561.326	13260.5
562.531	13273
563.736	13340.5
564.941	13354
566.147	13281.5
567.351	13281
568.555	13278
569.759	13275
570.964	13320.5
572.168	13271.5
573.371	13260.5
574.574	13246.5
575.777	13284.5
576.981	13266.5
578.184	13246.5
579.386	13272.5
580.588	13339
581.79	13371
582.992	13291.5
584.194	13320
585.395	13347
586.598	13356
587.799	13365.5
589	13362
590.201	13313
591.401	13431.5
592.601	13359.5
593.801	13273
595.001	13379.5
596.201	13435.5
597.401	13367.5
598.6	13459
599.799	13403.5
600.998	13406
602.197	13391
603.395	13479
604.594	13438.5
605.792	13496
606.99	13516.5
608.188	13428.5
609.386	13448.5
610.583	13488
611.78	13509.5
612.977	13545.5
614.174	13605.5
615.371	13537
616.566	13551
617.762	13574
618.958	13636
620.154	13613
621.35	13661
622.546	13669
623.741	13636
624.935	13638.5
626.13	13672.5
627.325	13686.5
628.519	13703
629.714	13746
630.908	13818
632.101	13811.5
633.295	13788
634.488	13766
635.682	13890
636.874	13821.5
638.067	13921.5
639.26	13822
640.453	13906
641.644	13843.5
642.836	13941
644.028	13954
645.219	13944
646.411	13966
647.602	14002.5
648.792	13904.5
649.984	13950.5
651.175	13892
652.364	13964
653.555	13915.5
654.745	13918.5
655.934	13917.5
657.124	13999.5
658.314	13915
659.503	13930
660.692	13847.5
661.88	13860
663.07	13899.5
664.257	13863
665.446	13889
666.635	13776.5
667.822	13917.5
669.01	13765.5
670.197	13859
671.384	13826
672.571	13812
673.758	13825
674.944	13693.5
676.131	13737
677.317	13714
678.502	13687.5
679.689	13742
680.874	13652
682.06	13657.5
683.245	13643.5
684.431	13729.5
685.615	13729
686.799	13598.5
687.984	13635
689.168	13703
690.353	13672.5
691.536	13645
692.719	13616.5
693.904	13597
695.086	13585
696.269	13556
697.453	13482.5
698.635	13571.5
699.817	13640.5
701	13534
702.182	13559.5
703.364	13580.5
704.545	13527.5
705.727	13573
706.908	13540.5
708.089	13561.5
709.27	13586.5
710.451	13615
711.632	13560
712.812	13602.5
713.991	13549
715.172	13593.5
716.352	13593.5
717.531	13493.5
718.71	13618.5
719.889	13627
721.068	13564
722.248	13619.5
723.426	13587.5
724.604	13500.5
725.782	13643
726.96	13599.5
728.138	13618
729.315	13679
730.492	13567.5
731.669	13536
732.846	13612.5
734.024	13588.5
735.201	13603
736.377	13634
737.553	13572.5
738.729	13552.5
739.905	13608
741.081	13542.5
742.256	13622.5
743.431	13548
744.606	13589
745.781	13622
746.956	13504.5
748.13	13516
749.303	13556.5
750.477	13502.5
751.651	13519.5
752.825	13472.5
753.999	13584.5
755.172	13606.5
756.345	13517.5
757.518	13555
758.691	13555
759.864	13478
761.035	13534
762.207	13530.5
763.379	13577
764.551	13446
765.723	13426.5
766.894	13457
768.064	13474.5
769.236	13533
770.407	13447
771.577	13410.5
772.748	13388.5
773.917	13398.5
775.088	13367
776.258	13370.5
777.427	13352.5
778.596	13312
779.765	13396.5
780.935	13468.5
782.104	13430.5
783.272	13333.5
784.44	13314
785.609	13328.5
786.776	13465.5
787.944	13378.5
789.113	13264.5
790.279	13369.5
791.447	13301
792.613	13282.5
793.78	13321
794.948	13344.5
796.113	13329
797.28	13348.5
798.445	13316.5
799.612	13379
800.778	13352.5
801.943	13343
803.109	13344
804.273	13406.5
805.439	13386.5
806.603	13342
807.768	13347.5
808.932	13436
810.096	13352.5
811.26	13413
812.424	13334.5
813.587	13402
814.751	13481.5
815.914	13379.5
817.078	13410
818.24	13504.5
819.402	13424
820.565	13431.5
821.727	13498
822.889	13388
824.051	13472.5
825.212	13415
826.374	13406
827.535	13499
828.697	13414
829.857	13470.5
831.018	13470
832.179	13502
833.339	13464
834.499	13456.5
835.659	13476
836.819	13498
837.978	13492
839.137	13477.5
840.297	13477.5
841.456	13560
842.614	13565.5
843.772	13480
844.932	13561
846.09	13494
847.247	13547
848.405	13514.5
849.562	13482
850.721	13538.5
851.878	13570
853.034	13548.5
854.191	13573.5
855.348	13573.5
856.504	13513
857.661	13643
858.817	13609
859.973	13669
861.129	13547
862.284	13537.5
863.439	13596
864.594	13565.5
865.749	13526
866.904	13544.5
868.058	13581.5
869.212	13525
870.367	13470.5
871.522	13547
872.676	13495.5
873.829	13443
874.983	13490.5
876.136	13445.5
877.289	13409
878.442	13383
879.593	13399
880.746	13329
881.898	13448
883.05	13355.5
884.202	13379
885.354	13319.5
886.506	13279.5
887.657	13283.5
888.808	13217.5
889.96	13298.5
891.11	13312
892.261	13283
893.41	13231
894.561	13198
895.711	13152.5
896.861	13202
898.011	13177
899.161	13202
900.309	13208
901.458	13252
902.607	13172
903.756	13144
904.904	13155.5
906.052	13091.5
907.201	13083
908.349	13133.5
909.496	13022
910.644	13084.5
911.791	13016.5
912.939	13087
914.085	13067.5
915.232	13065
916.379	13104
917.525	13126
918.671	13027.5
919.818	13049
920.963	13040.5
922.109	13066.5
923.255	13037
924.399	12932
925.545	12948.5
926.689	12978
927.834	12946.5
928.979	12946
930.123	12971
931.268	12987
932.411	12943.5
933.555	13056
934.698	13044.5
935.842	12952
936.985	12987
938.128	13017.5
939.271	12947
940.414	12957.5
941.556	13001.5
942.699	13002.5
943.84	13006.5
944.983	13008
946.124	13045.5
947.266	12989.5
948.407	13039
949.547	12999
950.689	13049
951.829	13004.5
952.971	13025.5
954.111	13042.5
955.25	13035
956.391	13055.5
957.531	13074.5
958.67	13076.5
959.81	13090.5
960.949	13123.5
962.088	13092
963.227	13161
964.366	13084
965.504	13184.5
966.643	13083.5
967.781	13011.5
968.919	13088.5
970.056	13034.5
971.195	13053
972.332	13071.5
973.469	13075
974.605	13146
975.743	13050
976.88	13118.5
978.016	13035.5
979.152	13090.5
980.288	13080
981.423	13107
982.56	13089.5
983.696	13057.5
984.831	13035
985.966	12984.5
987.101	12974
988.235	12997
989.37	12974.5
990.504	13048.5
991.638	13023
992.773	13020.5
993.907	13037.5
995.041	12971
996.174	13074
997.307	13093.5
998.44	13056
999.573	13086.5
1000.71	13059
1001.84	12962
1002.97	13005
1004.1	12976
1005.24	12946
1006.37	12948.5
1007.5	12941
1008.63	13026
1009.76	12941
1010.89	12943.5
1012.02	12931
1013.15	12914
1014.28	12986.5
1015.41	12898.5
1016.54	12973.5
1017.67	13011
1018.8	12946
1019.93	12969.5
1021.06	12992.5
1022.19	12964.5
1023.32	12936
1024.45	12970.5
1025.58	12987
1026.71	12964
1027.84	12987.5
1028.96	13094.5
1030.09	12985
1031.22	12980
1032.35	13103
1033.47	13011.5
1034.6	13059.5
1035.73	13096.5
1036.86	13075.5
1037.98	13101
1039.11	13094
1040.23	13057.5
1041.36	13033.5
1042.49	13137.5
1043.61	13152
1044.74	13110
1045.86	13110
1046.99	13183
1048.11	13091.5
1049.24	13129
1050.36	13115
1051.49	13132
1052.61	13179
1053.74	13161.5
1054.86	13159
1055.98	13162
1057.11	13182.5
1058.23	13204
1059.35	13154
1060.48	13248
1061.6	13279
1062.72	13175.5
1063.84	13249
1064.97	13220
1066.09	13195
1067.21	13248
1068.33	13191.5
1069.45	13280
1070.57	13224
1071.7	13196.5
1072.82	13221
1073.94	13264
1075.06	13244
1076.18	13234
1077.3	13203
1078.42	13238.5
1079.54	13249
1080.66	13256.5
1081.78	13195
1082.9	13178.5
1084.02	13157.5
1085.14	13220.5
1086.25	13191
1087.37	13167.5
1088.49	13186
1089.61	13208.5
1090.73	13198.5
1091.84	13157
1092.96	13154.5
1094.08	13127
1095.2	13151.5
1096.31	13138
1097.43	13092
1098.55	13126.5
1099.66	13168
1100.78	13139.5
1101.9	13120.5
1103.01	13112.5
1104.13	13088
1105.25	13050
1106.36	13074
1107.48	13182.5
1108.59	13122
1109.71	13063
1110.82	13162.5
1111.93	13099.5
1113.05	13170
1114.16	13194.5
1115.28	13081
1116.39	13171
1117.51	13075
1118.62	13185.5
1119.73	13118.5
1120.85	13129
1121.96	13121.5
1123.07	13145.5
1124.18	13211.5
1125.3	13200
1126.41	13182.5
1127.52	13262
1128.63	13189.5
1129.74	13261.5
1130.85	13129.5
1131.97	13362.5
1133.08	13289
1134.19	13359.5
1135.3	13347
1136.41	13435
1137.52	13330.5
1138.63	13361
1139.74	13465.5
1140.85	13439
1141.96	13474.5
1143.07	13508.5
1144.18	13497.5
1145.29	13535.5
1146.4	13584
1147.51	13694.5
1148.61	13772
1149.72	13654.5
1150.83	13754
1151.94	13757
1153.05	13755.5
1154.15	13827
1155.26	13868.5
1156.37	13986.5
1157.48	13939.5
1158.58	14008
1159.69	13941
1160.8	13934
1161.9	14057.5
1163.01	14062
1164.11	14071.5
1165.22	14106.5
1166.33	14057.5
1167.43	14135.5
1168.54	14168
1169.64	14135
1170.75	14203.5
1171.85	14157.5
1172.96	14216.5
1174.06	14211.5
1175.17	14169
1176.27	14196.5
1177.37	14187.5
1178.48	14172.5
1179.58	14197.5
1180.68	14173
1181.79	14235
1182.89	14145.5
1183.99	14187
1185.1	14142
1186.2	14055
1187.3	14156
1188.4	14195
1189.5	14143.5
1190.61	14106
1191.71	14155.5
1192.81	14137.5
1193.91	14111
1195.01	14141.5
1196.11	14054.2
1197.21	14141.5
1198.31	14061.2
1199.42	13975.5
1200.51	13933.9
1201.61	13878
1202.72	13911.1
1203.81	13829.3
1204.91	13822.7
1206.01	13705.7
1207.11	13615.4
1208.21	13712.3
1209.31	13670.7
1210.41	13583
1211.51	13514.6
1212.61	13482
1213.7	13457.1
1214.8	13410.1
1215.9	13362.2
1217	13297.4
1218.09	13295.9
1219.19	13289.1
1220.29	13223.1
1221.38	13174
1222.48	13122.4
1223.58	13060.9
1224.67	12975.1
1225.77	13023.1
1226.87	13014
1227.96	12911.8
1229.06	12883.2
1230.15	12907.7
1231.25	12858.3
1232.34	12906.1
1233.44	12832.5
1234.53	12814.3
1235.63	12736.2
1236.72	12797.9
1237.81	12717.4
1238.91	12683.7
1240	12656
1241.1	12566.4
1242.19	12568
1243.28	12553.6
1244.38	12450.5
1245.47	12457.2
1246.56	12415.1
1247.65	12438.1
1248.75	12409.8
1249.84	12372
1250.93	12327.9
1252.02	12301.6
1253.11	12320.7
1254.21	12257.2
1255.3	12269.1
1256.39	12267.4
1257.48	12227.7
1258.57	12107.1
1259.66	12101.8
1260.75	12092.7
1261.84	12094.7
1262.93	12087.5
1264.02	12005.8
1265.11	12012.2
1266.2	11952.7
1267.29	11936.8
1268.38	11928.5
1269.47	11893.3
1270.56	11860.3
1271.65	11860.4
1272.73	11799.5
1273.82	11737
1274.91	11770.9
1276	11739.3
1277.09	11672.6
1278.17	11614.7
1279.26	11561.2
1280.35	11562.7
1281.43	11547.3
1282.52	11534.6
1283.61	11459.7
1284.69	11445.4
1285.78	11386.3
1286.87	11419.6
1287.95	11394.3
1289.04	11335.6
1290.13	11343.8
1291.21	11249.1
1292.3	11248.2
1293.38	11198.4
1294.47	11166.5
1295.55	11155.7
1296.64	11044
1297.72	11053.1
1298.8	11036.9
1299.89	10922.3
1300.97	10896.8
1302.06	10867.4
1303.14	10760.1
1304.22	10725.1
1305.31	10667.4
1306.39	10660.3
1307.34	10630
1308.43	10693
1309.52	10547
1310.6	10691.5
1311.69	10639
1312.78	10693.5
1313.87	10656.5
1314.96	10568.5
1316.04	10583
1317.13	10568.5
1318.21	10561
1319.3	10571.5
1320.39	10616
1321.47	10627
1322.56	10626.5
1323.65	10602.5
1324.73	10547.5
1325.82	10567
1326.9	10563.5
1327.99	10619.5
1329.07	10666.5
1330.16	10604
1331.24	10570.5
1332.32	10595.5
1333.41	10583.5
1334.49	10573
1335.58	10578.5
1336.66	10534
1337.74	10531.5
1338.83	10506.5
1339.91	10502.5
1340.99	10618.5
1342.08	10510
1343.16	10526.5
1344.24	10513
1345.32	10468.5
1346.41	10432
1347.49	10396
1348.57	10478
1349.65	10435
1350.73	10449
1351.81	10422.5
1352.9	10432
1353.98	10427.5
1355.06	10405.5
1356.14	10445.5
1357.22	10377.5
1358.3	10366.5
1359.38	10404
1360.46	10291
1361.54	10339.5
1362.62	10341.5
1363.7	10370
1364.78	10256
1365.85	10295.5
1366.93	10326
1368.01	10340
1369.09	10282.5
1370.17	10229
1371.25	10095
1372.33	10218
1373.4	10164
1374.48	10130
1375.56	10155
1376.64	10111.5
1377.71	10115
1378.79	10066.5
1379.87	10082.5
1380.94	10108.5
1382.02	10085.5
1383.1	9996.5
1384.17	9997.5
1385.25	9941.5
1386.32	9976.5
1387.4	9949
1388.47	9929.5
1389.55	9892.5
1390.63	9878.5
1391.7	9919
1392.77	9777
1393.85	9822.5
1394.92	9770
1396	9778
1397.07	9803.5
1398.15	9750
1399.22	9788.5
1400.29	9802
1401.37	9705
1402.44	9692
1403.51	9686
1404.59	9606
1405.66	9706.5
1406.73	9658.5
1407.8	9577
1408.87	9654
1409.95	9605.5
1411.02	9552.5
1412.09	9508.5
1413.16	9530.5
1414.23	9524.5
1415.3	9483.5
1416.38	9470
1417.45	9445
1418.52	9428.5
1419.59	9420
1420.66	9461
1421.73	9413
1422.8	9354
1423.87	9371.5
1424.94	9387
1426.01	9366.5
1427.08	9350
1428.15	9375
1429.21	9318
1430.28	9323.5
1431.35	9330
1432.42	9350.5
1433.49	9321
1434.56	9309.5
1435.63	9307.5
1436.69	9226.5
1437.76	9272.5
1438.83	9341.5
1439.89	9295
1440.96	9255
1442.03	9328.5
1443.1	9223
1444.16	9228
1445.23	9228
1446.3	9227
1447.36	9264
1448.43	9234
1449.49	9216
1450.56	9174.5
1451.62	9176.5
1452.69	9194.5
1453.75	9223
1454.82	9158.5
1455.88	9167
1456.95	9191.5
1458.01	9134
1459.08	9116
1460.14	9122
1461.2	9174.5
1462.27	9183.5
1463.33	9100
1464.4	9176.5
1465.46	9084
1466.52	9131
1467.58	9095
1468.65	9173
1469.71	9142.5
1470.77	9145
1471.83	9125
1472.9	9112.5
1473.96	8979
1475.02	9067.5
1476.08	9089
1477.14	9129
1478.2	9080
1479.27	9111.5
1480.33	9159
1481.39	9075
1482.45	9101.5
1483.51	9118
1484.57	9197.5
1485.63	9187
1486.69	9149.5
1487.75	9162.5
1488.81	9123.5
1489.87	9162.5
1490.93	9157
1491.99	9151
1493.04	9160
1494.1	9263
1495.16	9202.5
1496.22	9187.5
1497.28	9310
1498.34	9232
1499.39	9244.5
1500.45	9245.5
1501.51	9230
1502.57	9329.5
1503.62	9259
1504.68	9188.5
1505.74	9302
1506.79	9289.5
1507.85	9247
1508.91	9297
1509.96	9304.5
1511.02	9277
1512.07	9253.5
1513.13	9343.5
1514.19	9309.5
1515.24	9308.5
1516.3	9297
1517.35	9316
1518.41	9315.5
1519.46	9256.5
1520.52	9307
1521.57	9286
1522.62	9350
1523.68	9320.5
1524.73	9342.5
1525.79	9351
1526.84	9345
1527.89	9314.5
1528.95	9248.5
1530	9340.5
1531.05	9329
1532.1	9285.5
1533.16	9338.5
1534.21	9358
1535.26	9272.5
1536.31	9336.5
1537.37	9344
1538.42	9347.5
1539.47	9313.5
1540.52	9334
1541.57	9293.5
1542.62	9257
1543.67	9288.5
1544.72	9347
1545.78	9342.5
1546.83	9330
1547.88	9283
1548.93	9277
1549.98	9306
1551.03	9354
1552.07	9276
1553.12	9265.5
1554.17	9362
1555.22	9321.5
1556.27	9297.5
1557.32	9277
1558.37	9316.5
1559.42	9323.5
1560.47	9343
1561.51	9250.5
1562.56	9261.5
1563.61	9305
1564.66	9224
1565.7	9277.5
1566.75	9325
1567.8	9357.5
1568.85	9315.5
1569.89	9354.5
1570.94	9332.5
1571.98	9285
1573.03	9195
1574.08	9285
1575.12	9307.5
1576.17	9264.5
1577.21	9304
1578.26	9233
1579.31	9282.5
1580.35	9273
1581.4	9257.5
1582.44	9300.5
1583.49	9242
1584.53	9218
1585.57	9207.5
1586.62	9159.5
1587.66	9273
1588.71	9181
1589.75	9196
1590.79	9057.5
1591.84	9087
1592.88	9075
1593.92	9015
1594.97	9059
1596.01	9071
1597.05	8963
1598.09	8950.5
1599.14	8963
1600.18	8917
1601.22	8871
1602.26	8921.5
1603.3	8843.5
1604.34	8749.5
1605.38	8771
1606.43	8656
1607.47	8589.5
1608.51	8599.5
1609.55	8493.5
1610.59	8461.5
1611.63	8461.5
1612.67	8336
1613.71	8271
1614.75	8197
1615.79	8146
1616.83	8145.5
1617.87	8066.5
1618.91	7998
1619.94	7968
1620.98	7901.5
1622.02	7871
1623.06	7780.5
1624.1	7735.5
1625.14	7688
1626.17	7587.5
1627.21	7609
1628.25	7470.5
1629.29	7448.5
1630.32	7427
1631.36	7333.5
1632.4	7260
1633.43	7199.5
1634.47	7147.5
1635.51	7055.5
1636.54	7065
1637.58	6983
1638.62	6955
1639.65	6906
1640.69	6814.5
1641.72	6720
1642.76	6652
1643.79	6581.5
1644.83	6600.5
1645.86	6555
1646.9	6443.5
1647.93	6363.5
1648.97	6404.5
1650	6336.5
1651.04	6305.5
1652.07	6296.5
1653.1	6245
1654.14	6203
1655.17	6127.5
1656.2	6111
1657.24	6076.5
1658.27	6028
1659.3	5994
1660.34	5913.5
1661.37	5908.5
1662.4	5872.5
1663.43	5842
1664.46	5828
1665.5	5764.5
1666.53	5753.5
1667.56	5718
1668.59	5662
1669.62	5677.5
1670.65	5630
1671.68	5575
1672.71	5608
1673.74	5539
1674.77	5510
1675.8	5443
1676.83	5448
1677.86	5433
1678.89	5434
1679.92	5417
1680.95	5380
1681.98	5387
1683.01	5399
1684.04	5360.5
1685.07	5338.5
1686.1	5299
1687.13	5251
1688.15	5230
1689.18	5188.5
1690.21	5222.5
1691.24	5241.5
1692.27	5159
1693.29	5154
1694.32	5152
1695.35	5143
1696.37	5140
1697.4	5100
1698.43	5028
1699.45	5077
1700.48	5081.5
1701.51	5006
1702.53	5018
1703.56	5048.5
1704.58	4997
1705.61	4969
1706.64	4941
1707.66	4970
1708.69	4965.5
1709.71	4933.5
1710.73	4917.5
1711.76	4884.5
1712.78	4880
1713.81	4862
1714.83	4876
1715.86	4871
1716.88	4864.5
1717.9	4857
1718.93	4803
1719.95	4742.5
1720.97	4749.5
1722	4751
1723.02	4755.5
1724.04	4799
1725.06	4733.5
1726.09	4748.5
1727.11	4758.5
1728.13	4706.5
1729.15	4715.5
1730.17	4673
1731.2	4689.5
1732.22	4679.5
1733.24	4659.5
1734.26	4636
1735.28	4581
1736.3	4618.5
1737.32	4624
1738.34	4637
1739.36	4639
1740.38	4601
1741.4	4577
1742.42	4593
1743.44	4571.5
1744.46	4553
1745.48	4575.5
1746.5	4544.5
1747.52	4528.5
1748.54	4499.5
1749.56	4488.5
1750.57	4469.5
1751.59	4496
1752.61	4464.5
1753.63	4448
1754.65	4511.5
1755.66	4426.5
1756.68	4454
1757.7	4433
1758.72	4386
1759.73	4412
1760.75	4394
1761.77	4381.5
1762.78	4379
1763.8	4343
1764.82	4345
1765.83	4383
1766.85	4359.5
1767.86	4336
1768.88	4329.5
1769.9	4305.5
1770.91	4294
1771.93	4327
1772.94	4285
1773.96	4307
1774.97	4301
1775.99	4317.5
1777	4290.5
1778.01	4247.5
1779.03	4223
1780.04	4194
1781.06	4272.5
1782.07	4216.5
1783.08	4227.5
1784.1	4188.5
1785.11	4228
1786.12	4223
1787.14	4184
1788.15	4214
1789.16	4211
1790.17	4162
1791.18	4170.5
1792.2	4129.5
1793.21	4123.5
1794.22	4109.5
1795.23	4102
1796.24	4093.5
1797.26	4098
1798.27	4075.5
1799.28	4102
1800.29	4111.5
1801.3	4071.5
1802.31	4101.5
1803.32	4065
1804.33	4056.5
1805.34	4039.5
1806.35	4041
1807.36	4068.5
1808.37	3955
1809.38	4038
1810.39	3967.5
1811.4	3959.5
1812.4	4013
1813.41	4027
1814.42	3971
1815.43	3970
1816.44	3940
1817.45	4022.5
1818.45	3953
1819.46	3931.5
1820.47	3909.5
1821.48	3944.5
1822.49	3875
1823.49	3903
1824.5	3911
1825.51	3898.5
1826.51	3896
1827.52	3874.5
1828.53	3853
1829.53	3854.5
1830.54	3857
1831.54	3874
1832.55	3822
1833.56	3768.5
1834.56	3829.5
1835.57	3844
1836.57	3779.5
1837.58	3829.5
1838.58	3807.5
1839.59	3784.5
1840.59	3797
1841.59	3774
1842.6	3738
1843.6	3734.5
1844.61	3753
1845.61	3768
1846.61	3709
1847.62	3725
1848.62	3701
1849.62	3688.5
1850.63	3703.5
1851.63	3685.5
1852.63	3695.5
1853.64	3709
1854.64	3670
1855.64	3642
1856.64	3631
1857.64	3664.5
1858.65	3691
1859.65	3640
1860.65	3634
1861.65	3603.5
1862.65	3597.5
1863.65	3620
1864.65	3593.5
1865.65	3596.5
1866.65	3597
1867.65	3558
1868.65	3558
1869.65	3560
1870.65	3603
1871.65	3540
1872.65	3545.5
1873.65	3568.5
1874.65	3541.5
1875.65	3544.5
1876.65	3540
1877.65	3531
1878.65	3494.5
1879.65	3515.5
1880.65	3500
1881.64	3482.5
1882.64	3481.5
1883.64	3495.5
1884.64	3478
1885.63	3464.5
1886.63	3452.5
1887.63	3485.5
1888.63	3507.5
1889.62	3451.5
1890.62	3518.5
1891.62	3460.5
1892.61	3458
1893.61	3422.5
1894.61	3439
1895.6	3392
1896.6	3439
1897.59	3440.5
1898.59	3418.5
1899.58	3396
1900.58	3394.5
1901.57	3409
1902.57	3410.5
1903.56	3409.5
1904.56	3425
1905.55	3427.5
1906.55	3357
1907.54	3387.5
1908.54	3393
1909.53	3351
1910.52	3359
1911.52	3350
1912.51	3383
1913.5	3357
1914.5	3354.5
1915.49	3349
1916.48	3328
1917.48	3350.5
1918.47	3349.5
1919.46	3321
1920.45	3317
1921.44	3325
1922.44	3323
1923.43	3319
1924.42	3342
1925.41	3310.5
1926.4	3331
1927.39	3300
1928.38	3289
1929.38	3306
1930.37	3279
1931.36	3272.5
1932.35	3284
1933.34	3252
1934.33	3242.5
1935.32	3249
1936.31	3271
1937.3	3267.5
1938.29	3223.5
1939.28	3236.5
1940.26	3234.5
1941.25	3244.5
1942.24	3212.5
1943.23	3271
1944.22	3214.5
1945.21	3242
1946.2	3226
1947.18	3177
1948.17	3205.5
1949.16	3165
1950.15	3144.5
1951.13	3124
1952.12	3142
1953.11	3172
1954.1	3168
1955.08	3105
1956.07	3136.5
1957.06	3144.5
1958.04	3142
1959.03	3138.5
1960.01	3156
1961	3120.5
1961.99	3150
1962.97	3139
1963.96	3116
1964.94	3106.5
1965.93	3099
1966.91	3078.5
1967.9	3067
1968.88	3094.5
1969.87	3048.5
1970.85	3094.5
1971.84	3033.5
1972.82	3058.5
1973.81	3056
1974.79	3089
1975.77	3055
1976.76	3030.5
1977.74	3038
1978.72	3024
1979.71	3044
1980.69	3037.5
1981.67	3003.5
1982.65	3018
1983.64	2995.5
1984.62	3005
1985.6	3006
1986.58	3025
1987.56	2984.5
1988.55	3002.5
1989.53	2969
1990.51	2988.5
1991.49	2968
1992.47	2957.5
1993.45	2976
1994.43	2946
1995.41	2988.5
1996.39	2940.5
1997.37	2945
1998.36	2912
1999.34	2921.5
2000.31	2941.5
2001.29	2929
2002.27	2903
2003.25	2917
2004.23	2935
2005.21	2934
2006.19	2874
2007.17	2919.5
2008.15	2910
2009.13	2904.5
2010.11	2900.5
2011.08	2897.5
2012.06	2879.5
2013.04	2880.5
2014.02	2875.5
2015	2910.5
2015.97	2907
2016.95	2865
2017.93	2844.5
2018.91	2867
2019.88	2837.5
2020.86	2831.5
2021.83	2870.5
2022.81	2842
2023.79	2868.5
2024.76	2822
2025.74	2829
2026.72	2829
2027.69	2819.5
2028.67	2824
2029.64	2859
2030.62	2847
2031.59	2824.5
2032.57	2775
2033.54	2771.5
2034.52	2789.5
2035.49	2807.5
2036.47	2776.5
2037.44	2790.5
2038.41	2766.5
2039.39	2769
2040.36	2788
2041.34	2791.5
2042.31	2783.5
2043.28	2758.5
2044.26	2753.5
2045.23	2760
2046.2	2754.5
2047.17	2763.5
2048.15	2752
2049.12	2733.5
2050.09	2750.5
2051.06	2740
2052.04	2719
2053.01	2749.5
2053.98	2732
2054.95	2712.5
2055.92	2687.5
2056.89	2671.5
2057.86	2715.5
2058.84	2683
2059.81	2676.5
2060.78	2676.5
2061.75	2671.5
2062.72	2668.5
2063.69	2677
2064.66	2672
2065.63	2639
2066.6	2645.5
2067.57	2658
2068.54	2662
2069.51	2622
2070.48	2672
2071.44	2665
2072.41	2660.5
2073.38	2676
2074.35	2614
2075.32	2624.5
2076.29	2643
2077.26	2632
2078.22	2602
2079.19	2605
2080.16	2597
2081.13	2604.5
2082.09	2600.5
2083.06	2617.5
2084.03	2598.5
2085	2584
2085.96	2566
2086.93	2591
2087.9	2570
2088.86	2596.5
2089.83	2579.5
2090.79	2603.5
2091.76	2585.5
2092.73	2554.5
2093.69	2554
2094.66	2565.5
2095.62	2575
2096.59	2571
2097.55	2543.5
2098.52	2565
2099.48	2554.5
2100.45	2521.5
2101.41	2546.5
2102.38	2544
2103.34	2566
2104.3	2553.5
2105.27	2538.5
2106.23	2561.5
2107.19	2536.5
2108.16	2525
2109.12	2564.5
2110.08	2541.5
2111.05	2578.5
2112.01	2519
2112.97	2522
2113.94	2561
2114.9	2540
2115.86	2554.5
2116.82	2572
2117.78	2556
2118.75	2585.5
2119.71	2569
2120.67	2607.5
2121.63	2582
2122.59	2577
2123.55	2621
2124.51	2597.5
2125.47	2621
2126.43	2626.5
2127.4	2638
2128.36	2637.5
2129.32	2645
2130.28	2629
2131.24	2631
2132.2	2635.5
2133.16	2636.5
2134.11	2647.5
2135.07	2662.5
2136.03	2652.5
2136.99	2657.5
2137.95	2656
2138.91	2637
2139.87	2654
2140.83	2661
2141.78	2650
2142.74	2644.5
2143.7	2637
2144.66	2660.5
2145.62	2659.86
2146.57	2649.13
2147.53	2669.68
2148.49	2629.99
2149.45	2620.65
2150.4	2622.3
2151.36	2622.39
2152.32	2629.39
2153.27	2631.51
2154.23	2600.72
2155.19	2607.74
2156.14	2551.66
2157.1	2568.03
2158.05	2538.85
2159.01	2551.28
2159.96	2548.94
2160.92	2510.52
2161.88	2508.5
2162.83	2503.67
2163.78	2472.57
2164.74	2467.05
2165.69	2465.72
2166.65	2469.4
2167.6	2439.77
2168.56	2422.78
2169.51	2366.17
2170.47	2368.55
2171.42	2331.75
2172.37	2360.24
2173.33	2318.99
2174.28	2289.06
2175.23	2279.43
2176.19	2279.75
2177.14	2238.51
2178.09	2238.27
2179.04	2205.33
2180	2202.06
2180.95	2197.64
2181.9	2156.79
2182.85	2162.61
2183.81	2135.85
2184.76	2115.69
2185.71	2057.63
2186.66	2072.13
2187.61	2049.24
2188.56	2058.66
2189.51	2028.75
2190.46	2047.79
2191.42	2021.74
2192.37	2024.04
2193.32	2025.17
2194.27	1990.79
2195.22	1986.55
2196.17	1991.46
2197.12	1963.24
2198.07	1963.06
2199.02	1939.78
2199.97	1924.76
2200.92	1926.16
2201.86	1948.09
2202.81	1928.85
2203.76	1911.31
2204.71	1921.46
2205.66	1897.26
2206.61	1885.53
2207.56	1881.93
2208.5	1894.29
2209.45	1877.25
2210.4	1870.02
2211.35	1885
2212.3	1868.64
2213.24	1860.82
2214.19	1861.38
2215.14	1847.46
2216.08	1848.78
2217.03	1849.19
2217.98	1832.69
2218.92	1835.95
2219.87	1827.6
2220.82	1812.28
2221.76	1807.25
2222.71	1814.64
2223.65	1829.65
2224.6	1811.71
2225.55	1800.77
2226.49	1798
2227.44	1785.51
2228.38	1779.13
2229.33	1779.51
2230.27	1785.08
2231.22	1769.98
2232.16	1748.8
2233.11	1751.96
2234.05	1761.54
2234.99	1748.02
2235.94	1733.11
2236.88	1730.61
2237.83	1738.94
2238.77	1744.17
2239.71	1726.97
2240.66	1725.97
2241.6	1725.43
2242.06	1712.5
2243.01	1751.5
2243.96	1752
2244.91	1781.5
2245.85	1791
2246.8	1774
2247.75	1767
2248.7	1757
2249.64	1760
2250.59	1714
2251.54	1699
2252.48	1746.5
2253.43	1699.5
2254.38	1678.5
2255.32	1683
2256.27	1697.5
2257.21	1670
2258.16	1651.5
2259.1	1629.5
2260.05	1688.5
2260.99	1663
2261.94	1626
2262.89	1633.5
2263.83	1627.5
2264.77	1627.5
2265.72	1644.5
2266.66	1606
2267.61	1629.5
2268.55	1615.5
2269.5	1581.5
2270.44	1612.5
2271.38	1615
2272.33	1623
2273.27	1592
2274.21	1579.5
2275.16	1621
2276.1	1587.5
2277.04	1571.5
2277.98	1594.5
2278.93	1586
2279.87	1607
2280.81	1541
2281.75	1565
2282.7	1559.5
2283.64	1567.5
2284.58	1566.5
2285.52	1591
2286.46	1575.5
2287.4	1557
2288.34	1581
2289.29	1565.5
2290.23	1553
2291.17	1573.5
2292.11	1540
2293.05	1552
2293.99	1550
2294.93	1529.5
2295.87	1551
2296.81	1566
2297.75	1555.5
2298.69	1525
2299.63	1519
2300.57	1525
2301.51	1514.5
2302.44	1540.5
2303.38	1521.5
2304.32	1512.5
2305.26	1534.5
2306.2	1542.5
2307.14	1551.5
2308.08	1541.5
2309.01	1508
2309.95	1514
2310.89	1519
2311.83	1516.5
2312.77	1519.5
2313.7	1521.5
2314.64	1539
2315.58	1530.5
2316.51	1484
2317.45	1496.5
2318.39	1497
2319.32	1512.5
2320.26	1485
2321.2	1477
2322.13	1501.5
2323.07	1488
2324	1488
2324.94	1500.5
2325.88	1503.5
2326.81	1469.5
2327.75	1487
2328.68	1470.5
2329.62	1478
2330.55	1475.5
2331.49	1462
2332.42	1478
2333.35	1446
2334.29	1488.5
2335.22	1459
2336.16	1457
2337.09	1472.5
2338.02	1466.5
2338.96	1464.5
2339.89	1458.5
2340.82	1454
2341.76	1452.5
2342.69	1442.5
2343.62	1475
2344.56	1476
2345.49	1443.5
2346.42	1456
2347.35	1472
2348.29	1453
2349.22	1445.5
2350.15	1458.5
2351.08	1451.5
2352.01	1454
2352.94	1438.5
2353.88	1441
2354.81	1448.5
2355.74	1438.5
2356.67	1451.5
2357.6	1447
2358.53	1455
2359.46	1456
2360.39	1424
2361.32	1444
2362.25	1443.5
2363.18	1427.5
2364.11	1422
2365.04	1436
2365.97	1431.5
2366.9	1398.5
2367.83	1416.5
2368.76	1426
2369.69	1431
2370.62	1428.5
2371.55	1436
2372.47	1414
2373.4	1402
2374.33	1420.5
2375.26	1404
2376.19	1432
2377.11	1436
2378.04	1383
2378.97	1433.5
2379.9	1381
2380.83	1403
2381.75	1438
2382.68	1383.5
2383.61	1380
2384.53	1396
2385.46	1388.5
2386.39	1362
2387.31	1418
2388.24	1387
2389.17	1370
2390.09	1387
2391.02	1400.5
2391.94	1375
2392.87	1389
2393.79	1407
2394.72	1371
2395.64	1364
2396.57	1354.5
2397.49	1376
2398.42	1363.5
2399.34	1374
2400.27	1387
2401.19	1378
2402.12	1379
2403.04	1339
2403.96	1367.5
2404.89	1368
2405.81	1387
2406.74	1355
2407.66	1364
2408.58	1346
2409.51	1340.5
2410.43	1348
2411.35	1366
2412.27	1372.5
2413.2	1350
2414.12	1342
2415.04	1335
2415.96	1339
2416.89	1320
2417.81	1333
2418.73	1338
2419.65	1309.5
2420.57	1335
2421.49	1319.5
2422.41	1340.5
2423.34	1351.5
2424.26	1333.5
2425.18	1328
2426.1	1334
2427.02	1323.5
2427.94	1331
2428.86	1334.5
2429.78	1335.5
2430.7	1306
2431.62	1333
2432.54	1323
2433.46	1318
2434.38	1317.5
2435.3	1323
2436.22	1304
2437.13	1317
2438.05	1321.5
2438.97	1287.5
2439.89	1309
2440.81	1310
2441.73	1296
2442.65	1282.5
2443.56	1283
2444.48	1300.5
2445.4	1293
2446.32	1281
2447.24	1303.5
2448.15	1309
2449.07	1309
2449.99	1279
2450.9	1286
2451.82	1292.5
2452.74	1266
2453.65	1301
2454.57	1308
2455.49	1296
2456.4	1294.5
2457.32	1269
2458.23	1283.5
2459.15	1268
2460.07	1281
2460.98	1277
2461.9	1275
2462.81	1277
2463.73	1254
2464.64	1278.5
2465.56	1270.5
2466.47	1267
2467.39	1265.5
2468.3	1296
2469.21	1304
2470.13	1270.5
2471.04	1266
2471.96	1257.5
2472.87	1265.5
2473.78	1266.5
2474.7	1247.5
2475.61	1269.5
2476.52	1256.5
2477.44	1264.5
2478.35	1267.5
2479.26	1264.5
2480.17	1254
2481.09	1258
2482	1250.5
2482.91	1252
2483.82	1256
2484.74	1251
2485.65	1237
2486.56	1232
2487.47	1235
2488.38	1240
2489.29	1252
2490.21	1248.5
2491.12	1244.5
2492.03	1227.5
2492.94	1214.5
2493.85	1231.5
2494.76	1243
2495.67	1230.5
2496.58	1216.5
2497.49	1245.5
2498.4	1212
2499.31	1209.5
2500.22	1228.5
2501.13	1202
2502.04	1239.5
2502.95	1220.5
2503.86	1232
2504.76	1215.5
2505.67	1220
2506.58	1192
2507.49	1217
2508.4	1207
2509.31	1213.5
2510.22	1214.5
2511.12	1203.5
2512.03	1214
2512.94	1211
2513.85	1212.5
2514.76	1190
2515.66	1199
2516.57	1194.5
2517.48	1200
2518.38	1194
2519.29	1186
2520.2	1203.5
2521.1	1168
2522.01	1196
2522.92	1178.5
2523.82	1182
2524.73	1198
2525.64	1198.5
2526.54	1174
2527.45	1184.5
2528.35	1185
2529.26	1144
2530.16	1182
2531.07	1175
2531.97	1188
2532.88	1206
2533.78	1180.5
2534.69	1168.5
2535.59	1154
2536.5	1179.5
2537.4	1165.5
2538.31	1165
2539.21	1152.5
2540.11	1163.5
2541.02	1180
2541.92	1174
2542.82	1170
2543.73	1165
2544.63	1154.5
2545.53	1153
2546.44	1141.5
2547.34	1152.5
2548.24	1146.5
2549.14	1138.5
2550.05	1179.5
2550.95	1141.5
2551.85	1138.5
2552.75	1138
2553.65	1148
2554.56	1136
2555.46	1139.5
2556.36	1153.5
2557.26	1154.5
2558.16	1129
2559.06	1139
2559.96	1139
2560.86	1145.5
2561.76	1159
2562.67	1136
2563.57	1132
2564.47	1131
2565.37	1145
2566.27	1148
2567.17	1124.5
2568.06	1140.5
2568.96	1120.5
2569.86	1119.5
2570.76	1137.5
2571.66	1126.5
2572.56	1116
2573.46	1126
2574.36	1112
2575.26	1131
2576.16	1127
2577.05	1110
2577.95	1113
2578.85	1090
2579.75	1105.5
2580.65	1121.5
2581.54	1104
2582.44	1108
2583.34	1106.5
2584.24	1076.5
2585.13	1131
2586.03	1121.5
2586.93	1114
2587.83	1116
2588.72	1081.5
2589.62	1099
2590.51	1086
2591.41	1107.5
2592.31	1086
2593.2	1123
2594.1	1073
2594.99	1066
2595.89	1093
2596.79	1090
2597.68	1087
2598.58	1091
2599.47	1106.5
2600.37	1082.5
2601.26	1106
2602.16	1072.5
2603.05	1098
2603.94	1066.5
2604.84	1096
2605.73	1072
2606.63	1071
2607.52	1060
2608.42	1067
2609.31	1095.5
2610.2	1083.5
2611.1	1033.5
2611.99	1044
2612.88	1097
2613.78	1055
2614.67	1075.5
2615.56	1084
2616.45	1066
2617.35	1060
2618.24	1076
2619.13	1053
2620.02	1063
2620.91	1059.5
2621.81	1058.5
2622.7	1074
2623.59	1045
2624.48	1070.5
2625.37	1050
2626.26	1054
2627.15	1042
2628.04	1045
2628.94	1026
2629.83	1050.5
2630.72	1046.5
2631.61	1041.5
2632.5	1030
2633.39	1028.5
2634.28	1038
2635.17	1050.5
2636.06	1042.5
2636.95	1040
2637.84	1019.5
2638.73	1024
2639.61	1027
2640.5	1029
2641.39	1017
2642.28	1019
2643.17	1005.5
2644.06	994
2644.95	1014
2645.84	1001
2646.72	1008.5
2647.61	1000
2648.5	1014
2649.39	1011
2650.28	1018.5
2651.16	996
2652.05	1016.5
2652.94	1021.5
2653.82	1002.5
2654.71	986.5
2655.6	988.5
2656.49	1004
2657.37	989
2658.26	1026
2659.14	1013
2660.03	1007.5
2660.92	991
2661.8	991
2662.69	1000.5
2663.57	1002
2664.46	996
2665.35	966
2666.23	988.5
2667.12	989
2668	1004.5
2668.89	974
2669.77	1002.5
2670.66	1006
2671.54	982
2672.42	1011.5
2673.31	995
2674.19	987.5
2675.08	975.5
2675.96	1000
2676.84	966.5
2677.73	995
2678.61	981
2679.49	980
2680.38	978
2681.26	982
2682.14	992
2683.03	988
2683.91	975.5
2684.79	975.5
2685.68	990
2686.56	972.5
2687.44	982.5
2688.32	984
2689.2	981.5
2690.09	957.5
2690.97	951
2691.85	950
2692.73	963.5
2693.61	979
2694.49	967.5
2695.37	974
2696.25	951
2697.14	968
2698.02	958
2698.9	964
2699.78	955
2700.66	940.5
2701.54	975.5
2702.42	955.5
2703.3	951
2704.18	955.5
2705.06	942
2705.94	953.5
2706.82	942
2707.7	955
2708.57	953.5
2709.45	954.5
2710.33	950
2711.21	933
2712.09	935
2712.97	912
2713.85	943
2714.72	922
2715.6	929.5
2716.48	951.5
2717.36	952
2718.24	946.5
2719.11	943
2719.99	957
2720.87	935.5
2721.75	928
2722.62	921.5
2723.5	928
2724.38	935.5
2725.25	933
2726.13	913.5
2727.01	937
2727.88	928
2728.76	926
2729.63	911
2730.51	904.5
2731.39	917
2732.26	921.5
2733.14	914.5
2734.01	912.5
2734.89	944
2735.76	908.5
2736.64	920.5
2737.51	923
2738.39	886.5
2739.26	907.5
2740.14	889.5
2741.01	908.5
2741.89	900.5
2742.76	886
2743.63	899
2744.51	900.5
2745.38	912
2746.26	888.5
2747.13	888
2748	905
2748.88	894
2749.75	886.5
2750.62	906
2751.5	879
2752.37	909.5
2753.24	894
2754.11	885
2754.99	868
2755.86	885.5
2756.73	877.5
2757.6	890.5
2758.47	877.5
2759.35	856
2760.22	878
2761.09	893.5
2761.96	880
2762.83	876
2763.7	870.5
2764.57	879.5
2765.44	861.5
2766.32	878
2767.19	872.5
2768.06	853
2768.93	857.5
2769.8	894.5
2770.67	867
2771.54	867
2772.41	853
2773.28	868.5
2774.15	861
2775.02	885
2775.89	848.5
2776.75	858.5
2777.62	844.5
2778.49	850
2779.36	852
2780.23	838
2781.1	856
2781.97	856.5
2782.84	858.5
2783.7	855.5
2784.57	823
2785.44	828
2786.31	848
2787.18	847
2788.04	839
2788.91	862.5
2789.78	842.5
2790.64	849
2791.51	843
2792.38	855.5
2793.24	830.5
2794.11	839.5
2794.98	856.5
2795.85	844.5
2796.71	830.5
2797.58	819.5
2798.44	833
2799.31	836
2800.18	822
2801.04	833.5
2801.91	812.5
2802.77	825
2803.64	822
2804.5	819
2805.37	827
2806.23	829
2807.1	832.5
2807.96	830
2808.83	804
2809.69	819.5
2810.55	815
2811.42	825
2812.28	829
2813.15	818.5
2814.01	806
2814.88	809
2815.74	812.5
2816.6	810
2817.46	811
2818.33	802.5
2819.19	810
2820.05	808
2820.92	811.5
2821.78	812
2822.64	806
2823.51	795.5
2824.37	803.5
2825.23	819
2826.09	805
2826.95	790.5
2827.81	798
2828.68	792
2829.54	785.5
2830.4	798
2831.26	808.5
2832.12	804
2832.98	789.5
2833.84	812
2834.71	803
2835.57	802.5
2836.43	800
2837.29	807.5
2838.15	788
2839.01	791
2839.87	798.5
2840.73	794.5
2841.59	802
2842.45	807.5
2843.31	797.5
2844.17	800.5
2845.02	812
2845.88	792.5
2846.74	802
2847.6	799
2848.46	805
2849.32	787.5
2850.18	803
2851.04	804
2851.9	811
2852.75	800
2853.61	803.5
2854.47	785
2855.33	804
2856.19	772
2857.04	790
2857.9	797.5
2858.76	815
2859.61	802.5
2860.47	794.5
2861.33	806.5
2862.19	788.5
2863.04	787.5
2863.9	790.5
2864.76	778.5
2865.61	802.5
2866.47	785.5
2867.32	786
2868.18	795
2869.04	787
2869.89	781
2870.75	779
2871.6	786.5
2872.46	807.5
2873.31	793.5
2874.17	801
2875.02	787
2875.88	785
2876.73	777
2877.59	784
2878.44	784
2879.3	788
2880.15	800
2881	795
2881.86	784
2882.71	783.5
2883.57	795.5
2884.42	795
2885.27	772
2886.13	779
2886.98	757
2887.83	780
2888.69	779
2889.54	762.5
2890.39	779
2891.24	769.5
2892.1	781
2892.95	766.5
2893.8	776
2894.65	783.5
2895.51	785
2896.36	787.5
2897.21	782.5
2898.06	763
2898.91	771.5
2899.76	790
2900.62	756
2901.47	766.5
2902.32	776
2903.17	783
2904.02	793.5
2904.87	778.5
2905.72	774.5
2906.57	783
2907.42	788.5
2908.27	774
2909.12	777
2909.97	789.5
2910.82	786
2911.67	768
2912.52	762
2913.37	784.5
2914.22	767
2915.07	766
2915.92	781
2916.77	759.5
2917.62	787
2918.47	764
2919.31	771
2920.16	764.5
2921.01	774.5
2921.86	772.5
2922.71	773
2923.55	786
2924.4	787
2925.25	782
2926.1	786.5
2926.94	770
2927.79	794.5
2928.64	780
2929.49	789.5
2930.33	801.5
2931.18	791
2932.03	792.5
2932.87	794.5
2933.72	803.5
2934.57	787.5
2935.41	792
2936.26	768
2937.11	769
2937.95	789
2938.8	783.5
2939.64	777
2940.49	775
2941.33	745
2942.18	753.5
2943.02	776.5
2943.87	757
2944.71	771.5
2945.56	746
2946.4	762
2947.25	764
2948.09	749
2948.94	753.5
2949.78	722.5
2950.63	737
2951.47	745
2952.31	736
2953.16	725
2954	721
2954.84	727.5
2955.69	699
2956.53	706.5
2957.37	711
2958.22	700.5
2959.06	698
2959.9	718
2960.75	691
2961.59	695.5
2962.43	707
2963.27	703
2964.11	697
2964.96	698
2965.8	687
2966.64	689
2967.48	699.5
2968.32	686
2969.16	680
2970.01	692.5
2970.85	690
2971.69	689
2972.53	679
2973.37	687
2974.21	675.5
2975.05	681.5
2975.89	686
2976.73	663
2977.57	679
2978.41	674.5
2979.25	657
2980.09	671
2980.93	666.5
2981.77	669
2982.61	654
2983.45	661
2984.29	640.5
2985.13	657
2985.97	661.5
2986.81	643
2987.65	647
2988.49	638
2989.32	641
2990.16	628
2991	630
2991.84	629.5
2992.68	634
2993.51	611
2994.35	637
2995.19	626.5
2996.03	626
2996.86	637
2997.7	626.5
2998.54	614
2999.38	622
