#Acq. time (s)=	10
#Accumulations=	1
#Range (cm-¹)=	200...3000
#Windows=	3
#Autofocus=	Off
#AutoExposure=	Off
#Spike filter=	Off
#Delay time (s)=	0
#Binning=	1
#Readout mode=	Signal
#DeNoise=	Off
#ICS correction=	Off
#Dark correction=	Off
#Inst. Process=	Off
#Instrument=	LabRAM HR Evol
#Detector=	Syncerity OE
#Objective=	x100_VIS
#Grating=	600 (500nm)
#ND Filter=	1%
#Laser=	633nm_Edge
#Hole=	30.0125
#Range=	Visible
#Project=	Omar
#Sample=	03-07-23
#Site=	fings
#Title=	inside_pr
#Remark=	
#Date=	03.07.2023 15:05
#Acquired=	03.07.2023 15:05:46
201.713	62
202.98	68
204.247	68
205.513	66
206.778	64
208.045	68
209.311	68
210.576	66
211.84	64
213.106	64
214.371	68
215.636	68
216.899	70
218.164	74
219.428	66
220.692	68
221.955	74
223.219	74
224.482	60
225.744	68
227.007	62
228.27	84
229.531	70
230.794	76
232.055	76
233.317	68
234.579	66
235.839	80
237.1	70
238.362	68
239.621	84
240.882	74
242.141	84
243.402	70
244.661	70
245.921	70
247.179	76
248.439	80
249.698	80
250.956	76
252.215	80
253.473	82
254.731	70
255.988	66
257.246	80
258.503	78
259.761	80
261.017	82
262.273	72
263.53	76
264.786	82
266.042	80
267.298	84
268.554	80
269.809	78
271.063	88
272.319	86
273.573	68
274.828	78
276.082	82
277.336	94
278.591	82
279.844	74
281.097	100
282.351	80
283.603	92
284.855	94
286.109	82
287.361	92
288.613	82
289.866	90
291.117	94
292.368	80
293.62	90
294.871	80
296.121	84
297.372	84
298.623	94
299.873	90
301.123	88
302.372	98
303.622	90
304.872	80
306.121	88
307.37	98
308.618	98
309.866	96
311.116	96
312.364	94
313.611	100
314.859	90
316.106	92
317.353	100
318.6	102
319.848	104
321.095	106
322.341	102
323.587	98
324.833	98
326.079	116
327.324	104
328.569	114
329.814	110
331.059	100
332.304	108
333.548	116
334.792	108
336.037	104
337.28	120
338.524	98
339.767	118
341.011	110
342.254	112
343.497	116
344.739	102
345.982	124
347.224	116
348.466	108
349.708	110
350.95	106
352.191	112
353.432	114
354.673	122
355.914	122
357.155	114
358.394	100
359.634	106
360.874	120
362.114	108
363.354	122
364.593	120
365.832	122
367.07	134
368.309	130
369.548	120
370.786	130
372.024	116
373.261	132
374.499	120
375.736	136
376.974	104
378.211	132
379.447	122
380.684	124
381.92	122
383.157	132
384.392	120
385.628	124
386.864	138
388.098	130
389.333	124
390.569	140
391.802	132
393.037	130
394.272	146
395.505	136
396.739	132
397.973	132
399.206	138
400.44	128
401.673	150
402.905	134
404.138	144
405.37	136
406.602	128
407.835	138
409.066	144
410.298	134
411.528	136
412.76	142
413.99	140
415.221	156
416.451	156
417.682	158
418.911	150
420.142	152
421.371	152
422.601	166
423.83	142
425.059	138
426.288	164
427.517	154
428.745	158
429.974	168
431.201	166
432.43	158
433.657	152
434.883	180
436.111	158
437.338	176
438.565	150
439.791	178
441.017	168
442.244	162
443.469	186
444.695	170
445.921	152
447.146	168
448.37	164
449.596	164
450.821	170
452.045	176
453.27	174
454.493	182
455.717	152
456.94	196
458.165	176
459.387	178
460.61	170
461.833	184
463.056	170
464.278	186
465.5	178
466.722	200
467.945	200
469.166	194
470.387	190
471.608	172
472.829	188
474.049	210
475.271	186
476.491	186
477.711	198
478.931	186
480.15	188
481.37	186
482.589	194
483.808	184
485.027	216
486.247	204
487.465	192
488.683	192
489.901	194
491.119	202
492.337	216
493.554	198
494.771	186
495.988	208
497.205	210
498.422	222
499.638	210
500.854	220
502.07	214
503.286	208
504.502	230
505.717	218
506.933	210
508.148	214
509.363	222
510.577	228
511.792	230
513.005	228
514.219	220
515.433	238
516.647	218
517.86	234
519.073	218
520.287	220
521.5	242
522.711	234
523.924	220
525.136	228
526.348	244
527.56	240
528.772	222
529.982	246
531.194	228
532.405	242
533.616	254
534.825	248
536.036	234
537.246	228
538.457	248
539.665	236
540.875	234
542.085	228
543.294	236
544.502	236
545.712	248
546.92	252
548.128	242
549.336	258
550.545	244
551.751	256
552.959	252
554.167	262
555.373	256
556.581	264
557.788	242
558.994	266
560.2	258
561.406	268
562.612	242
563.817	258
565.023	252
566.229	258
567.433	266
568.639	276
569.843	272
571.048	266
572.251	262
573.456	276
574.659	294
575.863	270
577.066	270
578.27	272
579.472	276
580.676	284
581.878	286
583.081	280
584.283	270
585.484	288
586.687	302
587.888	288
589.09	300
590.291	318
591.493	284
592.693	304
593.893	298
595.094	284
596.294	294
597.494	298
598.694	314
599.894	298
601.093	306
602.293	294
603.491	304
604.69	316
605.889	316
607.087	314
608.285	320
609.483	318
610.682	324
611.879	322
613.076	346
614.273	324
615.471	326
616.667	328
617.864	314
619.06	330
620.256	342
621.453	318
622.648	346
623.844	354
625.039	334
626.234	358
627.429	348
628.625	350
629.819	360
631.013	352
632.208	348
633.401	386
634.595	370
635.789	352
636.982	356
638.175	384
639.369	382
640.562	368
641.755	392
642.947	380
644.139	384
645.331	382
646.523	370
647.715	378
648.906	370
650.097	380
651.288	416
652.479	412
653.67	384
654.86	402
656.051	392
657.241	396
658.429	412
659.619	410
660.808	414
661.998	410
663.187	430
664.376	422
665.565	386
666.753	440
667.942	422
669.13	412
670.317	428
671.505	424
672.692	426
673.88	450
675.067	434
676.254	446
677.44	450
678.627	450
679.813	418
681	448
682.184	490
683.37	482
684.556	464
685.742	438
686.926	458
688.111	448
689.296	468
690.481	476
691.664	480
692.849	464
694.033	460
695.216	484
696.4	492
697.584	480
698.766	486
699.949	492
701.133	496
702.314	482
703.497	488
704.678	514
705.861	514
707.043	484
708.224	506
709.406	520
710.586	528
711.768	520
712.949	506
714.129	516
715.31	528
716.489	530
717.67	522
718.849	552
720.029	534
721.208	542
722.388	552
723.566	560
724.746	558
725.924	540
727.103	552
728.28	578
729.458	598
730.636	582
731.814	584
732.992	588
734.168	564
735.345	586
736.523	588
737.699	606
738.876	590
740.052	576
741.227	604
742.404	604
743.579	580
744.754	618
745.931	622
747.105	600
748.28	600
749.455	620
750.629	622
751.803	616
752.977	660
754.152	630
755.325	634
756.499	644
757.672	646
758.846	652
760.018	624
761.191	624
762.363	668
763.535	668
764.708	704
765.88	690
767.052	690
768.223	692
769.394	678
770.565	708
771.737	696
772.908	698
774.078	744
775.249	694
776.419	706
777.589	734
778.758	740
779.928	784
781.097	748
782.266	744
783.435	760
784.604	758
785.773	748
786.941	748
788.11	768
789.278	778
790.446	792
791.613	784
792.781	764
793.948	806
795.115	764
796.282	838
797.449	798
798.616	806
799.782	856
800.948	846
802.115	828
803.28	846
804.446	852
805.612	842
806.777	864
807.941	838
809.106	864
810.271	874
811.435	882
812.6	872
813.764	890
814.927	892
816.091	880
817.254	888
818.418	880
819.581	904
820.743	896
821.906	926
823.069	952
824.232	936
825.393	946
826.555	930
827.717	940
828.879	952
830.039	948
831.201	958
832.362	998
833.522	1000
834.683	986
835.844	1006
837.003	1002
838.164	1024
839.324	1002
840.483	1008
841.643	1044
842.801	1042
843.961	1080
845.12	1060
846.278	1056
847.437	1078
848.594	1064
849.753	1106
850.91	1064
852.069	1094
853.227	1090
854.383	1058
855.541	1114
856.697	1128
857.855	1132
859.011	1110
860.168	1144
861.323	1110
862.48	1146
863.635	1140
864.79	1212
865.946	1166
867.101	1160
868.257	1142
869.411	1196
870.567	1184
871.721	1204
872.874	1198
874.029	1236
875.183	1210
876.336	1206
877.49	1266
878.643	1190
879.796	1260
880.95	1218
882.102	1254
883.254	1260
884.407	1298
885.559	1304
886.711	1332
887.862	1294
889.015	1288
890.166	1270
891.317	1278
892.467	1288
893.619	1286
894.77	1364
895.92	1396
897.07	1350
898.221	1324
899.371	1358
900.52	1364
901.669	1366
902.819	1370
903.968	1396
905.116	1380
906.266	1408
907.415	1418
908.563	1456
909.711	1442
910.859	1434
912.007	1460
913.154	1440
914.301	1450
915.449	1526
916.596	1472
917.742	1482
918.889	1510
920.036	1442
921.183	1554
922.329	1526
923.475	1574
924.621	1516
925.765	1536
926.911	1544
928.056	1572
929.201	1550
930.346	1580
931.49	1580
932.635	1612
933.779	1576
934.924	1650
936.068	1602
937.211	1594
938.355	1644
939.498	1660
940.64	1672
941.784	1668
942.926	1672
944.069	1734
945.212	1686
946.354	1718
947.495	1742
948.637	1740
949.779	1690
950.921	1782
952.062	1724
953.202	1804
954.344	1780
955.484	1778
956.625	1786
957.765	1806
958.905	1824
960.045	1828
961.184	1804
962.324	1824
963.464	1860
964.604	1888
965.742	1842
966.881	1862
968.02	1924
969.158	1906
970.296	1924
971.434	1952
972.572	1942
973.71	1914
974.847	1958
975.985	1898
977.121	2016
978.259	1960
979.396	1980
980.532	1986
981.669	2022
982.804	2030
983.941	2060
985.076	2048
986.212	2044
987.347	2030
988.483	2090
989.617	2074
990.753	2130
991.887	2130
993.022	2104
994.156	2118
995.29	2160
996.424	2130
997.558	2208
998.692	2168
999.825	2126
1000.96	2224
1002.09	2180
1003.22	2210
1004.36	2204
1005.49	2242
1006.62	2268
1007.75	2266
1008.89	2258
1010.02	2306
1011.15	2238
1012.28	2324
1013.41	2354
1014.54	2296
1015.67	2398
1016.8	2388
1017.93	2344
1019.07	2356
1020.19	2394
1021.32	2392
1022.45	2438
1023.58	2440
1024.71	2434
1025.84	2432
1026.97	2544
1028.1	2502
1029.23	2484
1030.36	2454
1031.49	2552
1032.61	2532
1033.74	2630
1034.87	2602
1036	2602
1037.12	2612
1038.25	2648
1039.38	2638
1040.5	2640
1041.63	2666
1042.76	2712
1043.88	2702
1045.01	2724
1046.14	2750
1047.26	2792
1048.39	2754
1049.51	2818
1050.64	2768
1051.76	2790
1052.89	2766
1054.01	2826
1055.14	2808
1056.26	2874
1057.38	2792
1058.51	2910
1059.63	2892
1060.75	2862
1061.88	2899
1063	2936
1064.12	2962
1065.25	2926
1066.37	3004
1067.49	2980
1068.61	3014
1069.73	2986
1070.86	3052
1071.98	3076
1073.1	3014
1074.22	3040
1075.34	3080
1076.46	3076
1077.58	2992
1078.7	3070
1079.82	3048
1080.94	3062
1082.06	3144
1083.18	3120
1084.3	3098
1085.42	3148
1086.54	3096
1087.66	3128
1088.78	3268
1089.9	3160
1091.02	3162
1092.14	3218
1093.25	3194
1094.37	3258
1095.49	3156
1096.61	3220
1097.72	3212
1098.84	3214
1099.96	3258
1101.08	3268
1102.19	3276
1103.31	3414
1104.43	3296
1105.54	3290
1106.66	3314
1107.77	3362
1108.89	3286
1110	3352
1111.12	3396
1112.23	3466
1113.35	3366
1114.46	3402
1115.58	3478
1116.69	3404
1117.81	3432
1118.92	3382
1120.03	3472
1121.15	3484
1122.26	3528
1123.37	3486
1124.49	3490
1125.6	3566
1126.71	3496
1127.83	3586
1128.94	3480
1130.05	3594
1131.16	3614
1132.27	3588
1133.39	3574
1134.5	3580
1135.61	3570
1136.72	3624
1137.83	3636
1138.94	3680
1140.05	3608
1141.16	3650
1142.27	3670
1143.38	3630
1144.49	3704
1145.6	3630
1146.71	3642
1147.82	3708
1148.93	3756
1150.04	3646
1151.15	3700
1152.26	3716
1153.36	3704
1154.47	3750
1155.58	3654
1156.69	3774
1157.8	3688
1158.9	3732
1160.01	3692
1161.12	3692
1162.22	3810
1163.33	3722
1164.44	3876
1165.54	3804
1166.65	3824
1167.76	3858
1168.86	3766
1169.97	3774
1171.07	3764
1172.18	3758
1173.28	3810
1174.39	3844
1175.49	3730
1176.6	3840
1177.7	3846
1178.81	3832
1179.91	3788
1181.02	3796
1182.12	3732
1183.22	3720
1184.33	3802
1185.43	3782
1186.53	3796
1187.63	3858
1188.74	3738
1189.84	3764
1190.94	3848
1192.04	3776
1193.15	3734
1194.25	3746
1195.35	3748
1196.45	3730
1197.55	3786
1198.65	3738
1199.75	3740
1200.85	3730
1201.95	3782
1203.05	3686
1204.16	3786
1205.25	3674
1206.35	3612
1207.45	3678
1208.55	3728
1209.65	3702
1210.75	3702
1211.85	3684
1212.95	3608
1214.05	3672
1215.15	3620
1216.24	3672
1217.34	3638
1218.44	3622
1219.54	3694
1220.64	3652
1221.73	3666
1222.83	3594
1223.93	3612
1225.02	3562
1226.12	3574
1227.22	3588
1228.31	3578
1229.41	3510
1230.5	3572
1231.6	3540
1232.7	3564
1233.79	3438
1234.89	3492
1235.98	3454
1237.08	3466
1238.17	3472
1239.26	3536
1240.36	3500
1241.45	3390
1242.55	3458
1243.64	3344
1244.73	3504
1245.83	3388
1246.92	3390
1248.01	3352
1249.11	3354
1250.2	3432
1251.29	3340
1252.38	3400
1253.48	3334
1254.57	3370
1255.66	3302
1256.75	3374
1257.84	3284
1258.93	3314
1260.03	3248
1261.12	3334
1262.21	3346
1263.3	3258
1264.39	3196
1265.48	3224
1266.57	3282
1267.66	3178
1268.75	3214
1269.84	3216
1270.93	3210
1272.02	3198
1273.11	3160
1274.19	3132
1275.28	3122
1276.37	3110
1277.46	3076
1278.55	3102
1279.64	3092
1280.72	3078
1281.81	3118
1282.9	3084
1283.98	3089.81
1285.07	2970.37
1286.16	3000.26
1287.25	3025.4
1288.33	2947.6
1289.42	2936.09
1290.5	2965.55
1291.59	2926.73
1292.68	2923.33
1293.76	2907.18
1294.85	2926.09
1295.93	2846.19
1297.02	2902.03
1298.1	2816.29
1299.19	2835.8
1300.27	2790.37
1301.36	2796.28
1302.44	2726.74
1303.53	2749.65
1304.61	2701.79
1305.69	2748.62
1306.78	2712.55
1307.86	2661.24
1308.94	2682.97
1310.03	2712.7
1311.11	2674.43
1312.19	2588.37
1313.27	2646.23
1314.36	2614.71
1315.44	2579.28
1316.52	2585.76
1317.6	2576.14
1318.68	2487.49
1319.77	2557.25
1320.85	2492.28
1321.93	2468.93
1323.01	2453.51
1324.09	2450.46
1325.17	2462.94
1326.25	2436.16
1327.33	2438.46
1328.41	2390.21
1329.49	2431.27
1330.57	2393.05
1331.65	2404.35
1332.73	2344.1
1333.81	2355.1
1334.89	2314.8
1335.97	2288.35
1337.04	2291.65
1338.12	2304.51
1339.2	2274.84
1340.28	2249.05
1341.36	2266.61
1342.44	2230.57
1343.51	2222.04
1344.59	2200.13
1345.67	2197.36
1346.75	2174.38
1347.82	2151.93
1348.9	2156.3
1349.98	2138.35
1351.05	2106.83
1352.13	2125.13
1353.2	2125.52
1354.28	2084.89
1355.36	2056.11
1356.43	2092.13
1357.51	2061.83
1358.58	2026.42
1359.66	2002.62
1360.73	2051.95
1361.81	1986.5
1362.88	2011.97
1363.96	1958.27
1365.03	1963.77
1366.1	1982.89
1367.18	1966.48
1368.25	1921.26
1369.33	1943.35
1370.4	1885.21
1371.47	1909.01
1372.54	1903.59
1373.62	1907.6
1374.69	1893.33
1375.76	1882.39
1376.83	1828.69
1377.91	1823.23
1378.98	1837.88
1380.05	1818.78
1381.12	1800.44
1382.19	1805.44
1383.26	1798.26
1384.34	1780.38
1385.41	1771.64
1386.48	1746.46
1387.55	1776.15
1388.62	1757.39
1389.69	1743.03
1390.76	1738.49
1391.83	1719.42
1392.9	1727.34
1393.02	1728
1394.1	1688
1395.17	1660
1396.25	1734
1397.32	1674
1398.4	1672
1399.47	1700
1400.55	1652
1401.62	1588
1402.69	1692
1403.77	1672
1404.84	1652
1405.91	1580
1406.99	1598
1408.06	1642
1409.13	1602
1410.2	1592
1411.27	1586
1412.35	1560
1413.42	1592
1414.49	1574
1415.56	1558
1416.63	1524
1417.7	1586
1418.78	1524
1419.85	1520
1420.92	1600
1421.99	1516
1423.06	1514
1424.13	1552
1425.2	1518
1426.27	1562
1427.34	1488
1428.41	1492
1429.48	1436
1430.55	1464
1431.61	1502
1432.68	1488
1433.75	1480
1434.82	1468
1435.89	1474
1436.96	1450
1438.02	1480
1439.09	1446
1440.16	1448
1441.23	1454
1442.3	1454
1443.36	1408
1444.43	1446
1445.5	1438
1446.56	1446
1447.63	1414
1448.7	1426
1449.76	1422
1450.83	1426
1451.89	1402
1452.96	1382
1454.02	1406
1455.09	1360
1456.15	1370
1457.22	1396
1458.28	1366
1459.35	1404
1460.41	1396
1461.48	1378
1462.54	1336
1463.61	1374
1464.67	1364
1465.73	1340
1466.8	1338
1467.86	1284
1468.92	1320
1469.98	1360
1471.05	1282
1472.11	1306
1473.17	1348
1474.24	1270
1475.3	1280
1476.36	1332
1477.42	1274
1478.48	1326
1479.54	1302
1480.6	1360
1481.67	1308
1482.73	1270
1483.79	1280
1484.85	1268
1485.91	1336
1486.97	1266
1488.03	1296
1489.09	1264
1490.15	1298
1491.21	1260
1492.27	1276
1493.33	1224
1494.38	1300
1495.44	1250
1496.5	1206
1497.56	1238
1498.62	1234
1499.68	1230
1500.74	1226
1501.79	1214
1502.85	1240
1503.91	1202
1504.97	1198
1506.02	1166
1507.08	1250
1508.14	1222
1509.2	1170
1510.25	1222
1511.31	1188
1512.36	1192
1513.42	1184
1514.48	1214
1515.53	1210
1516.59	1178
1517.64	1196
1518.7	1156
1519.75	1168
1520.81	1172
1521.86	1148
1522.92	1150
1523.97	1144
1525.02	1114
1526.08	1150
1527.13	1148
1528.19	1128
1529.24	1126
1530.29	1136
1531.35	1122
1532.4	1150
1533.45	1152
1534.51	1120
1535.56	1116
1536.61	1140
1537.66	1086
1538.72	1114
1539.77	1106
1540.82	1084
1541.87	1078
1542.92	1080
1543.97	1044
1545.02	1070
1546.08	1088
1547.13	1110
1548.18	1086
1549.23	1066
1550.28	1050
1551.33	1064
1552.38	1086
1553.43	1034
1554.48	1056
1555.53	1052
1556.57	1052
1557.62	1040
1558.67	1068
1559.72	1038
1560.77	1030
1561.82	1046
1562.87	1052
1563.92	1036
1564.96	1052
1566.01	1034
1567.06	1046
1568.11	1020
1569.15	986
1570.2	996
1571.25	986
1572.29	1022
1573.34	1040
1574.39	1020
1575.43	1030
1576.48	1018
1577.53	996
1578.57	1020
1579.62	1022
1580.66	970
1581.71	1014
1582.75	1004
1583.8	1004
1584.84	1004
1585.89	1018
1586.93	996
1587.98	982
1589.02	982
1590.06	1034
1591.11	982
1592.15	1008
1593.2	996
1594.24	964
1595.28	994
1596.33	994
1597.37	952
1598.41	1016
1599.45	936
1600.5	980
1601.54	980
1602.58	1000
1603.62	924
1604.66	948
1605.7	982
1606.75	1002
1607.79	974
1608.83	968
1609.87	954
1610.91	990
1611.95	940
1612.99	970
1614.03	976
1615.07	934
1616.11	944
1617.15	968
1618.19	970
1619.23	942
1620.27	984
1621.31	928
1622.35	946
1623.39	942
1624.43	904
1625.46	960
1626.5	944
1627.54	938
1628.58	900
1629.62	920
1630.65	960
1631.69	950
1632.73	948
1633.77	926
1634.8	914
1635.84	902
1636.88	938
1637.91	904
1638.95	922
1639.99	866
1641.02	926
1642.06	918
1643.09	910
1644.13	920
1645.16	902
1646.2	944
1647.23	912
1648.27	934
1649.3	884
1650.34	882
1651.37	876
1652.41	922
1653.44	928
1654.47	906
1655.51	852
1656.54	878
1657.57	906
1658.61	890
1659.64	910
1660.67	906
1661.71	882
1662.74	922
1663.77	876
1664.81	870
1665.84	886
1666.87	866
1667.9	888
1668.93	886
1669.96	850
1671	854
1672.03	868
1673.06	858
1674.09	844
1675.12	890
1676.15	860
1677.18	838
1678.21	872
1679.24	858
1680.27	876
1681.3	862
1682.33	892
1683.36	884
1684.39	878
1685.42	860
1686.45	880
1687.47	834
1688.5	830
1689.53	876
1690.56	864
1691.59	886
1692.62	850
1693.64	850
1694.67	834
1695.7	858
1696.73	838
1697.75	822
1698.78	844
1699.81	836
1700.83	796
1701.86	838
1702.89	824
1703.91	828
1704.94	804
1705.97	808
1706.99	806
1708.02	794
1709.04	808
1710.07	840
1711.09	844
1712.12	848
1713.14	886
1714.17	806
1715.19	830
1716.22	818
1717.24	818
1718.26	818
1719.29	828
1720.31	816
1721.33	810
1722.36	784
1723.38	818
1724.4	780
1725.43	794
1726.45	834
1727.47	824
1728.49	810
1729.52	790
1730.54	834
1731.56	816
1732.58	808
1733.6	804
1734.63	796
1735.65	804
1736.67	810
1737.69	792
1738.71	826
1739.73	812
1740.75	772
1741.77	814
1742.79	768
1743.81	786
1744.83	806
1745.85	824
1746.87	796
1747.89	806
1748.91	804
1749.93	784
1750.95	770
1751.97	812
1752.98	806
1754	808
1755.02	796
1756.04	800
1757.06	802
1758.07	798
1759.09	820
1760.11	776
1761.13	822
1762.14	810
1763.16	782
1764.18	792
1765.19	814
1766.21	810
1767.23	810
1768.24	820
1769.26	798
1770.28	784
1771.29	762
1772.31	818
1773.32	800
1774.34	788
1775.35	820
1776.37	788
1777.38	814
1778.4	814
1779.41	786
1780.43	806
1781.44	788
1782.45	786
1783.47	776
1784.48	774
1785.49	806
1786.51	778
1787.52	826
1788.53	802
1789.55	802
1790.56	798
1791.57	784
1792.58	772
1793.6	794
1794.61	738
1795.62	790
1796.63	798
1797.64	766
1798.66	794
1799.67	806
1800.68	780
1801.69	784
1802.7	778
1803.71	768
1804.72	776
1805.73	790
1806.74	788
1807.75	774
1808.76	778
1809.77	790
1810.78	804
1811.79	748
1812.8	768
1813.81	808
1814.82	770
1815.83	782
1816.84	782
1817.84	772
1818.85	778
1819.86	782
1820.87	756
1821.88	736
1822.88	744
1823.89	770
1824.9	790
1825.91	762
1826.91	764
1827.92	770
1828.93	780
1829.93	750
1830.94	764
1831.95	746
1832.95	752
1833.96	758
1834.97	786
1835.97	768
1836.98	770
1837.98	778
1838.99	762
1839.99	762
1841	766
1842	756
1843.01	740
1844.01	778
1845.02	784
1846.02	760
1847.02	746
1848.03	776
1849.03	780
1850.03	754
1851.04	760
1852.04	760
1853.04	744
1854.05	760
1855.05	750
1856.05	786
1857.05	750
1858.06	758
1859.06	760
1860.06	774
1861.06	758
1862.06	740
1863.07	780
1864.07	762
1865.07	754
1866.07	782
1867.07	748
1868.07	732
1869.07	776
1870.07	788
1871.07	756
1872.07	752
1873.07	720
1874.07	766
1875.07	764
1876.07	754
1877.07	744
1878.07	762
1879.07	790
1880.07	744
1881.07	736
1882.07	770
1883.06	726
1884.06	716
1885.06	728
1886.06	754
1887.06	750
1888.05	764
1889.05	738
1890.05	748
1891.05	734
1892.04	782
1893.04	750
1894.04	704
1895.03	734
1896.03	752
1897.03	736
1898.02	748
1899.02	764
1900.01	756
1901.01	754
1902	744
1903	754
1903.99	770
1904.99	742
1905.98	748
1906.98	782
1907.97	728
1908.97	746
1909.96	724
1910.96	786
1911.95	744
1912.94	738
1913.94	744
1914.93	754
1915.93	750
1916.92	734
1917.91	724
1918.9	714
1919.9	750
1920.89	760
1921.88	738
1922.87	722
1923.87	752
1924.86	726
1925.85	736
1926.84	748
1927.83	756
1928.82	722
1929.82	748
1930.81	738
1931.8	732
1932.79	758
1933.78	726
1934.77	788
1935.76	706
1936.75	772
1937.74	742
1938.73	762
1939.72	744
1940.71	710
1941.7	746
1942.69	736
1943.68	740
1944.67	712
1945.65	704
1946.64	784
1947.63	740
1948.62	724
1949.61	732
1950.6	734
1951.58	748
1952.57	732
1953.56	768
1954.55	762
1955.53	720
1956.52	744
1957.51	772
1958.5	718
1959.48	722
1960.47	736
1961.45	736
1962.44	718
1963.43	740
1964.41	782
1965.4	708
1966.38	702
1967.37	724
1968.35	724
1969.34	732
1970.32	724
1971.31	714
1972.29	736
1973.28	722
1974.26	724
1975.25	742
1976.23	740
1977.22	724
1978.2	710
1979.18	712
1980.17	714
1981.15	718
1982.13	724
1983.12	724
1984.1	718
1985.08	716
1986.06	772
1987.05	742
1988.03	752
1989.01	694
1989.99	716
1990.97	754
1991.96	724
1992.94	722
1993.92	738
1994.9	746
1995.88	730
1996.86	744
1997.84	724
1998.82	692
1999.8	726
2000.78	734
2001.76	734
2002.74	736
2003.72	734
2004.7	722
2005.68	720
2006.66	704
2007.64	680
2008.62	754
2009.6	734
2010.58	714
2011.56	730
2012.54	724
2013.51	724
2014.49	720
2015.47	754
2016.45	706
2017.43	744
2018.4	708
2019.38	746
2020.36	734
2021.34	740
2022.31	710
2023.29	720
2024.27	714
2025.24	704
2026.22	714
2027.2	712
2028.17	712
2029.15	712
2030.12	722
2031.1	716
2032.07	710
2033.05	732
2034.03	694
2035	708
2035.98	742
2036.95	730
2037.93	704
2038.9	722
2039.87	694
2040.85	700
2041.82	716
2042.8	734
2043.77	712
2044.74	730
2045.72	716
2046.69	718
2047.66	688
2048.64	734
2049.61	718
2050.58	742
2051.55	718
2052.53	714
2053.5	706
2054.47	678
2055.44	734
2056.41	738
2057.39	714
2058.36	716
2059.33	716
2060.3	728
2061.27	698
2062.24	702
2063.21	678
2064.18	706
2065.15	698
2066.12	710
2067.09	712
2068.06	678
2069.03	730
2070	752
2070.97	692
2071.94	718
2072.91	696
2073.88	684
2074.85	714
2075.82	694
2076.79	708
2077.76	694
2078.73	700
2079.69	704
2080.66	714
2081.63	696
2082.6	706
2083.56	706
2084.53	726
2085.5	674
2086.47	680
2087.43	696
2088.4	736
2089.37	696
2090.33	698
2091.3	736
2092.27	700
2093.23	724
2094.2	694
2095.17	710
2096.13	684
2097.1	722
2098.06	684
2099.03	676
2099.99	690
2100.96	724
2101.92	704
2102.89	720
2103.85	708
2104.82	704
2105.78	716
2106.74	724
2107.71	684
2108.67	728
2109.64	728
2110.6	728
2111.56	690
2112.53	700
2113.49	728
2114.45	716
2115.41	708
2116.38	704
2117.34	696
2118.3	690
2119.26	700
2120.23	736
2121.19	722
2122.15	708
2123.11	700
2124.07	748
2125.03	712
2126	692
2126.96	708
2127.92	692
2128.88	706
2129.84	692
2130.8	692
2131.76	702
2132.72	702
2133.68	718
2134.64	712
2135.6	728
2136.56	716
2137.52	688
2138.48	708
2139.44	696
2140.4	716
2141.35	712
2142.31	698
2143.27	706
2144.23	696
2145.19	666
2146.15	718
2147.1	718
2148.06	708
2149.02	726
2149.98	718
2150.94	698
2151.89	700
2152.85	698
2153.81	666
2154.76	676
2155.72	690
2156.68	704
2157.63	724
2158.59	714
2159.55	686
2160.5	696
2161.46	658
2162.41	684
2163.37	716
2164.32	674
2165.28	704
2166.23	698
2167.19	670
2168.14	704
2169.1	696
2170.05	694
2171.01	694
2171.96	686
2172.91	686
2173.87	694
2174.82	710
2175.78	684
2176.73	656
2177.68	716
2178.64	698
2179.59	724
2180.54	716
2181.49	666
2182.45	710
2183.4	704
2184.35	688
2185.3	692
2186.26	700
2187.21	676
2188.16	674
2189.11	672
2190.06	672
2191.01	664
2191.96	678
2192.92	690
2193.87	674
2194.82	706
2195.77	658
2196.72	658
2197.67	648
2198.62	702
2199.57	696
2200.52	640
2201.47	666
2202.42	698
2203.37	690
2204.32	658
2205.27	664
2206.22	672
2207.16	688
2208.11	642
2209.06	688
2210.01	672
2210.96	696
2211.91	672
2212.85	698
2213.8	682
2214.75	660
2215.7	656
2216.64	680
2217.59	704
2218.54	672
2219.49	714
2220.43	698
2221.38	700
2222.33	668
2223.27	688.071
2224.22	666.089
2225.16	686.667
2226.11	675.08
2227.06	661.253
2228	665.089
2228.95	674.256
2229.89	638.949
2230.84	686.281
2231.78	683.537
2232.73	692.847
2233.67	693.865
2234.62	674.994
2235.56	672.91
2236.51	685.333
2237.45	691.559
2238.4	691.14
2239.34	685.859
2240.28	651.984
2241.23	674.987
2242.17	665.805
2243.11	658.129
2244.06	675.418
2245	663.258
2245.94	678.082
2246.89	658.58
2247.83	666.872
2248.77	671.573
2249.71	672.709
2250.66	667.134
2251.6	679.29
2252.54	674.49
2253.48	646.299
2254.42	697.089
2255.37	679.905
2256.31	665.607
2257.25	675.62
2258.19	669.363
2259.13	666.417
2260.07	661.851
2261.01	668.018
2261.95	667.439
2262.89	676.267
2263.83	661.3
2264.77	663.379
2265.71	681.379
2266.65	663.647
2267.59	671.14
2268.53	683.089
2269.47	682.429
2270.41	654.049
2271.35	672.495
2272.29	678.648
2273.23	680.673
2274.17	678.221
2275.1	666.205
2276.04	651.219
2276.98	653.818
2277.92	636.49
2278.86	634.54
2279.8	644.59
2280.73	639.995
2281.67	674.095
2282.61	653.487
2283.55	651.029
2284.48	656.938
2285.42	658.7
2286.36	665.945
2287.29	662.465
2288.23	658.199
2289.17	661.591
2290.1	659.633
2291.04	657.1
2291.98	651.394
2292.91	659.016
2293.85	642.346
2294.78	635.88
2295.72	631.046
2296.65	650.042
2297.59	664.608
2298.52	680.262
2299.46	660.568
2300.39	662.456
2301.33	657.338
2302.26	640.642
2303.2	653.892
2304.13	643.216
2305.06	633
2306	624.863
2306.93	641.732
2307.87	644.354
2308.8	640.44
2309.73	643.268
2310.67	653.862
2311.6	640.174
2312.53	637.08
2313.46	632.863
2314.4	643.502
2315.33	654.37
2316.26	657.873
2316.69	666
2317.62	622
2318.56	644
2319.5	630
2320.43	654
2321.37	656
2322.31	622
2323.24	664
2324.18	646
2325.12	634
2326.05	642
2326.99	642
2327.92	652
2328.86	658
2329.79	626
2330.73	624
2331.66	640
2332.6	686
2333.53	642
2334.47	628
2335.4	630
2336.34	642
2337.27	666
2338.2	650
2339.14	658
2340.07	622
2341.01	644
2341.94	594
2342.87	650
2343.81	644
2344.74	674
2345.67	632
2346.6	650
2347.54	636
2348.47	608
2349.4	626
2350.33	586
2351.27	634
2352.2	626
2353.13	600
2354.06	656
2354.99	644
2355.93	640
2356.86	606
2357.79	662
2358.72	622
2359.65	632
2360.58	632
2361.51	624
2362.44	608
2363.37	608
2364.3	624
2365.23	602
2366.16	598
2367.09	606
2368.02	640
2368.95	618
2369.88	606
2370.81	602
2371.74	606
2372.67	618
2373.6	602
2374.52	608
2375.45	614
2376.38	590
2377.31	614
2378.24	616
2379.17	574
2380.09	632
2381.02	630
2381.95	618
2382.88	594
2383.8	584
2384.73	586
2385.66	578
2386.58	580
2387.51	572
2388.44	592
2389.36	596
2390.29	600
2391.22	606
2392.14	574
2393.07	618
2393.99	582
2394.92	620
2395.85	580
2396.77	614
2397.7	576
2398.62	584
2399.55	592
2400.47	584
2401.4	588
2402.32	576
2403.25	600
2404.17	578
2405.09	598
2406.02	578
2406.94	618
2407.86	594
2408.79	592
2409.71	572
2410.63	572
2411.56	578
2412.48	544
2413.4	570
2414.33	558
2415.25	578
2416.17	550
2417.09	570
2418.02	568
2418.94	568
2419.86	568
2420.78	524
2421.7	556
2422.63	562
2423.55	570
2424.47	554
2425.39	578
2426.31	534
2427.23	550
2428.15	538
2429.07	576
2429.99	548
2430.91	560
2431.83	586
2432.75	546
2433.67	536
2434.59	566
2435.51	580
2436.43	590
2437.35	546
2438.27	558
2439.19	540
2440.11	552
2441.03	550
2441.95	564
2442.86	556
2443.78	560
2444.7	564
2445.62	556
2446.54	562
2447.46	546
2448.37	530
2449.29	556
2450.21	538
2451.13	516
2452.04	542
2452.96	544
2453.88	542
2454.79	538
2455.71	526
2456.63	520
2457.54	538
2458.46	512
2459.38	516
2460.29	512
2461.21	538
2462.12	540
2463.04	528
2463.95	542
2464.87	536
2465.78	508
2466.7	520
2467.61	506
2468.53	514
2469.44	528
2470.36	508
2471.27	512
2472.19	534
2473.1	512
2474.01	538
2474.93	496
2475.84	508
2476.76	512
2477.67	516
2478.58	520
2479.5	538
2480.41	504
2481.32	526
2482.23	496
2483.15	546
2484.06	500
2484.97	498
2485.88	538
2486.8	490
2487.71	482
2488.62	480
2489.53	480
2490.44	498
2491.35	516
2492.26	506
2493.18	498
2494.09	484
2495	518
2495.91	506
2496.82	518
2497.73	494
2498.64	492
2499.55	486
2500.46	484
2501.37	480
2502.28	482
2503.19	500
2504.1	470
2505.01	468
2505.92	488
2506.83	450
2507.74	470
2508.65	442
2509.55	472
2510.46	468
2511.37	454
2512.28	474
2513.19	460
2514.09	452
2515	492
2515.91	476
2516.82	456
2517.73	472
2518.63	454
2519.54	472
2520.45	470
2521.35	456
2522.26	448
2523.17	428
2524.07	454
2524.98	426
2525.89	458
2526.79	462
2527.7	452
2528.6	450
2529.51	470
2530.42	448
2531.32	436
2532.23	436
2533.13	444
2534.04	446
2534.94	446
2535.85	452
2536.75	428
2537.66	460
2538.56	436
2539.47	456
2540.37	454
2541.27	458
2542.18	456
2543.08	456
2543.98	422
2544.89	438
2545.79	430
2546.7	456
2547.6	476
2548.5	446
2549.4	436
2550.31	430
2551.21	430
2552.11	422
2553.01	430
2553.92	454
2554.82	436
2555.72	418
2556.62	462
2557.52	434
2558.42	428
2559.33	426
2560.23	418
2561.13	456
2562.03	424
2562.93	420
2563.83	410
2564.73	418
2565.63	420
2566.53	400
2567.43	400
2568.33	418
2569.23	426
2570.13	410
2571.03	438
2571.93	378
2572.83	414
2573.73	414
2574.63	396
2575.53	410
2576.43	382
2577.33	382
2578.22	430
2579.12	418
2580.02	388
2580.92	404
2581.82	408
2582.72	404
2583.61	402
2584.51	382
2585.41	406
2586.31	416
2587.2	424
2588.1	388
2589	398
2589.89	404
2590.79	392
2591.69	386
2592.58	416
2593.48	382
2594.38	370
2595.27	410
2596.17	404
2597.06	392
2597.96	376
2598.86	406
2599.75	378
2600.65	410
2601.54	394
2602.44	386
2603.33	404
2604.23	400
2605.12	368
2606.02	380
2606.91	372
2607.81	396
2608.7	382
2609.59	366
2610.49	394
2611.38	388
2612.27	394
2613.17	380
2614.06	370
2614.95	370
2615.85	374
2616.74	376
2617.63	392
2618.53	374
2619.42	370
2620.31	396
2621.2	380
2622.1	378
2622.99	340
2623.88	352
2624.77	356
2625.66	350
2626.55	364
2627.45	360
2628.34	394
2629.23	350
2630.12	354
2631.01	356
2631.9	362
2632.79	378
2633.68	370
2634.57	358
2635.46	350
2636.35	334
2637.24	376
2638.13	348
2639.02	342
2639.91	346
2640.8	348
2641.69	360
2642.58	356
2643.47	362
2644.36	364
2645.25	370
2646.14	352
2647.02	326
2647.91	358
2648.8	378
2649.69	368
2650.58	364
2651.46	346
2652.35	344
2653.24	346
2654.13	344
2655.01	342
2655.9	348
2656.79	356
2657.68	332
2658.56	334
2659.45	336
2660.34	344
2661.22	340
2662.11	338
2662.99	324
2663.88	338
2664.77	330
2665.65	334
2666.54	334
2667.42	310
2668.31	330
2669.2	326
2670.08	348
2670.96	330
2671.85	340
2672.73	312
2673.62	340
2674.5	342
2675.39	334
2676.27	324
2677.16	318
2678.04	336
2678.93	316
2679.81	314
2680.69	312
2681.58	340
2682.46	330
2683.34	334
2684.23	302
2685.11	326
2685.99	328
2686.87	322
2687.76	298
2688.64	308
2689.52	290
2690.4	304
2691.28	332
2692.17	306
2693.05	314
2693.93	312
2694.81	328
2695.69	328
2696.57	296
2697.46	308
2698.34	316
2699.22	308
2700.1	300
2700.98	320
2701.86	302
2702.74	302
2703.62	308
2704.5	302
2705.38	314
2706.26	284
2707.14	300
2708.02	290
2708.9	308
2709.78	288
2710.66	284
2711.54	316
2712.42	292
2713.3	286
2714.17	296
2715.05	292
2715.93	286
2716.81	288
2717.69	270
2718.57	302
2719.44	302
2720.32	296
2721.2	286
2722.08	300
2722.95	274
2723.83	278
2724.71	288
2725.59	312
2726.46	294
2727.34	310
2728.22	286
2729.09	274
2729.97	294
2730.85	304
2731.72	288
2732.6	282
2733.47	272
2734.35	264
2735.23	276
2736.1	280
2736.98	278
2737.85	278
2738.73	252
2739.6	272
2740.48	278
2741.35	268
2742.23	274
2743.1	282
2743.98	268
2744.85	268
2745.72	262
2746.6	266
2747.47	264
2748.35	268
2749.22	262
2750.09	254
2750.97	266
2751.84	282
2752.71	270
2753.59	272
2754.46	266
2755.33	244
2756.2	264
2757.08	254
2757.95	250
2758.82	246
2759.69	278
2760.57	242
2761.44	274
2762.31	256
2763.18	252
2764.05	246
2764.92	226
2765.79	266
2766.67	260
2767.54	260
2768.41	258
2769.28	250
2770.15	240
2771.02	238
2771.89	244
2772.76	240
2773.63	250
2774.5	250
2775.37	252
2776.24	238
2777.11	252
2777.98	250
2778.85	250
2779.72	232
2780.59	242
2781.46	276
2782.32	252
2783.19	246
2784.06	244
2784.93	246
2785.8	232
2786.67	236
2787.53	242
2788.4	222
2789.27	258
2790.14	228
2791.01	224
2791.87	248
2792.74	250
2793.61	236
2794.47	218
2795.34	230
2796.21	250
2797.07	234
2797.94	236
2798.81	230
2799.67	230
2800.54	224
2801.41	220
2802.27	236
2803.14	214
2804	222
2804.87	234
2805.74	228
2806.6	226
2807.47	218
2808.33	232
2809.2	230
2810.06	216
2810.93	226
2811.79	218
2812.65	232
2813.52	226
2814.38	220
2815.25	210
2816.11	212
2816.98	216
2817.84	214
2818.7	236
2819.56	230
2820.43	208
2821.29	212
2822.16	196
2823.02	204
2823.88	224
2824.74	198
2825.61	226
2826.47	200
2827.33	198
2828.19	202
2829.05	200
2829.92	212
2830.78	198
2831.64	198
2832.5	214
2833.36	204
2834.23	196
2835.09	204
2835.95	200
2836.81	210
2837.67	198
2838.53	198
2839.39	212
2840.25	210
2841.11	204
2841.97	200
2842.83	214
2843.69	202
2844.55	204
2845.41	224
2846.27	200
2847.13	188
2847.99	188
2848.85	190
2849.71	184
2850.57	180
2851.43	204
2852.28	178
2853.14	194
2854	210
2854.86	188
2855.72	200
2856.58	202
2857.43	194
2858.29	196
2859.15	204
2860.01	202
2860.86	192
2861.72	166
2862.58	188
2863.44	198
2864.29	178
2865.15	188
2866.01	196
2866.86	198
2867.72	192
2868.58	178
2869.43	192
2870.29	180
2871.14	190
2872	190
2872.86	184
2873.71	179
2874.57	174
2875.42	192
2876.28	206
2877.13	190
2877.99	190
2878.84	164
2879.7	168
2880.55	176
2881.41	182
2882.26	190
2883.11	180
2883.97	182
2884.82	186
2885.68	176
2886.53	174
2887.39	188
2888.24	188
2889.09	192
2889.94	170
2890.8	170
2891.65	170
2892.5	190
2893.36	174
2894.21	176
2895.06	178
2895.91	190
2896.77	176
2897.62	174
2898.47	172
2899.32	170
2900.17	174
2901.03	186
2901.88	164
2902.73	170
2903.58	174
2904.43	168
2905.28	156
2906.13	162
2906.98	170
2907.84	182
2908.69	162
2909.54	166
2910.39	166
2911.24	168
2912.09	182
2912.94	158
2913.79	178
2914.64	170
2915.49	178
2916.34	180
2917.19	166
2918.03	156
2918.88	182
2919.73	164
2920.58	154
2921.43	152
2922.28	162
2923.13	166
2923.98	168
2924.82	156
2925.67	156
2926.52	160
2927.37	156
2928.22	168
2929.06	154
2929.91	158
2930.76	156
2931.61	164
2932.45	150
2933.3	158
2934.15	154
2934.99	156
2935.84	144
2936.69	184
2937.53	164
2938.38	144
2939.23	146
2940.07	164
2940.92	138
2941.76	148
2942.61	156
2943.46	166
2944.3	152
2945.15	150
2945.99	144
2946.84	154
2947.68	154
2948.53	164
2949.37	148
2950.22	158
2951.06	140
2951.9	158
2952.75	160
2953.59	142
2954.44	148
2955.28	138
2956.12	142
2956.97	146
2957.81	164
2958.65	158
2959.5	158
2960.34	146
2961.18	138
2962.03	156
2962.87	144
2963.71	148
2964.56	144
2965.4	146
2966.24	150
2967.08	142
2967.92	142
2968.77	156
2969.61	134
2970.45	138
2971.29	136
2972.13	160
2972.97	144
2973.82	144
2974.66	128
2975.5	150
2976.34	156
2977.18	142
2978.02	134
2978.86	138
2979.7	142
2980.54	138
2981.38	136
2982.22	140
2983.06	140
2983.9	138
2984.74	144
2985.58	138
2986.42	142
2987.26	148
2988.1	136
2988.94	134
2989.78	142
2990.61	144
2991.45	146
2992.29	128
2993.13	148
2993.97	132
2994.81	118
2995.64	134
2996.48	136
2997.32	130
2998.16	152
2999	128
2999.83	136
