#Acq. time (s)=	10
#Accumulations=	1
#Range (cm-¹)=	200...3000
#Windows=	3
#Autofocus=	Off
#AutoExposure=	Off
#Spike filter=	Off
#Delay time (s)=	0
#Binning=	1
#Readout mode=	Signal
#DeNoise=	Off
#ICS correction=	Off
#Dark correction=	Off
#Inst. Process=	Off
#Instrument=	LabRAM HR Evol
#Detector=	Syncerity OE
#Objective=	x100_VIS
#Grating=	600 (500nm)
#ND Filter=	1%
#Laser=	633nm_Edge
#Hole=	30.0125
#Range=	Visible
#Project=	Omar
#Sample=	03-07-23
#Site=	fings
#Title=	inside_pr
#Remark=	
#Date=	03.07.2023 15:08
#Acquired=	03.07.2023 15:08:13
201.713	56
202.98	58
204.247	60
205.513	66
206.778	64
208.045	60
209.311	64
210.576	64
211.84	46
213.106	58
214.371	60
215.636	60
216.899	70
218.164	68
219.428	72
220.692	68
221.955	62
223.219	64
224.482	62
225.744	66
227.007	62
228.27	62
229.531	72
230.794	70
232.055	72
233.317	58
234.579	76
235.839	52
237.1	76
238.362	64
239.621	68
240.882	66
242.141	68
243.402	68
244.661	74
245.921	72
247.179	78
248.439	70
249.698	80
250.956	80
252.215	74
253.473	64
254.731	80
255.988	76
257.246	84
258.503	76
259.761	70
261.017	76
262.273	72
263.53	74
264.786	86
266.042	74
267.298	74
268.554	80
269.809	76
271.063	72
272.319	68
273.573	82
274.828	76
276.082	80
277.336	78
278.591	64
279.844	72
281.097	78
282.351	78
283.603	68
284.855	76
286.109	74
287.361	78
288.613	82
289.866	76
291.117	78
292.368	80
293.62	82
294.871	80
296.121	84
297.372	76
298.623	88
299.873	70
301.123	82
302.372	70
303.622	70
304.872	88
306.121	90
307.37	88
308.618	80
309.866	78
311.116	96
312.364	96
313.611	80
314.859	84
316.106	82
317.353	90
318.6	96
319.848	84
321.095	94
322.341	90
323.587	92
324.833	92
326.079	82
327.324	100
328.569	94
329.814	94
331.059	94
332.304	88
333.548	94
334.792	98
336.037	106
337.28	90
338.524	88
339.767	90
341.011	108
342.254	94
343.497	94
344.739	102
345.982	102
347.224	102
348.466	100
349.708	104
350.95	94
352.191	102
353.432	96
354.673	98
355.914	98
357.155	102
358.394	100
359.634	100
360.874	104
362.114	100
363.354	112
364.593	110
365.832	112
367.07	120
368.309	94
369.548	104
370.786	104
372.024	112
373.261	112
374.499	92
375.736	106
376.974	112
378.211	122
379.447	104
380.684	118
381.92	118
383.157	112
384.392	114
385.628	102
386.864	112
388.098	110
389.333	114
390.569	124
391.802	114
393.037	108
394.272	120
395.505	124
396.739	112
397.973	118
399.206	116
400.44	130
401.673	118
402.905	120
404.138	126
405.37	120
406.602	124
407.835	122
409.066	124
410.298	110
411.528	118
412.76	134
413.99	132
415.221	128
416.451	128
417.682	136
418.911	114
420.142	124
421.371	116
422.601	138
423.83	128
425.059	120
426.288	132
427.517	138
428.745	138
429.974	124
431.201	140
432.43	134
433.657	130
434.883	144
436.111	132
437.338	134
438.565	142
439.791	158
441.017	140
442.244	128
443.469	152
444.695	142
445.921	140
447.146	142
448.37	150
449.596	142
450.821	142
452.045	142
453.27	142
454.493	142
455.717	148
456.94	150
458.165	148
459.387	140
460.61	152
461.833	134
463.056	138
464.278	146
465.5	168
466.722	154
467.945	144
469.166	144
470.387	146
471.608	152
472.829	156
474.049	146
475.271	148
476.491	156
477.711	166
478.931	158
480.15	170
481.37	156
482.589	156
483.808	172
485.027	156
486.247	150
487.465	176
488.683	162
489.901	172
491.119	158
492.337	148
493.554	168
494.771	160
495.988	156
497.205	172
498.422	172
499.638	184
500.854	164
502.07	160
503.286	168
504.502	160
505.717	178
506.933	184
508.148	174
509.363	174
510.577	174
511.792	168
513.005	176
514.219	174
515.433	172
516.647	200
517.86	178
519.073	168
520.287	172
521.5	196
522.711	184
523.924	178
525.136	188
526.348	182
527.56	190
528.772	180
529.982	200
531.194	188
532.405	192
533.616	190
534.825	180
536.036	190
537.246	190
538.457	202
539.665	190
540.875	188
542.085	172
543.294	202
544.502	198
545.712	202
546.92	190
548.128	190
549.336	212
550.545	178
551.751	198
552.959	206
554.167	202
555.373	198
556.581	198
557.788	200
558.994	206
560.2	210
561.406	198
562.612	214
563.817	204
565.023	198
566.229	214
567.433	212
568.639	204
569.843	232
571.048	202
572.251	202
573.456	214
574.659	228
575.863	232
577.066	210
578.27	202
579.472	214
580.676	226
581.878	210
583.081	228
584.283	226
585.484	238
586.687	228
587.888	236
589.09	216
590.291	246
591.493	220
592.693	230
593.893	242
595.094	232
596.294	236
597.494	228
598.694	224
599.894	216
601.093	240
602.293	256
603.491	246
604.69	236
605.889	252
607.087	252
608.285	252
609.483	254
610.682	242
611.879	252
613.076	248
614.273	264
615.471	236
616.667	274
617.864	260
619.06	246
620.256	272
621.453	266
622.648	264
623.844	272
625.039	280
626.234	258
627.429	278
628.625	260
629.819	266
631.013	286
632.208	274
633.401	266
634.595	268
635.789	290
636.982	276
638.175	290
639.369	296
640.562	274
641.755	290
642.947	286
644.139	302
645.331	298
646.523	300
647.715	296
648.906	288
650.097	310
651.288	312
652.479	306
653.67	292
654.86	290
656.051	300
657.241	310
658.429	314
659.619	310
660.808	328
661.998	308
663.187	308
664.376	328
665.565	308
666.753	322
667.942	314
669.13	334
670.317	314
671.505	340
672.692	322
673.88	330
675.067	312
676.254	352
677.44	314
678.627	314
679.813	312
681	344
682.184	340
683.37	342
684.556	336
685.742	342
686.926	334
688.111	338
689.296	338
690.481	354
691.664	352
692.849	366
694.033	350
695.216	358
696.4	344
697.584	362
698.766	380
699.949	370
701.133	396
702.314	388
703.497	362
704.678	378
705.861	410
707.043	378
708.224	374
709.406	378
710.586	388
711.768	400
712.949	406
714.129	402
715.31	384
716.489	418
717.67	398
718.849	410
720.029	410
721.208	402
722.388	420
723.566	394
724.746	428
725.924	414
727.103	416
728.28	424
729.458	422
730.636	418
731.814	450
732.992	456
734.168	424
735.345	458
736.523	436
737.699	440
738.876	444
740.052	434
741.227	454
742.404	458
743.579	454
744.754	452
745.931	464
747.105	466
748.28	484
749.455	466
750.629	482
751.803	486
752.977	498
754.152	466
755.325	480
756.499	500
757.672	498
758.846	488
760.018	476
761.191	506
762.363	502
763.535	518
764.708	526
765.88	502
767.052	522
768.223	542
769.394	498
770.565	544
771.737	544
772.908	534
774.078	534
775.249	512
776.419	526
777.589	528
778.758	562
779.928	538
781.097	524
782.266	568
783.435	584
784.604	538
785.773	566
786.941	592
788.11	568
789.278	570
790.446	570
791.613	584
792.781	588
793.948	586
795.115	616
796.282	546
797.449	606
798.616	614
799.782	586
800.948	630
802.115	594
803.28	630
804.446	630
805.612	600
806.777	654
807.941	622
809.106	632
810.271	634
811.435	638
812.6	664
813.764	608
814.927	662
816.091	690
817.254	634
818.418	680
819.581	680
820.743	682
821.906	666
823.069	722
824.232	666
825.393	710
826.555	688
827.717	712
828.879	758
830.039	712
831.201	680
832.362	702
833.522	736
834.683	738
835.844	748
837.003	756
838.164	756
839.324	754
840.483	774
841.643	754
842.801	790
843.961	736
845.12	778
846.278	784
847.437	764
848.594	818
849.753	812
850.91	804
852.069	798
853.227	794
854.383	804
855.541	810
856.697	828
857.855	808
859.011	856
860.168	814
861.323	808
862.48	852
863.635	866
864.79	840
865.946	876
867.101	846
868.257	904
869.411	888
870.567	886
871.721	910
872.874	890
874.029	912
875.183	916
876.336	926
877.49	924
878.643	902
879.796	910
880.95	910
882.102	932
883.254	928
884.407	938
885.559	960
886.711	958
887.862	954
889.015	966
890.166	950
891.317	960
892.467	964
893.619	958
894.77	962
895.92	1008
897.07	1028
898.221	996
899.371	988
900.52	1026
901.669	1006
902.819	1012
903.968	1030
905.116	1020
906.266	1036
907.415	1016
908.563	1002
909.711	1024
910.859	1066
912.007	1046
913.154	1052
914.301	1058
915.449	1114
916.596	1062
917.742	1108
918.889	1112
920.036	1094
921.183	1086
922.329	1070
923.475	1098
924.621	1148
925.765	1128
926.911	1154
928.056	1114
929.201	1154
930.346	1140
931.49	1132
932.635	1222
933.779	1196
934.924	1188
936.068	1194
937.211	1218
938.355	1222
939.498	1234
940.64	1206
941.784	1256
942.926	1282
944.069	1214
945.212	1234
946.354	1270
947.495	1234
948.637	1270
949.779	1304
950.921	1272
952.062	1310
953.202	1314
954.344	1308
955.484	1278
956.625	1330
957.765	1296
958.905	1322
960.045	1336
961.184	1370
962.324	1390
963.464	1366
964.604	1376
965.742	1384
966.881	1390
968.02	1396
969.158	1414
970.296	1406
971.434	1420
972.572	1420
973.71	1478
974.847	1458
975.985	1440
977.121	1452
978.259	1456
979.396	1508
980.532	1470
981.669	1466
982.804	1520
983.941	1496
985.076	1470
986.212	1526
987.347	1502
988.483	1530
989.617	1532
990.753	1506
991.887	1504
993.022	1568
994.156	1536
995.29	1614
996.424	1566
997.558	1586
998.692	1640
999.825	1638
1000.96	1576
1002.09	1566
1003.22	1598
1004.36	1634
1005.49	1654
1006.62	1660
1007.75	1634
1008.89	1644
1010.02	1668
1011.15	1742
1012.28	1676
1013.41	1706
1014.54	1706
1015.67	1722
1016.8	1728
1017.93	1718
1019.07	1734
1020.19	1770
1021.32	1816
1022.45	1808
1023.58	1792
1024.71	1764
1025.84	1810
1026.97	1806
1028.1	1794
1029.23	1842
1030.36	1854
1031.49	1790
1032.61	1872
1033.74	1848
1034.87	1864
1036	1852
1037.12	1914
1038.25	1944
1039.38	1948
1040.5	1938
1041.63	1978
1042.76	1944
1043.88	1958
1045.01	1938
1046.14	1966
1047.26	2062
1048.39	2016
1049.51	2038
1050.64	2046
1051.76	1952
1052.89	2044
1054.01	2108
1055.14	2064
1056.26	2096
1057.38	2070
1058.51	2028
1059.63	2112
1060.75	2104
1061.88	2100
1063	2096
1064.12	2156
1065.25	2148
1066.37	2150
1067.49	2176
1068.61	2160
1069.73	2122
1070.86	2138
1071.98	2212
1073.1	2186
1074.22	2158
1075.34	2210
1076.46	2206
1077.58	2228
1078.7	2264
1079.82	2184
1080.94	2234
1082.06	2192
1083.18	2288
1084.3	2250
1085.42	2288
1086.54	2336
1087.66	2310
1088.78	2320
1089.9	2284
1091.02	2312
1092.14	2344
1093.25	2346
1094.37	2346
1095.49	2348
1096.61	2322
1097.72	2376
1098.84	2348
1099.96	2388
1101.08	2354
1102.19	2436
1103.31	2456
1104.43	2386
1105.54	2402
1106.66	2396
1107.77	2360
1108.89	2416
1110	2402
1111.12	2438
1112.23	2494
1113.35	2486
1114.46	2438
1115.58	2456
1116.69	2396
1117.81	2452
1118.92	2480
1120.03	2448
1121.15	2506
1122.26	2474
1123.37	2484
1124.49	2550
1125.6	2564
1126.71	2584
1127.83	2460
1128.94	2528
1130.05	2520
1131.16	2584
1132.27	2566
1133.39	2584
1134.5	2534
1135.61	2580
1136.72	2568
1137.83	2522
1138.94	2522
1140.05	2636
1141.16	2606
1142.27	2586
1143.38	2620
1144.49	2674
1145.6	2620
1146.71	2620
1147.82	2634
1148.93	2700
1150.04	2652
1151.15	2640
1152.26	2598
1153.36	2676
1154.47	2638
1155.58	2642
1156.69	2658
1157.8	2686
1158.9	2690
1160.01	2684
1161.12	2658
1162.22	2708
1163.33	2734
1164.44	2674
1165.54	2692
1166.65	2710
1167.76	2756
1168.86	2666
1169.97	2718
1171.07	2680
1172.18	2730
1173.28	2694
1174.39	2686
1175.49	2700
1176.6	2704
1177.7	2718
1178.81	2712
1179.91	2708
1181.02	2694
1182.12	2674
1183.22	2686
1184.33	2696
1185.43	2642
1186.53	2686
1187.63	2766
1188.74	2722
1189.84	2598
1190.94	2690
1192.04	2640
1193.15	2678
1194.25	2632
1195.35	2690
1196.45	2592
1197.55	2594
1198.65	2636
1199.75	2628
1200.85	2612
1201.95	2644
1203.05	2588
1204.16	2630
1205.25	2586
1206.35	2610
1207.45	2588
1208.55	2596
1209.65	2652
1210.75	2622
1211.85	2580
1212.95	2610
1214.05	2624
1215.15	2522
1216.24	2622
1217.34	2508
1218.44	2508
1219.54	2598
1220.64	2498
1221.73	2474
1222.83	2514
1223.93	2524
1225.02	2572
1226.12	2506
1227.22	2506
1228.31	2468
1229.41	2442
1230.5	2490
1231.6	2436
1232.7	2472
1233.79	2482
1234.89	2440
1235.98	2492
1237.08	2400
1238.17	2448
1239.26	2406
1240.36	2488
1241.45	2456
1242.55	2404
1243.64	2406
1244.73	2438
1245.83	2374
1246.92	2408
1248.01	2358
1249.11	2368
1250.2	2344
1251.29	2394
1252.38	2358
1253.48	2368
1254.57	2382
1255.66	2348
1256.75	2260
1257.84	2326
1258.93	2324
1260.03	2288
1261.12	2314
1262.21	2240
1263.3	2334
1264.39	2270
1265.48	2248
1266.57	2228
1267.66	2240
1268.75	2226
1269.84	2282
1270.93	2174
1272.02	2268
1273.11	2278
1274.19	2242
1275.28	2230
1276.37	2254
1277.46	2154
1278.55	2176
1279.64	2220
1280.72	2134
1281.81	2148
1282.9	2088
1283.98	2108.96
1285.07	2173.3
1286.16	2191.56
1287.25	2123.23
1288.33	2086.3
1289.42	2072.33
1290.5	2088.8
1291.59	2123.85
1292.68	2042.22
1293.76	2063.79
1294.85	2012.05
1295.93	1992.11
1297.02	1991.88
1298.1	2008.12
1299.19	2023.75
1300.27	1967.72
1301.36	1987.35
1302.44	2001.72
1303.53	1989.58
1304.61	1940.69
1305.69	1932.41
1306.78	1919.72
1307.86	1931.48
1308.94	1908.64
1310.03	1875.72
1311.11	1866.73
1312.19	1887.15
1313.27	1875.43
1314.36	1871.17
1315.44	1844.78
1316.52	1816.63
1317.6	1820.85
1318.68	1814.35
1319.77	1767.91
1320.85	1794.86
1321.93	1740.88
1323.01	1752.32
1324.09	1783
1325.17	1765.12
1326.25	1729.3
1327.33	1712.35
1328.41	1723.97
1329.49	1710.36
1330.57	1688.63
1331.65	1665.49
1332.73	1633.25
1333.81	1647.04
1334.89	1674.68
1335.97	1626.09
1337.04	1626.88
1338.12	1640.09
1339.2	1599.94
1340.28	1587.01
1341.36	1591
1342.44	1571.1
1343.51	1556.19
1344.59	1566.79
1345.67	1565.14
1346.75	1523.77
1347.82	1532.8
1348.9	1537.03
1349.98	1515.99
1351.05	1517.06
1352.13	1491.48
1353.2	1515.59
1354.28	1485.78
1355.36	1500.24
1356.43	1478.6
1357.51	1460.72
1358.58	1473.77
1359.66	1397.77
1360.73	1462.85
1361.81	1428.34
1362.88	1401.32
1363.96	1408.57
1365.03	1363.86
1366.1	1418.35
1367.18	1389.79
1368.25	1384.25
1369.33	1366.72
1370.4	1364.77
1371.47	1339.76
1372.54	1351.6
1373.62	1327.8
1374.69	1329.05
1375.76	1329.52
1376.83	1361.75
1377.91	1308
1378.98	1334.44
1380.05	1328.61
1381.12	1325.05
1382.19	1298.47
1383.26	1273.88
1384.34	1275
1385.41	1264.53
1386.48	1261.05
1387.55	1266.85
1388.62	1245.73
1389.69	1212.01
1390.76	1234.28
1391.83	1211.42
1392.9	1198.11
1393.02	1196
1394.1	1218
1395.17	1184
1396.25	1220
1397.32	1202
1398.4	1196
1399.47	1228
1400.55	1262
1401.62	1146
1402.69	1168
1403.77	1188
1404.84	1154
1405.91	1204
1406.99	1172
1408.06	1164
1409.13	1192
1410.2	1130
1411.27	1144
1412.35	1158
1413.42	1136
1414.49	1190
1415.56	1146
1416.63	1144
1417.7	1166
1418.78	1122
1419.85	1082
1420.92	1086
1421.99	1112
1423.06	1098
1424.13	1128
1425.2	1132
1426.27	1098
1427.34	1100
1428.41	1122
1429.48	1108
1430.55	1076
1431.61	1124
1432.68	1062
1433.75	1084
1434.82	1048
1435.89	1070
1436.96	1076
1438.02	1042
1439.09	1024
1440.16	1068
1441.23	1042
1442.3	1032
1443.36	1020
1444.43	1046
1445.5	1024
1446.56	1024
1447.63	1002
1448.7	1006
1449.76	972
1450.83	1022
1451.89	1004
1452.96	998
1454.02	988
1455.09	984
1456.15	988
1457.22	1056
1458.28	1026
1459.35	984
1460.41	968
1461.48	992
1462.54	944
1463.61	982
1464.67	986
1465.73	950
1466.8	982
1467.86	990
1468.92	972
1469.98	972
1471.05	1012
1472.11	990
1473.17	940
1474.24	974
1475.3	956
1476.36	964
1477.42	958
1478.48	940
1479.54	952
1480.6	934
1481.67	948
1482.73	920
1483.79	926
1484.85	874
1485.91	938
1486.97	928
1488.03	914
1489.09	934
1490.15	914
1491.21	926
1492.27	872
1493.33	890
1494.38	910
1495.44	916
1496.5	902
1497.56	928
1498.62	926
1499.68	912
1500.74	876
1501.79	872
1502.85	918
1503.91	892
1504.97	890
1506.02	894
1507.08	906
1508.14	892
1509.2	884
1510.25	848
1511.31	860
1512.36	852
1513.42	848
1514.48	842
1515.53	860
1516.59	844
1517.64	838
1518.7	872
1519.75	822
1520.81	878
1521.86	860
1522.92	854
1523.97	814
1525.02	828
1526.08	842
1527.13	834
1528.19	814
1529.24	830
1530.29	848
1531.35	818
1532.4	814
1533.45	814
1534.51	818
1535.56	810
1536.61	808
1537.66	796
1538.72	828
1539.77	776
1540.82	820
1541.87	810
1542.92	800
1543.97	800
1545.02	802
1546.08	810
1547.13	802
1548.18	778
1549.23	768
1550.28	756
1551.33	792
1552.38	790
1553.43	794
1554.48	768
1555.53	756
1556.57	756
1557.62	766
1558.67	760
1559.72	774
1560.77	778
1561.82	750
1562.87	746
1563.92	780
1564.96	768
1566.01	792
1567.06	784
1568.11	764
1569.15	774
1570.2	742
1571.25	738
1572.29	742
1573.34	736
1574.39	734
1575.43	738
1576.48	764
1577.53	768
1578.57	712
1579.62	752
1580.66	762
1581.71	750
1582.75	726
1583.8	760
1584.84	752
1585.89	732
1586.93	728
1587.98	706
1589.02	720
1590.06	716
1591.11	716
1592.15	720
1593.2	672
1594.24	734
1595.28	698
1596.33	700
1597.37	730
1598.41	724
1599.45	682
1600.5	746
1601.54	702
1602.58	684
1603.62	698
1604.66	682
1605.7	734
1606.75	720
1607.79	720
1608.83	692
1609.87	698
1610.91	722
1611.95	694
1612.99	704
1614.03	680
1615.07	712
1616.11	690
1617.15	694
1618.19	672
1619.23	684
1620.27	698
1621.31	710
1622.35	682
1623.39	690
1624.43	684
1625.46	682
1626.5	650
1627.54	690
1628.58	684
1629.62	690
1630.65	648
1631.69	690
1632.73	658
1633.77	648
1634.8	676
1635.84	686
1636.88	650
1637.91	688
1638.95	704
1639.99	672
1641.02	640
1642.06	650
1643.09	690
1644.13	676
1645.16	664
1646.2	624
1647.23	682
1648.27	656
1649.3	648
1650.34	656
1651.37	672
1652.41	676
1653.44	662
1654.47	644
1655.51	648
1656.54	684
1657.57	656
1658.61	642
1659.64	672
1660.67	658
1661.71	654
1662.74	630
1663.77	634
1664.81	662
1665.84	644
1666.87	670
1667.9	632
1668.93	656
1669.96	650
1671	634
1672.03	654
1673.06	644
1674.09	658
1675.12	604
1676.15	630
1677.18	652
1678.21	636
1679.24	626
1680.27	634
1681.3	646
1682.33	650
1683.36	614
1684.39	618
1685.42	632
1686.45	628
1687.47	634
1688.5	644
1689.53	628
1690.56	612
1691.59	612
1692.62	620
1693.64	618
1694.67	616
1695.7	656
1696.73	628
1697.75	602
1698.78	612
1699.81	594
1700.83	594
1701.86	646
1702.89	564
1703.91	604
1704.94	596
1705.97	598
1706.99	606
1708.02	584
1709.04	612
1710.07	600
1711.09	614
1712.12	610
1713.14	586
1714.17	584
1715.19	598
1716.22	610
1717.24	612
1718.26	596
1719.29	586
1720.31	608
1721.33	586
1722.36	602
1723.38	594
1724.4	558
1725.43	618
1726.45	588
1727.47	598
1728.49	586
1729.52	598
1730.54	612
1731.56	580
1732.58	608
1733.6	584
1734.63	610
1735.65	552
1736.67	566
1737.69	594
1738.71	590
1739.73	586
1740.75	610
1741.77	584
1742.79	600
1743.81	582
1744.83	600
1745.85	616
1746.87	560
1747.89	578
1748.91	568
1749.93	580
1750.95	578
1751.97	620
1752.98	572
1754	598
1755.02	544
1756.04	574
1757.06	568
1758.07	570
1759.09	600
1760.11	584
1761.13	564
1762.14	590
1763.16	584
1764.18	604
1765.19	572
1766.21	576
1767.23	570
1768.24	596
1769.26	588
1770.28	596
1771.29	554
1772.31	598
1773.32	574
1774.34	556
1775.35	592
1776.37	562
1777.38	584
1778.4	588
1779.41	562
1780.43	596
1781.44	576
1782.45	590
1783.47	580
1784.48	578
1785.49	586
1786.51	560
1787.52	548
1788.53	574
1789.55	556
1790.56	576
1791.57	586
1792.58	606
1793.6	552
1794.61	554
1795.62	550
1796.63	550
1797.64	556
1798.66	572
1799.67	586
1800.68	578
1801.69	552
1802.7	564
1803.71	584
1804.72	578
1805.73	588
1806.74	538
1807.75	568
1808.76	554
1809.77	596
1810.78	550
1811.79	542
1812.8	594
1813.81	554
1814.82	576
1815.83	580
1816.84	592
1817.84	556
1818.85	558
1819.86	572
1820.87	562
1821.88	538
1822.88	566
1823.89	528
1824.9	568
1825.91	540
1826.91	558
1827.92	604
1828.93	546
1829.93	562
1830.94	540
1831.95	584
1832.95	568
1833.96	552
1834.97	552
1835.97	558
1836.98	506
1837.98	556
1838.99	566
1839.99	554
1841	550
1842	524
1843.01	516
1844.01	562
1845.02	522
1846.02	548
1847.02	578
1848.03	542
1849.03	564
1850.03	562
1851.04	552
1852.04	554
1853.04	546
1854.05	562
1855.05	558
1856.05	518
1857.05	582
1858.06	558
1859.06	542
1860.06	542
1861.06	574
1862.06	558
1863.07	564
1864.07	556
1865.07	536
1866.07	558
1867.07	538
1868.07	540
1869.07	550
1870.07	522
1871.07	546
1872.07	528
1873.07	556
1874.07	574
1875.07	528
1876.07	508
1877.07	530
1878.07	544
1879.07	556
1880.07	540
1881.07	528
1882.07	544
1883.06	568
1884.06	538
1885.06	554
1886.06	556
1887.06	566
1888.05	550
1889.05	552
1890.05	536
1891.05	542
1892.04	528
1893.04	560
1894.04	522
1895.03	552
1896.03	540
1897.03	522
1898.02	530
1899.02	546
1900.01	546
1901.01	542
1902	536
1903	532
1903.99	534
1904.99	560
1905.98	540
1906.98	578
1907.97	532
1908.97	510
1909.96	538
1910.96	548
1911.95	524
1912.94	520
1913.94	524
1914.93	522
1915.93	548
1916.92	548
1917.91	540
1918.9	548
1919.9	534
1920.89	540
1921.88	528
1922.87	534
1923.87	540
1924.86	546
1925.85	546
1926.84	518
1927.83	510
1928.82	532
1929.82	550
1930.81	538
1931.8	506
1932.79	530
1933.78	536
1934.77	542
1935.76	568
1936.75	522
1937.74	526
1938.73	540
1939.72	518
1940.71	558
1941.7	544
1942.69	534
1943.68	524
1944.67	518
1945.65	536
1946.64	552
1947.63	554
1948.62	532
1949.61	538
1950.6	528
1951.58	526
1952.57	522
1953.56	526
1954.55	530
1955.53	500
1956.52	518
1957.51	552
1958.5	494
1959.48	514
1960.47	538
1961.45	564
1962.44	534
1963.43	526
1964.41	524
1965.4	496
1966.38	518
1967.37	552
1968.35	534
1969.34	532
1970.32	522
1971.31	526
1972.29	542
1973.28	536
1974.26	534
1975.25	522
1976.23	516
1977.22	512
1978.2	500
1979.18	490
1980.17	512
1981.15	518
1982.13	542
1983.12	508
1984.1	524
1985.08	498
1986.06	506
1987.05	538
1988.03	496
1989.01	516
1989.99	530
1990.97	528
1991.96	510
1992.94	520
1993.92	496
1994.9	526
1995.88	520
1996.86	524
1997.84	520
1998.82	526
1999.8	488
2000.78	484
2001.76	484
2002.74	520
2003.72	520
2004.7	528
2005.68	520
2006.66	530
2007.64	526
2008.62	520
2009.6	516
2010.58	520
2011.56	520
2012.54	552
2013.51	518
2014.49	536
2015.47	500
2016.45	550
2017.43	506
2018.4	522
2019.38	518
2020.36	490
2021.34	540
2022.31	520
2023.29	498
2024.27	498
2025.24	502
2026.22	540
2027.2	490
2028.17	502
2029.15	514
2030.12	502
2031.1	510
2032.07	482
2033.05	552
2034.03	502
2035	522
2035.98	496
2036.95	500
2037.93	498
2038.9	538
2039.87	510
2040.85	536
2041.82	476
2042.8	482
2043.77	516
2044.74	512
2045.72	510
2046.69	480
2047.66	518
2048.64	500
2049.61	478
2050.58	508
2051.55	502
2052.53	492
2053.5	544
2054.47	520
2055.44	544
2056.41	506
2057.39	508
2058.36	528
2059.33	492
2060.3	508
2061.27	510
2062.24	494
2063.21	512
2064.18	528
2065.15	518
2066.12	490
2067.09	514
2068.06	514
2069.03	512
2070	528
2070.97	514
2071.94	528
2072.91	500
2073.88	488
2074.85	502
2075.82	506
2076.79	526
2077.76	532
2078.73	514
2079.69	494
2080.66	482
2081.63	502
2082.6	522
2083.56	552
2084.53	526
2085.5	496
2086.47	510
2087.43	506
2088.4	498
2089.37	542
2090.33	474
2091.3	486
2092.27	502
2093.23	498
2094.2	498
2095.17	536
2096.13	520
2097.1	498
2098.06	512
2099.03	492
2099.99	498
2100.96	488
2101.92	510
2102.89	520
2103.85	492
2104.82	520
2105.78	506
2106.74	492
2107.71	508
2108.67	504
2109.64	484
2110.6	502
2111.56	494
2112.53	502
2113.49	532
2114.45	534
2115.41	500
2116.38	506
2117.34	500
2118.3	508
2119.26	506
2120.23	516
2121.19	484
2122.15	500
2123.11	482
2124.07	470
2125.03	492
2126	494
2126.96	492
2127.92	484
2128.88	508
2129.84	478
2130.8	506
2131.76	520
2132.72	498
2133.68	494
2134.64	498
2135.6	510
2136.56	526
2137.52	480
2138.48	496
2139.44	496
2140.4	520
2141.35	494
2142.31	500
2143.27	476
2144.23	488
2145.19	502
2146.15	514
2147.1	490
2148.06	496
2149.02	510
2149.98	502
2150.94	498
2151.89	520
2152.85	486
2153.81	488
2154.76	476
2155.72	490
2156.68	516
2157.63	500
2158.59	500
2159.55	496
2160.5	502
2161.46	500
2162.41	502
2163.37	482
2164.32	488
2165.28	502
2166.23	496
2167.19	474
2168.14	492
2169.1	488
2170.05	502
2171.01	476
2171.96	512
2172.91	510
2173.87	494
2174.82	488
2175.78	504
2176.73	468
2177.68	498
2178.64	498
2179.59	488
2180.54	510
2181.49	500
2182.45	512
2183.4	486
2184.35	516
2185.3	506
2186.26	506
2187.21	462
2188.16	502
2189.11	486
2190.06	476
2191.01	466
2191.96	490
2192.92	504
2193.87	478
2194.82	470
2195.77	496
2196.72	464
2197.67	474
2198.62	474
2199.57	488
2200.52	492
2201.47	458
2202.42	484
2203.37	496
2204.32	474
2205.27	512
2206.22	472
2207.16	488
2208.11	500
2209.06	490
2210.01	472
2210.96	482
2211.91	506
2212.85	490
2213.8	494
2214.75	490
2215.7	508
2216.64	476
2217.59	470
2218.54	482
2219.49	478
2220.43	488
2221.38	478
2222.33	484
2223.27	467.948
2224.22	489.373
2225.16	480.378
2226.11	488.229
2227.06	466.144
2228	489.455
2228.95	469.847
2229.89	488.48
2230.84	498.23
2231.78	483.267
2232.73	469.882
2233.67	493.5
2234.62	474.739
2235.56	476.623
2236.51	465.639
2237.45	498.14
2238.4	481.581
2239.34	473.829
2240.28	490.851
2241.23	480.265
2242.17	473.434
2243.11	474.782
2244.06	456.92
2245	468.313
2245.94	492.647
2246.89	473.745
2247.83	483.054
2248.77	465.831
2249.71	466.543
2250.66	480.138
2251.6	468.456
2252.54	470.061
2253.48	463.568
2254.42	451.223
2255.37	479.058
2256.31	460.971
2257.25	459.304
2258.19	464.959
2259.13	476.433
2260.07	472.669
2261.01	470.33
2261.95	471.814
2262.89	462.072
2263.83	469.32
2264.77	461.395
2265.71	456.998
2266.65	453.137
2267.59	440.458
2268.53	462.608
2269.47	487.739
2270.41	462.734
2271.35	461.068
2272.29	464.473
2273.23	471.247
2274.17	472.388
2275.1	461.521
2276.04	453.454
2276.98	460.892
2277.92	467.632
2278.86	467.16
2279.8	453.716
2280.73	461.825
2281.67	457.176
2282.61	455.431
2283.55	443.681
2284.48	444.39
2285.42	448.133
2286.36	449.865
2287.29	452.057
2288.23	440.412
2289.17	445.966
2290.1	449.753
2291.04	448.75
2291.98	455.973
2292.91	447.823
2293.85	446.807
2294.78	436.178
2295.72	428.264
2296.65	439.419
2297.59	440.666
2298.52	434.062
2299.46	450.244
2300.39	444.397
2301.33	435.697
2302.26	441.168
2303.2	436.722
2304.13	433.808
2305.06	423.838
2306	424.883
2306.93	429.04
2307.87	428.507
2308.8	430.038
2309.73	433.755
2310.67	430.947
2311.6	450.711
2312.53	447.17
2313.46	434.63
2314.4	424.268
2315.33	426.56
2316.26	424.236
2316.69	414
2317.62	410
2318.56	424
2319.5	428
2320.43	450
2321.37	422
2322.31	448
2323.24	442
2324.18	454
2325.12	414
2326.05	416
2326.99	428
2327.92	442
2328.86	416
2329.79	400
2330.73	414
2331.66	394
2332.6	410
2333.53	436
2334.47	424
2335.4	424
2336.34	434
2337.27	424
2338.2	432
2339.14	380
2340.07	422
2341.01	438
2341.94	436
2342.87	422
2343.81	418
2344.74	418
2345.67	412
2346.6	444
2347.54	420
2348.47	416
2349.4	426
2350.33	404
2351.27	424
2352.2	410
2353.13	422
2354.06	438
2354.99	434
2355.93	402
2356.86	428
2357.79	414
2358.72	406
2359.65	424
2360.58	408
2361.51	400
2362.44	420
2363.37	406
2364.3	412
2365.23	404
2366.16	418
2367.09	426
2368.02	424
2368.95	422
2369.88	406
2370.81	398
2371.74	406
2372.67	396
2373.6	394
2374.52	392
2375.45	432
2376.38	406
2377.31	410
2378.24	442
2379.17	432
2380.09	396
2381.02	404
2381.95	394
2382.88	402
2383.8	416
2384.73	418
2385.66	404
2386.58	388
2387.51	410
2388.44	390
2389.36	402
2390.29	400
2391.22	388
2392.14	402
2393.07	406
2393.99	406
2394.92	412
2395.85	388
2396.77	420
2397.7	370
2398.62	398
2399.55	392
2400.47	374
2401.4	396
2402.32	382
2403.25	388
2404.17	374
2405.09	382
2406.02	392
2406.94	406
2407.86	396
2408.79	390
2409.71	390
2410.63	368
2411.56	384
2412.48	374
2413.4	388
2414.33	374
2415.25	380
2416.17	384
2417.09	396
2418.02	386
2418.94	386
2419.86	408
2420.78	412
2421.7	388
2422.63	384
2423.55	368
2424.47	382
2425.39	386
2426.31	386
2427.23	388
2428.15	372
2429.07	392
2429.99	348
2430.91	364
2431.83	372
2432.75	388
2433.67	374
2434.59	384
2435.51	374
2436.43	364
2437.35	370
2438.27	400
2439.19	374
2440.11	368
2441.03	380
2441.95	364
2442.86	378
2443.78	356
2444.7	350
2445.62	356
2446.54	362
2447.46	374
2448.37	368
2449.29	368
2450.21	346
2451.13	372
2452.04	374
2452.96	370
2453.88	366
2454.79	368
2455.71	368
2456.63	332
2457.54	370
2458.46	352
2459.38	354
2460.29	368
2461.21	352
2462.12	344
2463.04	348
2463.95	346
2464.87	360
2465.78	350
2466.7	340
2467.61	358
2468.53	356
2469.44	366
2470.36	334
2471.27	356
2472.19	374
2473.1	334
2474.01	360
2474.93	348
2475.84	348
2476.76	334
2477.67	360
2478.58	342
2479.5	352
2480.41	336
2481.32	340
2482.23	340
2483.15	334
2484.06	342
2484.97	324
2485.88	354
2486.8	328
2487.71	340
2488.62	334
2489.53	352
2490.44	338
2491.35	328
2492.26	354
2493.18	316
2494.09	314
2495	348
2495.91	324
2496.82	330
2497.73	330
2498.64	350
2499.55	322
2500.46	314
2501.37	326
2502.28	336
2503.19	336
2504.1	308
2505.01	324
2505.92	316
2506.83	324
2507.74	306
2508.65	320
2509.55	326
2510.46	312
2511.37	318
2512.28	326
2513.19	332
2514.09	340
2515	304
2515.91	330
2516.82	324
2517.73	328
2518.63	326
2519.54	314
2520.45	314
2521.35	318
2522.26	306
2523.17	330
2524.07	314
2524.98	306
2525.89	296
2526.79	338
2527.7	310
2528.6	300
2529.51	324
2530.42	326
2531.32	324
2532.23	310
2533.13	298
2534.04	306
2534.94	284
2535.85	306
2536.75	324
2537.66	290
2538.56	290
2539.47	326
2540.37	312
2541.27	304
2542.18	300
2543.08	302
2543.98	282
2544.89	304
2545.79	300
2546.7	294
2547.6	310
2548.5	294
2549.4	308
2550.31	294
2551.21	320
2552.11	302
2553.01	304
2553.92	302
2554.82	290
2555.72	288
2556.62	288
2557.52	276
2558.42	298
2559.33	298
2560.23	292
2561.13	306
2562.03	298
2562.93	292
2563.83	280
2564.73	300
2565.63	310
2566.53	282
2567.43	286
2568.33	290
2569.23	294
2570.13	304
2571.03	288
2571.93	292
2572.83	270
2573.73	272
2574.63	302
2575.53	286
2576.43	274
2577.33	286
2578.22	288
2579.12	278
2580.02	284
2580.92	270
2581.82	282
2582.72	284
2583.61	280
2584.51	280
2585.41	298
2586.31	276
2587.2	290
2588.1	270
2589	266
2589.89	276
2590.79	270
2591.69	290
2592.58	274
2593.48	278
2594.38	266
2595.27	282
2596.17	282
2597.06	250
2597.96	264
2598.86	264
2599.75	276
2600.65	260
2601.54	276
2602.44	274
2603.33	268
2604.23	240
2605.12	250
2606.02	276
2606.91	256
2607.81	268
2608.7	276
2609.59	266
2610.49	274
2611.38	290
2612.27	256
2613.17	252
2614.06	244
2614.95	268
2615.85	248
2616.74	240
2617.63	248
2618.53	244
2619.42	256
2620.31	260
2621.2	258
2622.1	264
2622.99	280
2623.88	282
2624.77	256
2625.66	264
2626.55	268
2627.45	248
2628.34	246
2629.23	252
2630.12	260
2631.01	248
2631.9	260
2632.79	244
2633.68	246
2634.57	264
2635.46	256
2636.35	272
2637.24	254
2638.13	254
2639.02	252
2639.91	240
2640.8	262
2641.69	240
2642.58	238
2643.47	248
2644.36	230
2645.25	230
2646.14	254
2647.02	240
2647.91	250
2648.8	234
2649.69	240
2650.58	236
2651.46	236
2652.35	242
2653.24	252
2654.13	254
2655.01	242
2655.9	246
2656.79	234
2657.68	222
2658.56	220
2659.45	246
2660.34	244
2661.22	232
2662.11	244
2662.99	204
2663.88	220
2664.77	218
2665.65	248
2666.54	254
2667.42	216
2668.31	242
2669.2	234
2670.08	238
2670.96	244
2671.85	224
2672.73	246
2673.62	242
2674.5	230
2675.39	228
2676.27	258
2677.16	240
2678.04	226
2678.93	216
2679.81	240
2680.69	232
2681.58	224
2682.46	224
2683.34	218
2684.23	222
2685.11	228
2685.99	208
2686.87	238
2687.76	214
2688.64	222
2689.52	236
2690.4	228
2691.28	222
2692.17	218
2693.05	236
2693.93	224
2694.81	226
2695.69	218
2696.57	206
2697.46	228
2698.34	224
2699.22	226
2700.1	232
2700.98	230
2701.86	216
2702.74	210
2703.62	226
2704.5	228
2705.38	206
2706.26	238
2707.14	212
2708.02	198
2708.9	204
2709.78	236
2710.66	200
2711.54	224
2712.42	210
2713.3	212
2714.17	214
2715.05	216
2715.93	198
2716.81	196
2717.69	210
2718.57	208
2719.44	218
2720.32	210
2721.2	198
2722.08	206
2722.95	208
2723.83	214
2724.71	206
2725.59	204
2726.46	208
2727.34	196
2728.22	206
2729.09	208
2729.97	210
2730.85	204
2731.72	210
2732.6	192
2733.47	190
2734.35	188
2735.23	196
2736.1	204
2736.98	198
2737.85	194
2738.73	210
2739.6	200
2740.48	188
2741.35	176
2742.23	190
2743.1	198
2743.98	182
2744.85	186
2745.72	180
2746.6	188
2747.47	180
2748.35	186
2749.22	210
2750.09	200
2750.97	196
2751.84	184
2752.71	194
2753.59	188
2754.46	186
2755.33	184
2756.2	180
2757.08	176
2757.95	186
2758.82	176
2759.69	202
2760.57	178
2761.44	196
2762.31	186
2763.18	192
2764.05	178
2764.92	200
2765.79	174
2766.67	172
2767.54	188
2768.41	196
2769.28	178
2770.15	184
2771.02	188
2771.89	208
2772.76	180
2773.63	166
2774.5	178
2775.37	170
2776.24	164
2777.11	176
2777.98	172
2778.85	182
2779.72	170
2780.59	182
2781.46	172
2782.32	188
2783.19	188
2784.06	190
2784.93	170
2785.8	182
2786.67	178
2787.53	176
2788.4	180
2789.27	172
2790.14	182
2791.01	168
2791.87	166
2792.74	182
2793.61	170
2794.47	166
2795.34	190
2796.21	174
2797.07	164
2797.94	168
2798.81	168
2799.67	174
2800.54	178
2801.41	170
2802.27	168
2803.14	170
2804	160
2804.87	174
2805.74	174
2806.6	164
2807.47	164
2808.33	182
2809.2	162
2810.06	176
2810.93	148
2811.79	176
2812.65	156
2813.52	166
2814.38	170
2815.25	162
2816.11	156
2816.98	154
2817.84	152
2818.7	162
2819.56	164
2820.43	154
2821.29	158
2822.16	156
2823.02	168
2823.88	160
2824.74	148
2825.61	152
2826.47	156
2827.33	156
2828.19	150
2829.05	166
2829.92	146
2830.78	152
2831.64	156
2832.5	128
2833.36	146
2834.23	144
2835.09	164
2835.95	142
2836.81	156
2837.67	158
2838.53	146
2839.39	146
2840.25	164
2841.11	154
2841.97	134
2842.83	144
2843.69	152
2844.55	152
2845.41	150
2846.27	140
2847.13	166
2847.99	148
2848.85	138
2849.71	148
2850.57	142
2851.43	140
2852.28	150
2853.14	136
2854	138
2854.86	144
2855.72	144
2856.58	144
2857.43	138
2858.29	138
2859.15	138
2860.01	136
2860.86	134
2861.72	132
2862.58	134
2863.44	152
2864.29	148
2865.15	138
2866.01	144
2866.86	126
2867.72	156
2868.58	144
2869.43	132
2870.29	142
2871.14	132
2872	134
2872.86	146
2873.71	140
2874.57	134
2875.42	140
2876.28	134
2877.13	146
2877.99	138
2878.84	134
2879.7	140
2880.55	140
2881.41	126
2882.26	130
2883.11	124
2883.97	130
2884.82	136
2885.68	130
2886.53	126
2887.39	142
2888.24	134
2889.09	134
2889.94	138
2890.8	130
2891.65	126
2892.5	128
2893.36	122
2894.21	130
2895.06	122
2895.91	114
2896.77	124
2897.62	126
2898.47	126
2899.32	126
2900.17	140
2901.03	114
2901.88	126
2902.73	122
2903.58	124
2904.43	120
2905.28	118
2906.13	134
2906.98	136
2907.84	126
2908.69	132
2909.54	124
2910.39	118
2911.24	104
2912.09	110
2912.94	120
2913.79	128
2914.64	138
2915.49	126
2916.34	120
2917.19	120
2918.03	126
2918.88	122
2919.73	126
2920.58	118
2921.43	108
2922.28	114
2923.13	118
2923.98	108
2924.82	128
2925.67	120
2926.52	114
2927.37	114
2928.22	110
2929.06	118
2929.91	126
2930.76	116
2931.61	120
2932.45	134
2933.3	110
2934.15	122
2934.99	126
2935.84	122
2936.69	124
2937.53	114
2938.38	116
2939.23	124
2940.07	116
2940.92	122
2941.76	112
2942.61	116
2943.46	102
2944.3	116
2945.15	112
2945.99	104
2946.84	116
2947.68	110
2948.53	114
2949.37	122
2950.22	110
2951.06	98
2951.9	114
2952.75	118
2953.59	116
2954.44	114
2955.28	114
2956.12	112
2956.97	120
2957.81	110
2958.65	98
2959.5	112
2960.34	108
2961.18	100
2962.03	112
2962.87	102
2963.71	126
2964.56	118
2965.4	104
2966.24	122
2967.08	102
2967.92	114
2968.77	110
2969.61	112
2970.45	112
2971.29	116
2972.13	118
2972.97	114
2973.82	102
2974.66	102
2975.5	106
2976.34	100
2977.18	98
2978.02	112
2978.86	98
2979.7	118
2980.54	104
2981.38	110
2982.22	108
2983.06	108
2983.9	104
2984.74	104
2985.58	104
2986.42	108
2987.26	96
2988.1	108
2988.94	106
2989.78	104
2990.61	112
2991.45	110
2992.29	102
2993.13	90
2993.97	100
2994.81	98
2995.64	100
2996.48	112
2997.32	104
2998.16	108
2999	100
2999.83	108
