#Acq. time (s)=	10
#Accumulations=	1
#Range (cm-¹)=	200...3000
#Windows=	3
#Autofocus=	Off
#AutoExposure=	Off
#Spike filter=	Off
#Delay time (s)=	0
#Binning=	1
#Readout mode=	Signal
#DeNoise=	Off
#ICS correction=	Off
#Dark correction=	Off
#Inst. Process=	Off
#Instrument=	LabRAM HR Evol
#Detector=	Syncerity OE
#Objective=	x100_VIS
#Grating=	600 (500nm)
#ND Filter=	1%
#Laser=	633nm_Edge
#Hole=	30.0125
#Range=	Visible
#Project=	Omar
#Sample=	03-07-23
#Site=	fings
#Title=	inside_pr
#Remark=	
#Date=	03.07.2023 15:03
#Acquired=	03.07.2023 15:03:12
201.713	84
202.98	74
204.247	72
205.513	76
206.778	72
208.045	80
209.311	72
210.576	84
211.84	80
213.106	70
214.371	76
215.636	88
216.899	80
218.164	88
219.428	78
220.692	68
221.955	88
223.219	94
224.482	90
225.744	80
227.007	80
228.27	86
229.531	70
230.794	96
232.055	78
233.317	92
234.579	94
235.839	84
237.1	78
238.362	90
239.621	86
240.882	88
242.141	100
243.402	94
244.661	88
245.921	94
247.179	86
248.439	84
249.698	86
250.956	102
252.215	90
253.473	100
254.731	80
255.988	92
257.246	96
258.503	82
259.761	84
261.017	86
262.273	100
263.53	104
264.786	94
266.042	90
267.298	92
268.554	110
269.809	102
271.063	100
272.319	110
273.573	94
274.828	98
276.082	114
277.336	118
278.591	108
279.844	108
281.097	106
282.351	122
283.603	110
284.855	110
286.109	108
287.361	118
288.613	112
289.866	102
291.117	106
292.368	116
293.62	114
294.871	110
296.121	114
297.372	124
298.623	110
299.873	130
301.123	124
302.372	120
303.622	134
304.872	122
306.121	108
307.37	128
308.618	116
309.866	122
311.116	120
312.364	126
313.611	114
314.859	126
316.106	124
317.353	120
318.6	122
319.848	120
321.095	120
322.341	140
323.587	132
324.833	138
326.079	112
327.324	126
328.569	122
329.814	124
331.059	138
332.304	138
333.548	132
334.792	122
336.037	124
337.28	138
338.524	140
339.767	136
341.011	150
342.254	144
343.497	142
344.739	148
345.982	146
347.224	144
348.466	130
349.708	136
350.95	148
352.191	142
353.432	154
354.673	160
355.914	154
357.155	146
358.394	156
359.634	158
360.874	156
362.114	174
363.354	164
364.593	162
365.832	154
367.07	164
368.309	164
369.548	156
370.786	164
372.024	156
373.261	168
374.499	160
375.736	172
376.974	162
378.211	168
379.447	154
380.684	172
381.92	178
383.157	172
384.392	180
385.628	178
386.864	188
388.098	164
389.333	176
390.569	162
391.802	170
393.037	186
394.272	166
395.505	180
396.739	170
397.973	190
399.206	192
400.44	178
401.673	180
402.905	176
404.138	206
405.37	188
406.602	194
407.835	190
409.066	184
410.298	188
411.528	204
412.76	206
413.99	216
415.221	198
416.451	196
417.682	220
418.911	196
420.142	208
421.371	196
422.601	216
423.83	204
425.059	204
426.288	212
427.517	210
428.745	224
429.974	222
431.201	216
432.43	224
433.657	226
434.883	218
436.111	212
437.338	228
438.565	214
439.791	218
441.017	224
442.244	236
443.469	204
444.695	222
445.921	236
447.146	232
448.37	230
449.596	218
450.821	240
452.045	248
453.27	250
454.493	250
455.717	250
456.94	224
458.165	246
459.387	244
460.61	244
461.833	274
463.056	250
464.278	258
465.5	238
466.722	250
467.945	250
469.166	250
470.387	264
471.608	270
472.829	248
474.049	254
475.271	268
476.491	270
477.711	240
478.931	270
480.15	264
481.37	284
482.589	280
483.808	272
485.027	276
486.247	266
487.465	280
488.683	286
489.901	276
491.119	268
492.337	264
493.554	302
494.771	274
495.988	274
497.205	276
498.422	308
499.638	262
500.854	288
502.07	292
503.286	288
504.502	290
505.717	302
506.933	306
508.148	316
509.363	326
510.577	294
511.792	308
513.005	302
514.219	282
515.433	316
516.647	316
517.86	308
519.073	320
520.287	334
521.5	314
522.711	314
523.924	322
525.136	316
526.348	306
527.56	358
528.772	310
529.982	318
531.194	320
532.405	310
533.616	338
534.825	326
536.036	344
537.246	328
538.457	342
539.665	350
540.875	332
542.085	330
543.294	348
544.502	338
545.712	348
546.92	330
548.128	348
549.336	366
550.545	354
551.751	366
552.959	348
554.167	364
555.373	362
556.581	362
557.788	360
558.994	386
560.2	358
561.406	362
562.612	354
563.817	384
565.023	366
566.229	372
567.433	376
568.639	408
569.843	382
571.048	384
572.251	358
573.456	398
574.659	386
575.863	394
577.066	412
578.27	384
579.472	406
580.676	400
581.878	412
583.081	416
584.283	398
585.484	418
586.687	418
587.888	436
589.09	432
590.291	414
591.493	422
592.693	418
593.893	418
595.094	424
596.294	438
597.494	424
598.694	462
599.894	448
601.093	456
602.293	412
603.491	458
604.69	440
605.889	426
607.087	454
608.285	480
609.483	438
610.682	436
611.879	480
613.076	468
614.273	468
615.471	488
616.667	454
617.864	480
619.06	464
620.256	502
621.453	492
622.648	488
623.844	494
625.039	524
626.234	514
627.429	492
628.625	494
629.819	500
631.013	504
632.208	512
633.401	540
634.595	528
635.789	518
636.982	516
638.175	556
639.369	518
640.562	538
641.755	548
642.947	558
644.139	540
645.331	574
646.523	552
647.715	586
648.906	566
650.097	594
651.288	564
652.479	566
653.67	576
654.86	574
656.051	578
657.241	574
658.429	594
659.619	594
660.808	586
661.998	610
663.187	612
664.376	576
665.565	594
666.753	602
667.942	614
669.13	622
670.317	636
671.505	638
672.692	646
673.88	598
675.067	646
676.254	632
677.44	646
678.627	622
679.813	680
681	656
682.184	664
683.37	660
684.556	664
685.742	688
686.926	660
688.111	668
689.296	682
690.481	678
691.664	700
692.849	704
694.033	692
695.216	700
696.4	744
697.584	726
698.766	696
699.949	730
701.133	722
702.314	716
703.497	746
704.678	736
705.861	746
707.043	756
708.224	754
709.406	790
710.586	764
711.768	746
712.949	796
714.129	744
715.31	804
716.489	768
717.67	766
718.849	804
720.029	792
721.208	828
722.388	846
723.566	830
724.746	844
725.924	790
727.103	820
728.28	834
729.458	828
730.636	848
731.814	846
732.992	826
734.168	886
735.345	886
736.523	874
737.699	840
738.876	864
740.052	890
741.227	910
742.404	916
743.579	920
744.754	912
745.931	924
747.105	904
748.28	906
749.455	908
750.629	948
751.803	926
752.977	942
754.152	950
755.325	960
756.499	936
757.672	972
758.846	964
760.018	1024
761.191	996
762.363	958
763.535	994
764.708	972
765.88	1008
767.052	1010
768.223	1030
769.394	1032
770.565	1034
771.737	1066
772.908	1062
774.078	1054
775.249	1026
776.419	1076
777.589	1062
778.758	1084
779.928	1120
781.097	1062
782.266	1064
783.435	1094
784.604	1108
785.773	1120
786.941	1096
788.11	1118
789.278	1100
790.446	1174
791.613	1110
792.781	1192
793.948	1146
795.115	1152
796.282	1156
797.449	1190
798.616	1202
799.782	1206
800.948	1212
802.115	1256
803.28	1226
804.446	1214
805.612	1242
806.777	1222
807.941	1292
809.106	1254
810.271	1254
811.435	1292
812.6	1326
813.764	1348
814.927	1330
816.091	1276
817.254	1322
818.418	1264
819.581	1358
820.743	1328
821.906	1342
823.069	1392
824.232	1426
825.393	1388
826.555	1408
827.717	1402
828.879	1440
830.039	1376
831.201	1470
832.362	1420
833.522	1432
834.683	1426
835.844	1450
837.003	1464
838.164	1468
839.324	1512
840.483	1482
841.643	1584
842.801	1556
843.961	1532
845.12	1562
846.278	1584
847.437	1574
848.594	1578
849.753	1570
850.91	1598
852.069	1594
853.227	1640
854.383	1584
855.541	1658
856.697	1624
857.855	1694
859.011	1706
860.168	1674
861.323	1684
862.48	1706
863.635	1704
864.79	1726
865.946	1740
867.101	1736
868.257	1760
869.411	1716
870.567	1726
871.721	1800
872.874	1780
874.029	1776
875.183	1804
876.336	1748
877.49	1854
878.643	1860
879.796	1818
880.95	1846
882.102	1860
883.254	1870
884.407	1888
885.559	1924
886.711	1908
887.862	1912
889.015	1904
890.166	1918
891.317	1910
892.467	1962
893.619	1956
894.77	1960
895.92	1944
897.07	2026
898.221	2020
899.371	1986
900.52	1994
901.669	2052
902.819	2054
903.968	2108
905.116	2076
906.266	2118
907.415	2080
908.563	2044
909.711	2092
910.859	2096
912.007	2098
913.154	2136
914.301	2122
915.449	2164
916.596	2186
917.742	2156
918.889	2224
920.036	2174
921.183	2232
922.329	2230
923.475	2190
924.621	2276
925.765	2250
926.911	2228
928.056	2288
929.201	2280
930.346	2322
931.49	2320
932.635	2342
933.779	2410
934.924	2366
936.068	2410
937.211	2430
938.355	2444
939.498	2442
940.64	2462
941.784	2448
942.926	2478
944.069	2478
945.212	2476
946.354	2486
947.495	2508
948.637	2504
949.779	2554
950.921	2610
952.062	2622
953.202	2634
954.344	2630
955.484	2630
956.625	2700
957.765	2606
958.905	2702
960.045	2698
961.184	2700
962.324	2720
963.464	2700
964.604	2782
965.742	2750
966.881	2858
968.02	2776
969.158	2828
970.296	2788
971.434	2872
972.572	2860
973.71	2920
974.847	2896
975.985	2920
977.121	2918
978.259	2934
979.396	2958
980.532	2964
981.669	3026
982.804	3040
983.941	3022
985.076	2986
986.212	3070
987.347	3024
988.483	3084
989.617	3058
990.753	3102
991.887	3110
993.022	3082
994.156	3146
995.29	3144
996.424	3196
997.558	3188
998.692	3216
999.825	3266
1000.96	3294
1002.09	3198
1003.22	3194
1004.36	3270
1005.49	3330
1006.62	3274
1007.75	3288
1008.89	3360
1010.02	3352
1011.15	3456
1012.28	3412
1013.41	3470
1014.54	3376
1015.67	3390
1016.8	3514
1017.93	3552
1019.07	3544
1020.19	3488
1021.32	3560
1022.45	3630
1023.58	3580
1024.71	3686
1025.84	3650
1026.97	3658
1028.1	3664
1029.23	3618
1030.36	3720
1031.49	3742
1032.61	3806
1033.74	3686
1034.87	3828
1036	3862
1037.12	3860
1038.25	3858
1039.38	3894
1040.5	3858
1041.63	3958
1042.76	3982
1043.88	3982
1045.01	3986
1046.14	4012
1047.26	4094
1048.39	4066
1049.51	4058
1050.64	4102
1051.76	4122
1052.89	4174
1054.01	4122
1055.14	4192
1056.26	4184
1057.38	4152
1058.51	4192
1059.63	4142
1060.75	4208
1061.88	4276
1063	4344
1064.12	4344
1065.25	4300
1066.37	4360
1067.49	4360
1068.61	4342
1069.73	4420
1070.86	4358
1071.98	4408
1073.1	4450
1074.22	4476
1075.34	4440
1076.46	4430
1077.58	4534
1078.7	4534
1079.82	4512
1080.94	4564
1082.06	4580
1083.18	4556
1084.3	4614
1085.42	4686
1086.54	4534
1087.66	4674
1088.78	4638
1089.9	4720
1091.02	4708
1092.14	4700
1093.25	4718
1094.37	4670
1095.49	4788
1096.61	4828
1097.72	4784
1098.84	4772
1099.96	4802
1101.08	4862
1102.19	4776
1103.31	4866
1104.43	4876
1105.54	4948
1106.66	4886
1107.77	4964
1108.89	4926
1110	4876
1111.12	5004
1112.23	4996
1113.35	4944
1114.46	5050
1115.58	5092
1116.69	5038
1117.81	5036
1118.92	5018
1120.03	5028
1121.15	5042
1122.26	5186
1123.37	5160
1124.49	5182
1125.6	5198
1126.71	5158
1127.83	5172
1128.94	5266
1130.05	5138
1131.16	5258
1132.27	5254
1133.39	5290
1134.5	5344
1135.61	5228
1136.72	5280
1137.83	5378
1138.94	5372
1140.05	5420
1141.16	5292
1142.27	5408
1143.38	5388
1144.49	5430
1145.6	5386
1146.71	5356
1147.82	5336
1148.93	5546
1150.04	5472
1151.15	5432
1152.26	5444
1153.36	5484
1154.47	5490
1155.58	5468
1156.69	5530
1157.8	5596
1158.9	5564
1160.01	5490
1161.12	5578
1162.22	5650
1163.33	5558
1164.44	5616
1165.54	5606
1166.65	5642
1167.76	5620
1168.86	5598
1169.97	5580
1171.07	5648
1172.18	5514
1173.28	5592
1174.39	5554
1175.49	5730
1176.6	5504
1177.7	5584
1178.81	5666
1179.91	5582
1181.02	5630
1182.12	5586
1183.22	5576
1184.33	5764
1185.43	5552
1186.53	5642
1187.63	5536
1188.74	5504
1189.84	5500
1190.94	5574
1192.04	5492
1193.15	5588
1194.25	5540
1195.35	5552
1196.45	5416
1197.55	5546
1198.65	5452
1199.75	5552
1200.85	5366
1201.95	5446
1203.05	5420
1204.16	5456
1205.25	5532
1206.35	5404
1207.45	5496
1208.55	5396
1209.65	5378
1210.75	5344
1211.85	5342
1212.95	5314
1214.05	5376
1215.15	5326
1216.24	5266
1217.34	5366
1218.44	5342
1219.54	5296
1220.64	5328
1221.73	5248
1222.83	5284
1223.93	5296
1225.02	5256
1226.12	5264
1227.22	5208
1228.31	5178
1229.41	5186
1230.5	5158
1231.6	5146
1232.7	5172
1233.79	5096
1234.89	5100
1235.98	5132
1237.08	5140
1238.17	5066
1239.26	5058
1240.36	5126
1241.45	5092
1242.55	5002
1243.64	4972
1244.73	4996
1245.83	4876
1246.92	4918
1248.01	4974
1249.11	4954
1250.2	4904
1251.29	4960
1252.38	4910
1253.48	4888
1254.57	4766
1255.66	4854
1256.75	4778
1257.84	4792
1258.93	4716
1260.03	4910
1261.12	4806
1262.21	4810
1263.3	4826
1264.39	4746
1265.48	4650
1266.57	4746
1267.66	4720
1268.75	4666
1269.84	4684
1270.93	4588
1272.02	4692
1273.11	4668
1274.19	4612
1275.28	4582
1276.37	4670
1277.46	4552
1278.55	4494
1279.64	4528
1280.72	4470
1281.81	4464
1282.9	4502
1283.98	4457.94
1285.07	4464.22
1286.16	4403.52
1287.25	4407.69
1288.33	4359.6
1289.42	4285.92
1290.5	4325.26
1291.59	4278.84
1292.68	4241.82
1293.76	4323.93
1294.85	4168.02
1295.93	4195.59
1297.02	4087.72
1298.1	4122.76
1299.19	4164.13
1300.27	4052.75
1301.36	3992.87
1302.44	4048.97
1303.53	3961.26
1304.61	3992.2
1305.69	3978.8
1306.78	3925.68
1307.86	3913.47
1308.94	3868.25
1310.03	3850.47
1311.11	3763.18
1312.19	3754.22
1313.27	3733.96
1314.36	3726.68
1315.44	3713.23
1316.52	3700.92
1317.6	3635.75
1318.68	3683.2
1319.77	3632.05
1320.85	3551.37
1321.93	3607.58
1323.01	3600.38
1324.09	3570.31
1325.17	3507.21
1326.25	3471.93
1327.33	3478.26
1328.41	3446.96
1329.49	3434.85
1330.57	3386.21
1331.65	3379.5
1332.73	3369.06
1333.81	3314.8
1334.89	3318.51
1335.97	3305.64
1337.04	3335.83
1338.12	3218.78
1339.2	3261.16
1340.28	3209.83
1341.36	3181.39
1342.44	3211.31
1343.51	3151.92
1344.59	3161.87
1345.67	3095.33
1346.75	3062.03
1347.82	3083.56
1348.9	3034.21
1349.98	3039.38
1351.05	3026.84
1352.13	2980.32
1353.2	2919.01
1354.28	2949.7
1355.36	2947.53
1356.43	2919.82
1357.51	2883.4
1358.58	2901.99
1359.66	2895.15
1360.73	2826.69
1361.81	2873.16
1362.88	2804.47
1363.96	2784.38
1365.03	2727.22
1366.1	2758.11
1367.18	2764.94
1368.25	2729.59
1369.33	2679.15
1370.4	2692.59
1371.47	2671.14
1372.54	2658.56
1373.62	2663.79
1374.69	2659.83
1375.76	2644.84
1376.83	2541.68
1377.91	2596.04
1378.98	2571.46
1380.05	2533.33
1381.12	2545.41
1382.19	2525.06
1383.26	2510.62
1384.34	2508.57
1385.41	2484.34
1386.48	2440.69
1387.55	2416.28
1388.62	2405.6
1389.69	2377.26
1390.76	2374.05
1391.83	2385.33
1392.9	2292.8
1393.02	2278
1394.1	2356
1395.17	2454
1396.25	2360
1397.32	2248
1398.4	2346
1399.47	2264
1400.55	2288
1401.62	2246
1402.69	2296
1403.77	2282
1404.84	2294
1405.91	2260
1406.99	2226
1408.06	2286
1409.13	2252
1410.2	2216
1411.27	2234
1412.35	2218
1413.42	2152
1414.49	2182
1415.56	2148
1416.63	2144
1417.7	2140
1418.78	2134
1419.85	2110
1420.92	2120
1421.99	2108
1423.06	2108
1424.13	2140
1425.2	2054
1426.27	2060
1427.34	2084
1428.41	2020
1429.48	2036
1430.55	2062
1431.61	2032
1432.68	2080
1433.75	2052
1434.82	2040
1435.89	2002
1436.96	2026
1438.02	2034
1439.09	1970
1440.16	1970
1441.23	2040
1442.3	1954
1443.36	1972
1444.43	1970
1445.5	1958
1446.56	1930
1447.63	1926
1448.7	1898
1449.76	1918
1450.83	1928
1451.89	1908
1452.96	1898
1454.02	1964
1455.09	1914
1456.15	1890
1457.22	1928
1458.28	1926
1459.35	1900
1460.41	1878
1461.48	1882
1462.54	1900
1463.61	1832
1464.67	1854
1465.73	1858
1466.8	1852
1467.86	1814
1468.92	1880
1469.98	1828
1471.05	1814
1472.11	1786
1473.17	1826
1474.24	1820
1475.3	1806
1476.36	1802
1477.42	1786
1478.48	1810
1479.54	1758
1480.6	1798
1481.67	1724
1482.73	1822
1483.79	1730
1484.85	1734
1485.91	1764
1486.97	1730
1488.03	1806
1489.09	1756
1490.15	1724
1491.21	1730
1492.27	1742
1493.33	1742
1494.38	1672
1495.44	1696
1496.5	1702
1497.56	1730
1498.62	1704
1499.68	1658
1500.74	1636
1501.79	1648
1502.85	1684
1503.91	1666
1504.97	1708
1506.02	1656
1507.08	1624
1508.14	1638
1509.2	1636
1510.25	1652
1511.31	1666
1512.36	1620
1513.42	1576
1514.48	1604
1515.53	1652
1516.59	1586
1517.64	1606
1518.7	1578
1519.75	1598
1520.81	1578
1521.86	1592
1522.92	1578
1523.97	1566
1525.02	1574
1526.08	1540
1527.13	1552
1528.19	1600
1529.24	1520
1530.29	1516
1531.35	1482
1532.4	1568
1533.45	1482
1534.51	1544
1535.56	1538
1536.61	1496
1537.66	1490
1538.72	1450
1539.77	1496
1540.82	1524
1541.87	1514
1542.92	1494
1543.97	1414
1545.02	1456
1546.08	1508
1547.13	1490
1548.18	1476
1549.23	1468
1550.28	1444
1551.33	1416
1552.38	1444
1553.43	1460
1554.48	1440
1555.53	1414
1556.57	1420
1557.62	1438
1558.67	1432
1559.72	1412
1560.77	1416
1561.82	1424
1562.87	1428
1563.92	1420
1564.96	1410
1566.01	1412
1567.06	1384
1568.11	1378
1569.15	1400
1570.2	1344
1571.25	1388
1572.29	1406
1573.34	1404
1574.39	1386
1575.43	1386
1576.48	1370
1577.53	1374
1578.57	1350
1579.62	1354
1580.66	1396
1581.71	1392
1582.75	1396
1583.8	1358
1584.84	1382
1585.89	1348
1586.93	1360
1587.98	1326
1589.02	1292
1590.06	1310
1591.11	1378
1592.15	1284
1593.2	1348
1594.24	1328
1595.28	1368
1596.33	1328
1597.37	1334
1598.41	1400
1599.45	1330
1600.5	1304
1601.54	1280
1602.58	1302
1603.62	1278
1604.66	1330
1605.7	1304
1606.75	1332
1607.79	1276
1608.83	1274
1609.87	1270
1610.91	1330
1611.95	1288
1612.99	1286
1614.03	1302
1615.07	1314
1616.11	1238
1617.15	1328
1618.19	1312
1619.23	1252
1620.27	1276
1621.31	1266
1622.35	1254
1623.39	1260
1624.43	1286
1625.46	1260
1626.5	1256
1627.54	1260
1628.58	1230
1629.62	1254
1630.65	1272
1631.69	1220
1632.73	1228
1633.77	1278
1634.8	1216
1635.84	1210
1636.88	1216
1637.91	1262
1638.95	1242
1639.99	1236
1641.02	1260
1642.06	1228
1643.09	1220
1644.13	1212
1645.16	1158
1646.2	1268
1647.23	1256
1648.27	1196
1649.3	1222
1650.34	1256
1651.37	1222
1652.41	1210
1653.44	1232
1654.47	1210
1655.51	1220
1656.54	1212
1657.57	1222
1658.61	1200
1659.64	1210
1660.67	1220
1661.71	1214
1662.74	1206
1663.77	1178
1664.81	1168
1665.84	1174
1666.87	1216
1667.9	1138
1668.93	1150
1669.96	1200
1671	1136
1672.03	1158
1673.06	1170
1674.09	1152
1675.12	1162
1676.15	1154
1677.18	1148
1678.21	1144
1679.24	1158
1680.27	1206
1681.3	1116
1682.33	1160
1683.36	1150
1684.39	1138
1685.42	1170
1686.45	1134
1687.47	1134
1688.5	1136
1689.53	1134
1690.56	1128
1691.59	1124
1692.62	1176
1693.64	1134
1694.67	1116
1695.7	1092
1696.73	1150
1697.75	1170
1698.78	1156
1699.81	1146
1700.83	1158
1701.86	1150
1702.89	1158
1703.91	1134
1704.94	1148
1705.97	1140
1706.99	1120
1708.02	1130
1709.04	1118
1710.07	1112
1711.09	1098
1712.12	1114
1713.14	1114
1714.17	1128
1715.19	1094
1716.22	1156
1717.24	1096
1718.26	1084
1719.29	1150
1720.31	1126
1721.33	1092
1722.36	1104
1723.38	1076
1724.4	1114
1725.43	1120
1726.45	1104
1727.47	1038
1728.49	1108
1729.52	1066
1730.54	1084
1731.56	1076
1732.58	1074
1733.6	1090
1734.63	1094
1735.65	1082
1736.67	1064
1737.69	1106
1738.71	1052
1739.73	1112
1740.75	1078
1741.77	1106
1742.79	1068
1743.81	1088
1744.83	1080
1745.85	1088
1746.87	1076
1747.89	1100
1748.91	1084
1749.93	1056
1750.95	1050
1751.97	1094
1752.98	1078
1754	1094
1755.02	1054
1756.04	1090
1757.06	1064
1758.07	1078
1759.09	1076
1760.11	1072
1761.13	1084
1762.14	1074
1763.16	1068
1764.18	1116
1765.19	1066
1766.21	1028
1767.23	1078
1768.24	1074
1769.26	1026
1770.28	1080
1771.29	1080
1772.31	1070
1773.32	1068
1774.34	1088
1775.35	1090
1776.37	1070
1777.38	1072
1778.4	1038
1779.41	1074
1780.43	1080
1781.44	1040
1782.45	1080
1783.47	1070
1784.48	1086
1785.49	1080
1786.51	1080
1787.52	1074
1788.53	1084
1789.55	1056
1790.56	1036
1791.57	1070
1792.58	1024
1793.6	1028
1794.61	1076
1795.62	1028
1796.63	1058
1797.64	1072
1798.66	1084
1799.67	1070
1800.68	1080
1801.69	1038
1802.7	1042
1803.71	1078
1804.72	1052
1805.73	1028
1806.74	1042
1807.75	1066
1808.76	1104
1809.77	1042
1810.78	1078
1811.79	1034
1812.8	1062
1813.81	1066
1814.82	1058
1815.83	1032
1816.84	1110
1817.84	1050
1818.85	1048
1819.86	1054
1820.87	1082
1821.88	1042
1822.88	1080
1823.89	1060
1824.9	1042
1825.91	1058
1826.91	1024
1827.92	1058
1828.93	1072
1829.93	1022
1830.94	1064
1831.95	1048
1832.95	1032
1833.96	1006
1834.97	1022
1835.97	1072
1836.98	1050
1837.98	1014
1838.99	1062
1839.99	1006
1841	1042
1842	1030
1843.01	1006
1844.01	1054
1845.02	1030
1846.02	1054
1847.02	1036
1848.03	1028
1849.03	1010
1850.03	1028
1851.04	992
1852.04	1010
1853.04	1050
1854.05	1032
1855.05	1042
1856.05	998
1857.05	1018
1858.06	1020
1859.06	1028
1860.06	986
1861.06	1036
1862.06	1054
1863.07	1030
1864.07	1044
1865.07	1006
1866.07	1018
1867.07	1028
1868.07	1010
1869.07	1036
1870.07	1014
1871.07	1052
1872.07	1022
1873.07	1050
1874.07	1014
1875.07	1018
1876.07	1026
1877.07	1046
1878.07	1028
1879.07	994
1880.07	1032
1881.07	1036
1882.07	976
1883.06	978
1884.06	1032
1885.06	1050
1886.06	1032
1887.06	998
1888.05	1022
1889.05	1022
1890.05	1006
1891.05	1014
1892.04	1028
1893.04	1054
1894.04	996
1895.03	1002
1896.03	1008
1897.03	1026
1898.02	988
1899.02	1006
1900.01	992
1901.01	984
1902	1008
1903	1036
1903.99	1050
1904.99	1058
1905.98	1050
1906.98	1010
1907.97	1008
1908.97	1000
1909.96	1022
1910.96	1022
1911.95	1038
1912.94	1056
1913.94	1046
1914.93	974
1915.93	1022
1916.92	1006
1917.91	1024
1918.9	1030
1919.9	1004
1920.89	1000
1921.88	1026
1922.87	1016
1923.87	1034
1924.86	1020
1925.85	986
1926.84	1016
1927.83	1000
1928.82	1038
1929.82	1000
1930.81	1002
1931.8	982
1932.79	994
1933.78	974
1934.77	1006
1935.76	974
1936.75	1008
1937.74	988
1938.73	1016
1939.72	1008
1940.71	988
1941.7	1022
1942.69	1022
1943.68	992
1944.67	994
1945.65	1036
1946.64	1002
1947.63	1028
1948.62	1034
1949.61	986
1950.6	1000
1951.58	986
1952.57	1028
1953.56	1080
1954.55	1016
1955.53	1004
1956.52	976
1957.51	1050
1958.5	1016
1959.48	982
1960.47	990
1961.45	990
1962.44	1014
1963.43	954
1964.41	970
1965.4	974
1966.38	1002
1967.37	1032
1968.35	996
1969.34	966
1970.32	1010
1971.31	952
1972.29	970
1973.28	978
1974.26	942
1975.25	962
1976.23	972
1977.22	942
1978.2	964
1979.18	990
1980.17	1004
1981.15	920
1982.13	996
1983.12	1028
1984.1	1000
1985.08	962
1986.06	976
1987.05	992
1988.03	966
1989.01	1006
1989.99	1018
1990.97	976
1991.96	960
1992.94	984
1993.92	980
1994.9	974
1995.88	1004
1996.86	944
1997.84	1026
1998.82	1006
1999.8	976
2000.78	976
2001.76	992
2002.74	1026
2003.72	956
2004.7	998
2005.68	1026
2006.66	992
2007.64	1002
2008.62	954
2009.6	970
2010.58	978
2011.56	976
2012.54	1012
2013.51	984
2014.49	996
2015.47	976
2016.45	994
2017.43	996
2018.4	982
2019.38	976
2020.36	1010
2021.34	988
2022.31	952
2023.29	994
2024.27	980
2025.24	1002
2026.22	988
2027.2	1004
2028.17	990
2029.15	976
2030.12	986
2031.1	968
2032.07	994
2033.05	960
2034.03	966
2035	974
2035.98	988
2036.95	1036
2037.93	964
2038.9	950
2039.87	968
2040.85	978
2041.82	960
2042.8	916
2043.77	958
2044.74	984
2045.72	984
2046.69	932
2047.66	984
2048.64	946
2049.61	952
2050.58	950
2051.55	988
2052.53	1002
2053.5	966
2054.47	982
2055.44	934
2056.41	920
2057.39	994
2058.36	990
2059.33	966
2060.3	992
2061.27	964
2062.24	990
2063.21	974
2064.18	946
2065.15	972
2066.12	988
2067.09	980
2068.06	966
2069.03	972
2070	938
2070.97	990
2071.94	990
2072.91	948
2073.88	946
2074.85	972
2075.82	984
2076.79	966
2077.76	938
2078.73	964
2079.69	1002
2080.66	952
2081.63	968
2082.6	986
2083.56	962
2084.53	980
2085.5	972
2086.47	970
2087.43	954
2088.4	988
2089.37	986
2090.33	962
2091.3	972
2092.27	970
2093.23	982
2094.2	946
2095.17	966
2096.13	966
2097.1	960
2098.06	938
2099.03	960
2099.99	966
2100.96	996
2101.92	996
2102.89	952
2103.85	1000
2104.82	946
2105.78	942
2106.74	980
2107.71	980
2108.67	942
2109.64	984
2110.6	960
2111.56	966
2112.53	934
2113.49	976
2114.45	982
2115.41	970
2116.38	950
2117.34	936
2118.3	942
2119.26	962
2120.23	966
2121.19	950
2122.15	954
2123.11	1004
2124.07	948
2125.03	966
2126	936
2126.96	944
2127.92	984
2128.88	960
2129.84	970
2130.8	946
2131.76	966
2132.72	976
2133.68	966
2134.64	938
2135.6	980
2136.56	944
2137.52	1012
2138.48	954
2139.44	992
2140.4	962
2141.35	952
2142.31	978
2143.27	944
2144.23	984
2145.19	960
2146.15	966
2147.1	944
2148.06	942
2149.02	980
2149.98	982
2150.94	974
2151.89	958
2152.85	964
2153.81	966
2154.76	956
2155.72	940
2156.68	968
2157.63	920
2158.59	992
2159.55	976
2160.5	982
2161.46	940
2162.41	940
2163.37	932
2164.32	946
2165.28	966
2166.23	966
2167.19	954
2168.14	962
2169.1	932
2170.05	946
2171.01	982
2171.96	940
2172.91	968
2173.87	914
2174.82	948
2175.78	928
2176.73	952
2177.68	962
2178.64	948
2179.59	974
2180.54	970
2181.49	916
2182.45	908
2183.4	966
2184.35	946
2185.3	940
2186.26	930
2187.21	940
2188.16	948
2189.11	964
2190.06	952
2191.01	896
2191.96	940
2192.92	912
2193.87	956
2194.82	942
2195.77	944
2196.72	896
2197.67	910
2198.62	914
2199.57	950
2200.52	932
2201.47	934
2202.42	906
2203.37	930
2204.32	936
2205.27	976
2206.22	918
2207.16	912
2208.11	902
2209.06	912
2210.01	924
2210.96	934
2211.91	934
2212.85	898
2213.8	942
2214.75	908
2215.7	894
2216.64	892
2217.59	970
2218.54	894
2219.49	928
2220.43	928
2221.38	934
2222.33	920
2223.27	927.554
2224.22	918.978
2225.16	931.943
2226.11	876.302
2227.06	932.341
2228	915.521
2228.95	927.997
2229.89	934.693
2230.84	922.01
2231.78	915.702
2232.73	911.044
2233.67	913.559
2234.62	951.251
2235.56	925.767
2236.51	913.918
2237.45	916.152
2238.4	911.292
2239.34	924.869
2240.28	892.559
2241.23	937.33
2242.17	910.217
2243.11	909
2244.06	929.536
2245	894.978
2245.94	894.058
2246.89	902.735
2247.83	908.072
2248.77	893.832
2249.71	915.828
2250.66	886.062
2251.6	895.992
2252.54	917.81
2253.48	919.603
2254.42	899.114
2255.37	910.987
2256.31	877.32
2257.25	881.599
2258.19	894.815
2259.13	884.747
2260.07	903.058
2261.01	897.808
2261.95	885.84
2262.89	902.432
2263.83	877.47
2264.77	872.477
2265.71	878.762
2266.65	889.697
2267.59	882.924
2268.53	911.276
2269.47	888.277
2270.41	903.246
2271.35	875.457
2272.29	891.13
2273.23	863.98
2274.17	894.209
2275.1	876.848
2276.04	878.691
2276.98	861.959
2277.92	876.465
2278.86	869.771
2279.8	873.535
2280.73	880.847
2281.67	864.194
2282.61	868.982
2283.55	855.374
2284.48	853.994
2285.42	847.38
2286.36	846.11
2287.29	844.184
2288.23	853.379
2289.17	857.485
2290.1	858.9
2291.04	843.75
2291.98	844.216
2292.91	865.308
2293.85	848.145
2294.78	834.861
2295.72	852.403
2296.65	846.747
2297.59	842.702
2298.52	834.12
2299.46	842.159
2300.39	859.497
2301.33	834.651
2302.26	828.546
2303.2	858.128
2304.13	855.315
2305.06	828.588
2306	831.773
2306.93	833.054
2307.87	840.493
2308.8	825.143
2309.73	841.438
2310.67	841.352
2311.6	844.237
2312.53	823.861
2313.46	817.477
2314.4	825.474
2315.33	831.65
2316.26	823.045
2316.69	810
2317.62	816
2318.56	848
2319.5	830
2320.43	852
2321.37	808
2322.31	794
2323.24	850
2324.18	806
2325.12	810
2326.05	820
2326.99	818
2327.92	830
2328.86	808
2329.79	818
2330.73	804
2331.66	818
2332.6	834
2333.53	804
2334.47	798
2335.4	830
2336.34	802
2337.27	798
2338.2	800
2339.14	848
2340.07	792
2341.01	820
2341.94	852
2342.87	784
2343.81	824
2344.74	820
2345.67	776
2346.6	824
2347.54	792
2348.47	768
2349.4	782
2350.33	824
2351.27	800
2352.2	788
2353.13	810
2354.06	794
2354.99	806
2355.93	790
2356.86	788
2357.79	798
2358.72	800
2359.65	808
2360.58	822
2361.51	778
2362.44	778
2363.37	796
2364.3	802
2365.23	816
2366.16	780
2367.09	770
2368.02	816
2368.95	762
2369.88	762
2370.81	794
2371.74	778
2372.67	814
2373.6	782
2374.52	790
2375.45	762
2376.38	774
2377.31	770
2378.24	764
2379.17	808
2380.09	758
2381.02	754
2381.95	780
2382.88	780
2383.8	772
2384.73	752
2385.66	790
2386.58	772
2387.51	760
2388.44	786
2389.36	756
2390.29	718
2391.22	762
2392.14	768
2393.07	756
2393.99	748
2394.92	742
2395.85	724
2396.77	758
2397.7	760
2398.62	760
2399.55	708
2400.47	776
2401.4	756
2402.32	730
2403.25	752
2404.17	736
2405.09	780
2406.02	756
2406.94	768
2407.86	714
2408.79	742
2409.71	710
2410.63	708
2411.56	724
2412.48	742
2413.4	744
2414.33	734
2415.25	750
2416.17	734
2417.09	724
2418.02	704
2418.94	716
2419.86	748
2420.78	758
2421.7	732
2422.63	702
2423.55	698
2424.47	688
2425.39	684
2426.31	672
2427.23	730
2428.15	692
2429.07	688
2429.99	700
2430.91	716
2431.83	710
2432.75	728
2433.67	722
2434.59	740
2435.51	708
2436.43	700
2437.35	692
2438.27	700
2439.19	708
2440.11	706
2441.03	716
2441.95	662
2442.86	656
2443.78	664
2444.7	688
2445.62	718
2446.54	714
2447.46	676
2448.37	698
2449.29	688
2450.21	672
2451.13	666
2452.04	690
2452.96	682
2453.88	674
2454.79	686
2455.71	664
2456.63	682
2457.54	686
2458.46	678
2459.38	684
2460.29	688
2461.21	682
2462.12	694
2463.04	662
2463.95	646
2464.87	680
2465.78	640
2466.7	658
2467.61	658
2468.53	650
2469.44	662
2470.36	678
2471.27	648
2472.19	648
2473.1	644
2474.01	680
2474.93	642
2475.84	656
2476.76	672
2477.67	654
2478.58	662
2479.5	666
2480.41	632
2481.32	656
2482.23	614
2483.15	648
2484.06	618
2484.97	642
2485.88	668
2486.8	600
2487.71	624
2488.62	628
2489.53	602
2490.44	616
2491.35	608
2492.26	614
2493.18	628
2494.09	662
2495	636
2495.91	616
2496.82	646
2497.73	606
2498.64	622
2499.55	608
2500.46	634
2501.37	600
2502.28	624
2503.19	572
2504.1	612
2505.01	630
2505.92	584
2506.83	590
2507.74	594
2508.65	634
2509.55	600
2510.46	578
2511.37	576
2512.28	584
2513.19	600
2514.09	596
2515	582
2515.91	630
2516.82	622
2517.73	608
2518.63	584
2519.54	572
2520.45	578
2521.35	566
2522.26	588
2523.17	584
2524.07	596
2524.98	584
2525.89	560
2526.79	594
2527.7	580
2528.6	584
2529.51	562
2530.42	584
2531.32	576
2532.23	560
2533.13	568
2534.04	562
2534.94	542
2535.85	574
2536.75	560
2537.66	526
2538.56	556
2539.47	546
2540.37	552
2541.27	544
2542.18	536
2543.08	578
2543.98	580
2544.89	548
2545.79	560
2546.7	538
2547.6	556
2548.5	562
2549.4	546
2550.31	536
2551.21	536
2552.11	550
2553.01	552
2553.92	546
2554.82	558
2555.72	548
2556.62	542
2557.52	558
2558.42	558
2559.33	550
2560.23	546
2561.13	572
2562.03	544
2562.93	514
2563.83	518
2564.73	546
2565.63	522
2566.53	540
2567.43	532
2568.33	522
2569.23	540
2570.13	524
2571.03	518
2571.93	526
2572.83	524
2573.73	510
2574.63	520
2575.53	512
2576.43	532
2577.33	494
2578.22	486
2579.12	524
2580.02	500
2580.92	522
2581.82	512
2582.72	510
2583.61	506
2584.51	520
2585.41	524
2586.31	512
2587.2	478
2588.1	502
2589	510
2589.89	470
2590.79	496
2591.69	508
2592.58	508
2593.48	510
2594.38	488
2595.27	480
2596.17	496
2597.06	482
2597.96	516
2598.86	490
2599.75	488
2600.65	466
2601.54	498
2602.44	506
2603.33	500
2604.23	488
2605.12	490
2606.02	442
2606.91	464
2607.81	504
2608.7	478
2609.59	478
2610.49	476
2611.38	466
2612.27	478
2613.17	482
2614.06	484
2614.95	468
2615.85	480
2616.74	476
2617.63	478
2618.53	462
2619.42	450
2620.31	472
2621.2	436
2622.1	472
2622.99	438
2623.88	456
2624.77	472
2625.66	496
2626.55	478
2627.45	436
2628.34	466
2629.23	468
2630.12	454
2631.01	442
2631.9	434
2632.79	468
2633.68	472
2634.57	452
2635.46	464
2636.35	460
2637.24	430
2638.13	450
2639.02	458
2639.91	452
2640.8	428
2641.69	458
2642.58	444
2643.47	414
2644.36	460
2645.25	434
2646.14	434
2647.02	414
2647.91	444
2648.8	432
2649.69	440
2650.58	436
2651.46	440
2652.35	442
2653.24	448
2654.13	414
2655.01	442
2655.9	420
2656.79	418
2657.68	416
2658.56	422
2659.45	452
2660.34	396
2661.22	426
2662.11	404
2662.99	398
2663.88	412
2664.77	422
2665.65	420
2666.54	434
2667.42	424
2668.31	406
2669.2	396
2670.08	400
2670.96	398
2671.85	416
2672.73	412
2673.62	404
2674.5	418
2675.39	404
2676.27	396
2677.16	398
2678.04	418
2678.93	394
2679.81	386
2680.69	410
2681.58	410
2682.46	412
2683.34	390
2684.23	410
2685.11	400
2685.99	416
2686.87	390
2687.76	380
2688.64	402
2689.52	390
2690.4	382
2691.28	386
2692.17	420
2693.05	392
2693.93	386
2694.81	372
2695.69	382
2696.57	386
2697.46	376
2698.34	390
2699.22	374
2700.1	370
2700.98	380
2701.86	398
2702.74	370
2703.62	390
2704.5	372
2705.38	364
2706.26	386
2707.14	370
2708.02	390
2708.9	362
2709.78	370
2710.66	354
2711.54	364
2712.42	358
2713.3	372
2714.17	396
2715.05	366
2715.93	356
2716.81	356
2717.69	370
2718.57	360
2719.44	370
2720.32	328
2721.2	360
2722.08	384
2722.95	368
2723.83	354
2724.71	344
2725.59	354
2726.46	346
2727.34	366
2728.22	340
2729.09	358
2729.97	352
2730.85	314
2731.72	328
2732.6	344
2733.47	348
2734.35	342
2735.23	348
2736.1	326
2736.98	316
2737.85	326
2738.73	348
2739.6	338
2740.48	348
2741.35	348
2742.23	356
2743.1	316
2743.98	336
2744.85	340
2745.72	328
2746.6	352
2747.47	326
2748.35	326
2749.22	310
2750.09	320
2750.97	316
2751.84	320
2752.71	320
2753.59	324
2754.46	320
2755.33	304
2756.2	304
2757.08	332
2757.95	300
2758.82	326
2759.69	306
2760.57	316
2761.44	312
2762.31	310
2763.18	326
2764.05	332
2764.92	318
2765.79	318
2766.67	292
2767.54	330
2768.41	322
2769.28	320
2770.15	316
2771.02	306
2771.89	308
2772.76	298
2773.63	316
2774.5	304
2775.37	308
2776.24	292
2777.11	294
2777.98	300
2778.85	296
2779.72	308
2780.59	284
2781.46	286
2782.32	304
2783.19	294
2784.06	304
2784.93	280
2785.8	292
2786.67	298
2787.53	302
2788.4	276
2789.27	300
2790.14	282
2791.01	280
2791.87	294
2792.74	294
2793.61	284
2794.47	302
2795.34	288
2796.21	288
2797.07	260
2797.94	288
2798.81	284
2799.67	292
2800.54	244
2801.41	252
2802.27	272
2803.14	282
2804	272
2804.87	280
2805.74	276
2806.6	264
2807.47	276
2808.33	276
2809.2	282
2810.06	258
2810.93	282
2811.79	278
2812.65	272
2813.52	262
2814.38	258
2815.25	286
2816.11	254
2816.98	256
2817.84	264
2818.7	258
2819.56	268
2820.43	266
2821.29	272
2822.16	272
2823.02	292
2823.88	264
2824.74	264
2825.61	250
2826.47	268
2827.33	264
2828.19	250
2829.05	252
2829.92	264
2830.78	254
2831.64	244
2832.5	250
2833.36	252
2834.23	250
2835.09	270
2835.95	246
2836.81	246
2837.67	252
2838.53	250
2839.39	234
2840.25	242
2841.11	234
2841.97	220
2842.83	230
2843.69	230
2844.55	242
2845.41	242
2846.27	240
2847.13	244
2847.99	260
2848.85	258
2849.71	224
2850.57	248
2851.43	240
2852.28	234
2853.14	230
2854	240
2854.86	236
2855.72	238
2856.58	244
2857.43	242
2858.29	228
2859.15	230
2860.01	246
2860.86	228
2861.72	238
2862.58	220
2863.44	212
2864.29	204
2865.15	232
2866.01	214
2866.86	232
2867.72	204
2868.58	226
2869.43	234
2870.29	226
2871.14	224
2872	238
2872.86	230
2873.71	226
2874.57	222
2875.42	206
2876.28	224
2877.13	212
2877.99	204
2878.84	210
2879.7	210
2880.55	204
2881.41	218
2882.26	220
2883.11	208
2883.97	226
2884.82	212
2885.68	216
2886.53	216
2887.39	222
2888.24	216
2889.09	198
2889.94	202
2890.8	198
2891.65	202
2892.5	192
2893.36	200
2894.21	216
2895.06	210
2895.91	210
2896.77	206
2897.62	198
2898.47	200
2899.32	196
2900.17	224
2901.03	208
2901.88	200
2902.73	216
2903.58	204
2904.43	196
2905.28	210
2906.13	206
2906.98	212
2907.84	194
2908.69	190
2909.54	202
2910.39	216
2911.24	198
2912.09	196
2912.94	198
2913.79	188
2914.64	202
2915.49	190
2916.34	198
2917.19	184
2918.03	204
2918.88	186
2919.73	194
2920.58	190
2921.43	206
2922.28	196
2923.13	190
2923.98	188
2924.82	188
2925.67	182
2926.52	188
2927.37	194
2928.22	166
2929.06	216
2929.91	200
2930.76	194
2931.61	192
2932.45	194
2933.3	182
2934.15	182
2934.99	200
2935.84	190
2936.69	192
2937.53	180
2938.38	196
2939.23	206
2940.07	192
2940.92	184
2941.76	184
2942.61	188
2943.46	174
2944.3	174
2945.15	172
2945.99	188
2946.84	174
2947.68	198
2948.53	182
2949.37	184
2950.22	186
2951.06	178
2951.9	188
2952.75	178
2953.59	176
2954.44	182
2955.28	186
2956.12	170
2956.97	178
2957.81	170
2958.65	178
2959.5	166
2960.34	166
2961.18	162
2962.03	174
2962.87	184
2963.71	186
2964.56	176
2965.4	156
2966.24	172
2967.08	170
2967.92	158
2968.77	172
2969.61	168
2970.45	176
2971.29	176
2972.13	164
2972.97	172
2973.82	178
2974.66	174
2975.5	160
2976.34	160
2977.18	180
2978.02	162
2978.86	166
2979.7	158
2980.54	162
2981.38	164
2982.22	174
2983.06	156
2983.9	166
2984.74	174
2985.58	154
2986.42	162
2987.26	172
2988.1	152
2988.94	188
2989.78	168
2990.61	168
2991.45	158
2992.29	162
2993.13	192
2993.97	164
2994.81	164
2995.64	152
2996.48	160
2997.32	156
2998.16	162
2999	152
2999.83	156
