#Acq. time (s)=	10
#Accumulations=	1
#Range (cm-¹)=	200...3000
#Windows=	3
#Autofocus=	Off
#AutoExposure=	Off
#Spike filter=	Off
#Delay time (s)=	0
#Binning=	1
#Readout mode=	Signal
#DeNoise=	Off
#ICS correction=	Off
#Dark correction=	Off
#Inst. Process=	Off
#Instrument=	LabRAM HR Evol
#Detector=	Syncerity OE
#Objective=	x100_VIS
#Grating=	600 (500nm)
#ND Filter=	1%
#Laser=	633nm_Edge
#Hole=	30.0125
#Range=	Visible
#Project=	Omar
#Sample=	03-07-23
#Site=	fings
#Title=	inside_pr
#Remark=	
#Date=	03.07.2023 14:59
#Acquired=	03.07.2023 14:59:43
201.713	108
202.98	90
204.247	104
205.513	98
206.778	112
208.045	96
209.311	114
210.576	104
211.84	106
213.106	116
214.371	118
215.636	114
216.899	106
218.164	112
219.428	114
220.692	118
221.955	106
223.219	126
224.482	106
225.744	118
227.007	108
228.27	118
229.531	122
230.794	120
232.055	120
233.317	124
234.579	122
235.839	126
237.1	124
238.362	120
239.621	140
240.882	116
242.141	142
243.402	120
244.661	132
245.921	134
247.179	124
248.439	136
249.698	134
250.956	124
252.215	132
253.473	140
254.731	142
255.988	142
257.246	130
258.503	136
259.761	140
261.017	128
262.273	140
263.53	142
264.786	146
266.042	146
267.298	130
268.554	138
269.809	148
271.063	164
272.319	134
273.573	142
274.828	158
276.082	154
277.336	152
278.591	148
279.844	152
281.097	146
282.351	146
283.603	156
284.855	152
286.109	156
287.361	154
288.613	154
289.866	166
291.117	154
292.368	172
293.62	182
294.871	166
296.121	160
297.372	170
298.623	160
299.873	190
301.123	178
302.372	178
303.622	184
304.872	182
306.121	180
307.37	180
308.618	182
309.866	182
311.116	180
312.364	178
313.611	192
314.859	182
316.106	192
317.353	182
318.6	184
319.848	192
321.095	182
322.341	206
323.587	184
324.833	190
326.079	198
327.324	194
328.569	198
329.814	202
331.059	198
332.304	188
333.548	200
334.792	218
336.037	198
337.28	198
338.524	198
339.767	198
341.011	210
342.254	202
343.497	226
344.739	220
345.982	206
347.224	252
348.466	210
349.708	208
350.95	214
352.191	208
353.432	222
354.673	244
355.914	226
357.155	242
358.394	240
359.634	226
360.874	246
362.114	212
363.354	218
364.593	232
365.832	224
367.07	238
368.309	236
369.548	244
370.786	240
372.024	248
373.261	230
374.499	244
375.736	248
376.974	244
378.211	248
379.447	262
380.684	252
381.92	240
383.157	254
384.392	262
385.628	266
386.864	244
388.098	264
389.333	266
390.569	266
391.802	272
393.037	252
394.272	264
395.505	274
396.739	260
397.973	272
399.206	292
400.44	282
401.673	280
402.905	284
404.138	268
405.37	294
406.602	286
407.835	280
409.066	286
410.298	288
411.528	282
412.76	300
413.99	306
415.221	294
416.451	316
417.682	310
418.911	304
420.142	340
421.371	300
422.601	290
423.83	318
425.059	340
426.288	318
427.517	316
428.745	336
429.974	320
431.201	324
432.43	336
433.657	314
434.883	306
436.111	316
437.338	342
438.565	342
439.791	336
441.017	330
442.244	368
443.469	380
444.695	342
445.921	358
447.146	336
448.37	352
449.596	338
450.821	364
452.045	362
453.27	356
454.493	360
455.717	376
456.94	362
458.165	366
459.387	362
460.61	368
461.833	358
463.056	376
464.278	370
465.5	392
466.722	394
467.945	380
469.166	390
470.387	356
471.608	388
472.829	396
474.049	396
475.271	384
476.491	376
477.711	408
478.931	406
480.15	398
481.37	398
482.589	404
483.808	430
485.027	398
486.247	434
487.465	414
488.683	402
489.901	428
491.119	422
492.337	434
493.554	422
494.771	444
495.988	440
497.205	420
498.422	458
499.638	440
500.854	450
502.07	448
503.286	464
504.502	470
505.717	466
506.933	442
508.148	454
509.363	460
510.577	446
511.792	438
513.005	480
514.219	472
515.433	458
516.647	480
517.86	486
519.073	452
520.287	446
521.5	490
522.711	456
523.924	490
525.136	508
526.348	500
527.56	494
528.772	506
529.982	490
531.194	488
532.405	486
533.616	498
534.825	520
536.036	488
537.246	496
538.457	500
539.665	490
540.875	532
542.085	514
543.294	520
544.502	520
545.712	518
546.92	530
548.128	520
549.336	504
550.545	528
551.751	548
552.959	556
554.167	530
555.373	556
556.581	574
557.788	552
558.994	562
560.2	538
561.406	536
562.612	574
563.817	600
565.023	540
566.229	544
567.433	570
568.639	610
569.843	564
571.048	564
572.251	566
573.456	580
574.659	594
575.863	588
577.066	618
578.27	616
579.472	606
580.676	646
581.878	614
583.081	614
584.283	628
585.484	640
586.687	630
587.888	658
589.09	644
590.291	660
591.493	634
592.693	636
593.893	640
595.094	616
596.294	648
597.494	638
598.694	676
599.894	658
601.093	644
602.293	692
603.491	676
604.69	672
605.889	710
607.087	664
608.285	650
609.483	678
610.682	718
611.879	704
613.076	714
614.273	704
615.471	704
616.667	730
617.864	722
619.06	718
620.256	738
621.453	760
622.648	734
623.844	746
625.039	768
626.234	764
627.429	800
628.625	782
629.819	808
631.013	792
632.208	808
633.401	768
634.595	776
635.789	806
636.982	804
638.175	820
639.369	824
640.562	806
641.755	870
642.947	822
644.139	850
645.331	838
646.523	844
647.715	850
648.906	876
650.097	840
651.288	868
652.479	886
653.67	872
654.86	866
656.051	878
657.241	860
658.429	868
659.619	888
660.808	900
661.998	898
663.187	926
664.376	914
665.565	920
666.753	930
667.942	944
669.13	940
670.317	916
671.505	926
672.692	962
673.88	942
675.067	988
676.254	934
677.44	970
678.627	946
679.813	996
681	998
682.184	994
683.37	1006
684.556	990
685.742	1008
686.926	1026
688.111	1018
689.296	1038
690.481	998
691.664	1046
692.849	1036
694.033	1038
695.216	1078
696.4	1056
697.584	1076
698.766	1054
699.949	1098
701.133	1102
702.314	1094
703.497	1060
704.678	1110
705.861	1104
707.043	1108
708.224	1132
709.406	1140
710.586	1150
711.768	1126
712.949	1168
714.129	1184
715.31	1170
716.489	1164
717.67	1194
718.849	1202
720.029	1192
721.208	1198
722.388	1212
723.566	1216
724.746	1240
725.924	1262
727.103	1240
728.28	1262
729.458	1252
730.636	1260
731.814	1248
732.992	1282
734.168	1316
735.345	1344
736.523	1292
737.699	1312
738.876	1342
740.052	1350
741.227	1338
742.404	1354
743.579	1352
744.754	1362
745.931	1376
747.105	1360
748.28	1376
749.455	1424
750.629	1394
751.803	1406
752.977	1336
754.152	1422
755.325	1452
756.499	1406
757.672	1442
758.846	1452
760.018	1496
761.191	1540
762.363	1506
763.535	1480
764.708	1548
765.88	1514
767.052	1504
768.223	1522
769.394	1574
770.565	1582
771.737	1522
772.908	1544
774.078	1588
775.249	1580
776.419	1584
777.589	1650
778.758	1614
779.928	1596
781.097	1628
782.266	1672
783.435	1598
784.604	1670
785.773	1750
786.941	1662
788.11	1662
789.278	1650
790.446	1666
791.613	1716
792.781	1740
793.948	1764
795.115	1770
796.282	1758
797.449	1786
798.616	1748
799.782	1848
800.948	1842
802.115	1818
803.28	1806
804.446	1864
805.612	1878
806.777	1896
807.941	1848
809.106	1890
810.271	1924
811.435	1930
812.6	1916
813.764	1954
814.927	1972
816.091	1958
817.254	1972
818.418	1948
819.581	2030
820.743	1980
821.906	1996
823.069	2054
824.232	2042
825.393	2074
826.555	2058
827.717	2098
828.879	2088
830.039	2126
831.201	2092
832.362	2190
833.522	2138
834.683	2224
835.844	2222
837.003	2244
838.164	2262
839.324	2144
840.483	2210
841.643	2232
842.801	2280
843.961	2294
845.12	2306
846.278	2316
847.437	2348
848.594	2404
849.753	2362
850.91	2422
852.069	2404
853.227	2410
854.383	2422
855.541	2424
856.697	2514
857.855	2474
859.011	2492
860.168	2498
861.323	2514
862.48	2522
863.635	2510
864.79	2518
865.946	2624
867.101	2616
868.257	2646
869.411	2676
870.567	2694
871.721	2672
872.874	2696
874.029	2624
875.183	2686
876.336	2736
877.49	2650
878.643	2748
879.796	2706
880.95	2778
882.102	2728
883.254	2796
884.407	2796
885.559	2794
886.711	2824
887.862	2784
889.015	2858
890.166	2830
891.317	2850
892.467	2924
893.619	2926
894.77	2914
895.92	2962
897.07	2912
898.221	2948
899.371	2948
900.52	2996
901.669	2958
902.819	3060
903.968	3080
905.116	3074
906.266	3034
907.415	3080
908.563	3104
909.711	3114
910.859	3154
912.007	3170
913.154	3130
914.301	3302
915.449	3202
916.596	3240
917.742	3252
918.889	3374
920.036	3306
921.183	3240
922.329	3278
923.475	3390
924.621	3294
925.765	3364
926.911	3330
928.056	3384
929.201	3420
930.346	3474
931.49	3398
932.635	3454
933.779	3462
934.924	3528
936.068	3546
937.211	3626
938.355	3484
939.498	3562
940.64	3740
941.784	3628
942.926	3684
944.069	3656
945.212	3618
946.354	3776
947.495	3844
948.637	3766
949.779	3838
950.921	3838
952.062	3854
953.202	3860
954.344	3884
955.484	3870
956.625	4010
957.765	3986
958.905	4016
960.045	3938
961.184	4024
962.324	3996
963.464	4046
964.604	4058
965.742	4140
966.881	4072
968.02	4116
969.158	4120
970.296	4164
971.434	4194
972.572	4196
973.71	4328
974.847	4330
975.985	4272
977.121	4356
978.259	4340
979.396	4302
980.532	4428
981.669	4398
982.804	4436
983.941	4382
985.076	4396
986.212	4514
987.347	4538
988.483	4590
989.617	4522
990.753	4572
991.887	4672
993.022	4664
994.156	4668
995.29	4640
996.424	4732
997.558	4676
998.692	4722
999.825	4688
1000.96	4784
1002.09	4890
1003.22	4810
1004.36	4850
1005.49	4854
1006.62	4898
1007.75	4956
1008.89	4994
1010.02	4922
1011.15	4976
1012.28	5110
1013.41	5160
1014.54	5040
1015.67	5106
1016.8	5160
1017.93	5150
1019.07	5194
1020.19	5230
1021.32	5286
1022.45	5196
1023.58	5306
1024.71	5350
1025.84	5448
1026.97	5446
1028.1	5322
1029.23	5444
1030.36	5412
1031.49	5572
1032.61	5540
1033.74	5562
1034.87	5630
1036	5614
1037.12	5812
1038.25	5684
1039.38	5720
1040.5	5734
1041.63	5904
1042.76	5846
1043.88	5786
1045.01	5974
1046.14	5940
1047.26	6036
1048.39	6004
1049.51	6058
1050.64	5974
1051.76	6122
1052.89	6078
1054.01	6160
1055.14	6170
1056.26	6158
1057.38	6114
1058.51	6274
1059.63	6220
1060.75	6292
1061.88	6318
1063	6344
1064.12	6466
1065.25	6450
1066.37	6526
1067.49	6384
1068.61	6406
1069.73	6436
1070.86	6534
1071.98	6496
1073.1	6588
1074.22	6636
1075.34	6522
1076.46	6694
1077.58	6696
1078.7	6710
1079.82	6682
1080.94	6792
1082.06	6734
1083.18	6828
1084.3	6846
1085.42	6886
1086.54	6798
1087.66	6794
1088.78	6972
1089.9	6914
1091.02	6852
1092.14	6972
1093.25	7052
1094.37	6900
1095.49	7020
1096.61	7038
1097.72	7024
1098.84	7120
1099.96	7166
1101.08	7202
1102.19	7064
1103.31	7166
1104.43	7084
1105.54	7212
1106.66	7130
1107.77	7188
1108.89	7276
1110	7334
1111.12	7356
1112.23	7434
1113.35	7342
1114.46	7416
1115.58	7322
1116.69	7426
1117.81	7406
1118.92	7426
1120.03	7598
1121.15	7564
1122.26	7588
1123.37	7682
1124.49	7544
1125.6	7528
1126.71	7650
1127.83	7694
1128.94	7680
1130.05	7642
1131.16	7692
1132.27	7732
1133.39	7816
1134.5	7738
1135.61	7790
1136.72	7790
1137.83	7932
1138.94	7962
1140.05	7906
1141.16	7934
1142.27	8088
1143.38	8038
1144.49	8006
1145.6	7946
1146.71	8092
1147.82	8078
1148.93	8038
1150.04	8176
1151.15	8148
1152.26	8110
1153.36	8196
1154.47	8066
1155.58	8172
1156.69	8150
1157.8	8056
1158.9	8252
1160.01	8280
1161.12	8146
1162.22	8260
1163.33	8308
1164.44	8322
1165.54	8416
1166.65	8306
1167.76	8428
1168.86	8290
1169.97	8318
1171.07	8292
1172.18	8170
1173.28	8402
1174.39	8314
1175.49	8358
1176.6	8470
1177.7	8394
1178.81	8370
1179.91	8432
1181.02	8302
1182.12	8286
1183.22	8440
1184.33	8250
1185.43	8370
1186.53	8438
1187.63	8280
1188.74	8338
1189.84	8338
1190.94	8388
1192.04	8298
1193.15	8306
1194.25	8324
1195.35	8194
1196.45	8326
1197.55	8224
1198.65	8320
1199.75	8254
1200.85	8312
1201.95	8236
1203.05	8334
1204.16	8294
1205.25	8350
1206.35	8184
1207.45	8248
1208.55	8148
1209.65	8168
1210.75	8168
1211.85	8056
1212.95	8188
1214.05	8038
1215.15	8026
1216.24	8044
1217.34	8034
1218.44	8040
1219.54	8130
1220.64	7926
1221.73	7948
1222.83	8034
1223.93	7932
1225.02	7928
1226.12	7956
1227.22	7846
1228.31	7926
1229.41	7928
1230.5	7810
1231.6	7788
1232.7	7880
1233.79	7708
1234.89	7796
1235.98	7720
1237.08	7818
1238.17	7796
1239.26	7640
1240.36	7804
1241.45	7712
1242.55	7724
1243.64	7586
1244.73	7712
1245.83	7630
1246.92	7598
1248.01	7620
1249.11	7486
1250.2	7538
1251.29	7524
1252.38	7440
1253.48	7526
1254.57	7546
1255.66	7478
1256.75	7462
1257.84	7352
1258.93	7378
1260.03	7446
1261.12	7382
1262.21	7404
1263.3	7412
1264.39	7296
1265.48	7228
1266.57	7338
1267.66	7310
1268.75	7310
1269.84	7230
1270.93	7114
1272.02	7248
1273.11	7190
1274.19	7090
1275.28	7048
1276.37	7138
1277.46	7010
1278.55	7054
1279.64	6942
1280.72	6888
1281.81	6882
1282.9	6936
1283.98	6857.99
1285.07	6790.18
1286.16	6844.63
1287.25	6764.63
1288.33	6712.76
1289.42	6640
1290.5	6649.8
1291.59	6508.27
1292.68	6435.71
1293.76	6523.25
1294.85	6456.09
1295.93	6371.75
1297.02	6247.15
1298.1	6340.14
1299.19	6176.02
1300.27	6160.07
1301.36	6125.77
1302.44	6150.77
1303.53	6063.32
1304.61	6014.69
1305.69	5978.43
1306.78	5900.3
1307.86	5784.54
1308.94	5795.73
1310.03	5740.55
1311.11	5782.91
1312.19	5684.63
1313.27	5723.08
1314.36	5656.55
1315.44	5549.65
1316.52	5503.89
1317.6	5475.56
1318.68	5540.6
1319.77	5424.25
1320.85	5332.1
1321.93	5314.23
1323.01	5323.1
1324.09	5190.35
1325.17	5170.27
1326.25	5195.92
1327.33	5113.04
1328.41	5065.36
1329.49	5017.26
1330.57	4981.94
1331.65	4902.72
1332.73	4928.05
1333.81	4860.22
1334.89	4836.99
1335.97	4802.06
1337.04	4772.22
1338.12	4737.75
1339.2	4700.04
1340.28	4666.5
1341.36	4595.8
1342.44	4610.07
1343.51	4574.36
1344.59	4479.88
1345.67	4408.36
1346.75	4451.41
1347.82	4357.39
1348.9	4322.59
1349.98	4335.49
1351.05	4293.45
1352.13	4279.43
1353.2	4248.15
1354.28	4168.14
1355.36	4139.06
1356.43	4144.99
1357.51	4064.8
1358.58	4039.71
1359.66	4051.61
1360.73	3986.47
1361.81	3997.13
1362.88	3877.72
1363.96	3929.87
1365.03	3897.72
1366.1	3843.59
1367.18	3900.44
1368.25	3809.08
1369.33	3760.85
1370.4	3763.29
1371.47	3670.09
1372.54	3605.21
1373.62	3591.23
1374.69	3642.69
1375.76	3538.97
1376.83	3517.3
1377.91	3467.01
1378.98	3432.05
1380.05	3446.54
1381.12	3402.52
1382.19	3379.03
1383.26	3341.03
1384.34	3295.42
1385.41	3237.98
1386.48	3313.56
1387.55	3221.44
1388.62	3239.28
1389.69	3223.03
1390.76	3177.55
1391.83	3151.07
1392.9	3160.66
1393.02	3158
1394.1	3068
1395.17	3142
1396.25	3132
1397.32	3032
1398.4	3070
1399.47	3076
1400.55	2982
1401.62	2960
1402.69	3000
1403.77	3030
1404.84	3024
1405.91	2984
1406.99	2938
1408.06	2966
1409.13	2910
1410.2	2958
1411.27	2914
1412.35	2982
1413.42	2882
1414.49	2874
1415.56	2928
1416.63	2832
1417.7	2882
1418.78	2862
1419.85	2758
1420.92	2830
1421.99	2790
1423.06	2818
1424.13	2802
1425.2	2824
1426.27	2748
1427.34	2700
1428.41	2738
1429.48	2792
1430.55	2778
1431.61	2698
1432.68	2686
1433.75	2648
1434.82	2658
1435.89	2674
1436.96	2650
1438.02	2646
1439.09	2654
1440.16	2658
1441.23	2664
1442.3	2594
1443.36	2644
1444.43	2600
1445.5	2596
1446.56	2588
1447.63	2574
1448.7	2650
1449.76	2538
1450.83	2574
1451.89	2536
1452.96	2556
1454.02	2476
1455.09	2488
1456.15	2472
1457.22	2514
1458.28	2508
1459.35	2424
1460.41	2448
1461.48	2458
1462.54	2532
1463.61	2460
1464.67	2462
1465.73	2478
1466.8	2464
1467.86	2460
1468.92	2466
1469.98	2454
1471.05	2398
1472.11	2422
1473.17	2448
1474.24	2386
1475.3	2390
1476.36	2388
1477.42	2328
1478.48	2262
1479.54	2406
1480.6	2334
1481.67	2310
1482.73	2318
1483.79	2334
1484.85	2304
1485.91	2330
1486.97	2302
1488.03	2308
1489.09	2268
1490.15	2278
1491.21	2334
1492.27	2296
1493.33	2226
1494.38	2262
1495.44	2274
1496.5	2274
1497.56	2252
1498.62	2290
1499.68	2208
1500.74	2216
1501.79	2232
1502.85	2218
1503.91	2176
1504.97	2166
1506.02	2188
1507.08	2138
1508.14	2252
1509.2	2124
1510.25	2172
1511.31	2178
1512.36	2100
1513.42	2144
1514.48	2104
1515.53	2122
1516.59	2146
1517.64	2152
1518.7	2100
1519.75	2152
1520.81	2086
1521.86	2074
1522.92	2082
1523.97	2094
1525.02	2054
1526.08	2030
1527.13	2034
1528.19	2054
1529.24	2032
1530.29	2052
1531.35	2062
1532.4	1998
1533.45	2030
1534.51	2050
1535.56	1996
1536.61	1952
1537.66	2004
1538.72	1950
1539.77	1966
1540.82	1966
1541.87	1976
1542.92	1966
1543.97	1940
1545.02	1970
1546.08	1938
1547.13	1866
1548.18	1904
1549.23	1890
1550.28	1912
1551.33	1942
1552.38	1862
1553.43	1908
1554.48	1874
1555.53	1930
1556.57	1838
1557.62	1930
1558.67	1886
1559.72	1854
1560.77	1892
1561.82	1862
1562.87	1906
1563.92	1806
1564.96	1830
1566.01	1848
1567.06	1828
1568.11	1842
1569.15	1836
1570.2	1884
1571.25	1808
1572.29	1826
1573.34	1790
1574.39	1862
1575.43	1780
1576.48	1738
1577.53	1794
1578.57	1832
1579.62	1852
1580.66	1774
1581.71	1790
1582.75	1756
1583.8	1806
1584.84	1770
1585.89	1766
1586.93	1754
1587.98	1748
1589.02	1694
1590.06	1746
1591.11	1732
1592.15	1710
1593.2	1712
1594.24	1760
1595.28	1752
1596.33	1766
1597.37	1746
1598.41	1776
1599.45	1708
1600.5	1686
1601.54	1716
1602.58	1704
1603.62	1774
1604.66	1692
1605.7	1722
1606.75	1730
1607.79	1740
1608.83	1716
1609.87	1662
1610.91	1708
1611.95	1652
1612.99	1720
1614.03	1648
1615.07	1702
1616.11	1666
1617.15	1694
1618.19	1702
1619.23	1672
1620.27	1652
1621.31	1676
1622.35	1634
1623.39	1644
1624.43	1664
1625.46	1642
1626.5	1634
1627.54	1668
1628.58	1636
1629.62	1636
1630.65	1692
1631.69	1648
1632.73	1638
1633.77	1654
1634.8	1624
1635.84	1630
1636.88	1642
1637.91	1600
1638.95	1650
1639.99	1642
1641.02	1608
1642.06	1604
1643.09	1636
1644.13	1582
1645.16	1668
1646.2	1570
1647.23	1592
1648.27	1594
1649.3	1598
1650.34	1584
1651.37	1588
1652.41	1620
1653.44	1572
1654.47	1572
1655.51	1608
1656.54	1538
1657.57	1572
1658.61	1560
1659.64	1572
1660.67	1542
1661.71	1590
1662.74	1484
1663.77	1528
1664.81	1570
1665.84	1560
1666.87	1504
1667.9	1558
1668.93	1538
1669.96	1506
1671	1514
1672.03	1556
1673.06	1536
1674.09	1518
1675.12	1548
1676.15	1490
1677.18	1532
1678.21	1510
1679.24	1546
1680.27	1518
1681.3	1452
1682.33	1502
1683.36	1544
1684.39	1480
1685.42	1470
1686.45	1510
1687.47	1514
1688.5	1502
1689.53	1486
1690.56	1490
1691.59	1476
1692.62	1478
1693.64	1434
1694.67	1434
1695.7	1470
1696.73	1478
1697.75	1508
1698.78	1460
1699.81	1434
1700.83	1444
1701.86	1416
1702.89	1466
1703.91	1492
1704.94	1422
1705.97	1450
1706.99	1492
1708.02	1454
1709.04	1430
1710.07	1438
1711.09	1420
1712.12	1420
1713.14	1442
1714.17	1448
1715.19	1406
1716.22	1464
1717.24	1410
1718.26	1422
1719.29	1434
1720.31	1438
1721.33	1434
1722.36	1406
1723.38	1432
1724.4	1448
1725.43	1394
1726.45	1414
1727.47	1478
1728.49	1406
1729.52	1414
1730.54	1440
1731.56	1452
1732.58	1400
1733.6	1388
1734.63	1414
1735.65	1390
1736.67	1402
1737.69	1400
1738.71	1430
1739.73	1372
1740.75	1408
1741.77	1442
1742.79	1376
1743.81	1410
1744.83	1396
1745.85	1384
1746.87	1390
1747.89	1410
1748.91	1426
1749.93	1404
1750.95	1404
1751.97	1384
1752.98	1394
1754	1394
1755.02	1366
1756.04	1408
1757.06	1370
1758.07	1384
1759.09	1398
1760.11	1398
1761.13	1362
1762.14	1400
1763.16	1382
1764.18	1400
1765.19	1414
1766.21	1410
1767.23	1380
1768.24	1420
1769.26	1412
1770.28	1386
1771.29	1396
1772.31	1408
1773.32	1358
1774.34	1406
1775.35	1366
1776.37	1406
1777.38	1360
1778.4	1372
1779.41	1396
1780.43	1396
1781.44	1336
1782.45	1400
1783.47	1368
1784.48	1354
1785.49	1368
1786.51	1344
1787.52	1396
1788.53	1338
1789.55	1404
1790.56	1348
1791.57	1368
1792.58	1404
1793.6	1374
1794.61	1352
1795.62	1356
1796.63	1368
1797.64	1386
1798.66	1350
1799.67	1408
1800.68	1312
1801.69	1328
1802.7	1350
1803.71	1390
1804.72	1392
1805.73	1356
1806.74	1404
1807.75	1360
1808.76	1380
1809.77	1342
1810.78	1352
1811.79	1364
1812.8	1356
1813.81	1268
1814.82	1388
1815.83	1346
1816.84	1340
1817.84	1374
1818.85	1364
1819.86	1388
1820.87	1336
1821.88	1390
1822.88	1350
1823.89	1330
1824.9	1328
1825.91	1310
1826.91	1330
1827.92	1356
1828.93	1364
1829.93	1272
1830.94	1324
1831.95	1316
1832.95	1400
1833.96	1328
1834.97	1360
1835.97	1318
1836.98	1304
1837.98	1348
1838.99	1328
1839.99	1352
1841	1380
1842	1326
1843.01	1332
1844.01	1380
1845.02	1342
1846.02	1312
1847.02	1304
1848.03	1362
1849.03	1330
1850.03	1300
1851.04	1362
1852.04	1300
1853.04	1364
1854.05	1362
1855.05	1314
1856.05	1314
1857.05	1302
1858.06	1300
1859.06	1320
1860.06	1300
1861.06	1288
1862.06	1310
1863.07	1332
1864.07	1298
1865.07	1310
1866.07	1326
1867.07	1284
1868.07	1318
1869.07	1328
1870.07	1336
1871.07	1328
1872.07	1296
1873.07	1306
1874.07	1336
1875.07	1302
1876.07	1292
1877.07	1330
1878.07	1326
1879.07	1298
1880.07	1310
1881.07	1318
1882.07	1288
1883.06	1322
1884.06	1308
1885.06	1274
1886.06	1318
1887.06	1310
1888.05	1308
1889.05	1310
1890.05	1354
1891.05	1272
1892.04	1272
1893.04	1280
1894.04	1318
1895.03	1326
1896.03	1346
1897.03	1304
1898.02	1280
1899.02	1328
1900.01	1274
1901.01	1360
1902	1296
1903	1266
1903.99	1294
1904.99	1298
1905.98	1296
1906.98	1290
1907.97	1286
1908.97	1296
1909.96	1316
1910.96	1326
1911.95	1314
1912.94	1356
1913.94	1316
1914.93	1330
1915.93	1290
1916.92	1346
1917.91	1292
1918.9	1342
1919.9	1304
1920.89	1272
1921.88	1306
1922.87	1336
1923.87	1312
1924.86	1336
1925.85	1298
1926.84	1308
1927.83	1302
1928.82	1358
1929.82	1330
1930.81	1334
1931.8	1292
1932.79	1268
1933.78	1348
1934.77	1322
1935.76	1318
1936.75	1288
1937.74	1298
1938.73	1294
1939.72	1284
1940.71	1272
1941.7	1284
1942.69	1278
1943.68	1300
1944.67	1282
1945.65	1250
1946.64	1284
1947.63	1290
1948.62	1318
1949.61	1284
1950.6	1342
1951.58	1270
1952.57	1288
1953.56	1280
1954.55	1262
1955.53	1242
1956.52	1276
1957.51	1284
1958.5	1280
1959.48	1230
1960.47	1280
1961.45	1308
1962.44	1324
1963.43	1280
1964.41	1264
1965.4	1268
1966.38	1268
1967.37	1288
1968.35	1278
1969.34	1212
1970.32	1292
1971.31	1224
1972.29	1256
1973.28	1260
1974.26	1254
1975.25	1262
1976.23	1166
1977.22	1260
1978.2	1294
1979.18	1282
1980.17	1242
1981.15	1282
1982.13	1272
1983.12	1266
1984.1	1280
1985.08	1264
1986.06	1270
1987.05	1210
1988.03	1222
1989.01	1230
1989.99	1266
1990.97	1230
1991.96	1254
1992.94	1268
1993.92	1316
1994.9	1216
1995.88	1260
1996.86	1274
1997.84	1254
1998.82	1278
1999.8	1286
2000.78	1228
2001.76	1242
2002.74	1224
2003.72	1254
2004.7	1218
2005.68	1214
2006.66	1276
2007.64	1258
2008.62	1246
2009.6	1250
2010.58	1214
2011.56	1242
2012.54	1238
2013.51	1228
2014.49	1256
2015.47	1224
2016.45	1276
2017.43	1204
2018.4	1228
2019.38	1218
2020.36	1206
2021.34	1258
2022.31	1226
2023.29	1218
2024.27	1292
2025.24	1254
2026.22	1248
2027.2	1248
2028.17	1234
2029.15	1220
2030.12	1242
2031.1	1232
2032.07	1192
2033.05	1240
2034.03	1252
2035	1168
2035.98	1190
2036.95	1248
2037.93	1248
2038.9	1184
2039.87	1212
2040.85	1222
2041.82	1294
2042.8	1248
2043.77	1202
2044.74	1238
2045.72	1260
2046.69	1272
2047.66	1212
2048.64	1280
2049.61	1286
2050.58	1248
2051.55	1208
2052.53	1230
2053.5	1190
2054.47	1254
2055.44	1252
2056.41	1260
2057.39	1222
2058.36	1218
2059.33	1204
2060.3	1232
2061.27	1242
2062.24	1248
2063.21	1214
2064.18	1184
2065.15	1250
2066.12	1210
2067.09	1260
2068.06	1212
2069.03	1276
2070	1236
2070.97	1172
2071.94	1242
2072.91	1216
2073.88	1212
2074.85	1210
2075.82	1228
2076.79	1190
2077.76	1236
2078.73	1254
2079.69	1236
2080.66	1220
2081.63	1154
2082.6	1226
2083.56	1204
2084.53	1216
2085.5	1256
2086.47	1260
2087.43	1212
2088.4	1194
2089.37	1218
2090.33	1212
2091.3	1228
2092.27	1198
2093.23	1236
2094.2	1290
2095.17	1236
2096.13	1244
2097.1	1190
2098.06	1194
2099.03	1220
2099.99	1272
2100.96	1230
2101.92	1218
2102.89	1202
2103.85	1252
2104.82	1206
2105.78	1230
2106.74	1208
2107.71	1196
2108.67	1208
2109.64	1182
2110.6	1244
2111.56	1202
2112.53	1234
2113.49	1208
2114.45	1210
2115.41	1246
2116.38	1206
2117.34	1232
2118.3	1200
2119.26	1278
2120.23	1250
2121.19	1218
2122.15	1214
2123.11	1218
2124.07	1192
2125.03	1218
2126	1242
2126.96	1214
2127.92	1220
2128.88	1196
2129.84	1192
2130.8	1196
2131.76	1236
2132.72	1250
2133.68	1230
2134.64	1226
2135.6	1206
2136.56	1200
2137.52	1184
2138.48	1200
2139.44	1198
2140.4	1168
2141.35	1194
2142.31	1204
2143.27	1206
2144.23	1208
2145.19	1202
2146.15	1228
2147.1	1158
2148.06	1238
2149.02	1188
2149.98	1188
2150.94	1204
2151.89	1224
2152.85	1230
2153.81	1204
2154.76	1198
2155.72	1214
2156.68	1218
2157.63	1204
2158.59	1198
2159.55	1162
2160.5	1176
2161.46	1204
2162.41	1198
2163.37	1192
2164.32	1194
2165.28	1198
2166.23	1186
2167.19	1194
2168.14	1216
2169.1	1184
2170.05	1180
2171.01	1160
2171.96	1214
2172.91	1210
2173.87	1196
2174.82	1216
2175.78	1152
2176.73	1148
2177.68	1202
2178.64	1188
2179.59	1206
2180.54	1188
2181.49	1184
2182.45	1166
2183.4	1234
2184.35	1188
2185.3	1212
2186.26	1140
2187.21	1138
2188.16	1180
2189.11	1138
2190.06	1198
2191.01	1152
2191.96	1188
2192.92	1178
2193.87	1166
2194.82	1154
2195.77	1182
2196.72	1138
2197.67	1194
2198.62	1180
2199.57	1152
2200.52	1190
2201.47	1204
2202.42	1170
2203.37	1150
2204.32	1174
2205.27	1146
2206.22	1218
2207.16	1132
2208.11	1142
2209.06	1120
2210.01	1174
2210.96	1206
2211.91	1156
2212.85	1182
2213.8	1188
2214.75	1142
2215.7	1158
2216.64	1164
2217.59	1116
2218.54	1114
2219.49	1166
2220.43	1142
2221.38	1168
2222.33	1110
2223.27	1140.98
2224.22	1154.35
2225.16	1138.73
2226.11	1131.62
2227.06	1137.19
2228	1112.82
2228.95	1105.58
2229.89	1117.01
2230.84	1143.73
2231.78	1123.23
2232.73	1096.47
2233.67	1111.85
2234.62	1127.75
2235.56	1079.44
2236.51	1112.95
2237.45	1111.41
2238.4	1116.2
2239.34	1114.28
2240.28	1108.71
2241.23	1095.37
2242.17	1147.88
2243.11	1112.35
2244.06	1141.58
2245	1104.43
2245.94	1092.54
2246.89	1107.21
2247.83	1044.18
2248.77	1118.53
2249.71	1064.95
2250.66	1095.32
2251.6	1076.35
2252.54	1058.45
2253.48	1083.6
2254.42	1062.04
2255.37	1048.49
2256.31	1066.88
2257.25	1069.55
2258.19	1095.15
2259.13	1084.38
2260.07	1067.29
2261.01	1056.57
2261.95	1059.43
2262.89	1034.55
2263.83	1047.46
2264.77	1027.64
2265.71	1039.98
2266.65	1058.75
2267.59	1052.01
2268.53	1047.23
2269.47	1045.48
2270.41	1031.14
2271.35	1021.8
2272.29	1019.31
2273.23	1015.7
2274.17	1043.54
2275.1	1030.59
2276.04	986.698
2276.98	996.441
2277.92	986.308
2278.86	995.219
2279.8	1000.94
2280.73	1009.48
2281.67	1003.79
2282.61	1028.24
2283.55	983.558
2284.48	974.31
2285.42	1001.25
2286.36	974.126
2287.29	977.909
2288.23	962.332
2289.17	964.692
2290.1	976.384
2291.04	979.1
2291.98	963.432
2292.91	955.38
2293.85	957.24
2294.78	941.648
2295.72	944.109
2296.65	954.806
2297.59	945.364
2298.52	932.573
2299.46	937.003
2300.39	931.303
2301.33	954.062
2302.26	945.602
2303.2	943.525
2304.13	918.166
2305.06	920.892
2306	907.944
2306.93	932.098
2307.87	920.08
2308.8	902.349
2309.73	927.988
2310.67	921.734
2311.6	891.775
2312.53	875.115
2313.46	880.101
2314.4	900.32
2315.33	904.49
2316.26	888.036
2316.69	878
2317.62	900
2318.56	868
2319.5	912
2320.43	910
2321.37	878
2322.31	908
2323.24	880
2324.18	852
2325.12	876
2326.05	850
2326.99	874
2327.92	898
2328.86	856
2329.79	894
2330.73	884
2331.66	882
2332.6	904
2333.53	874
2334.47	878
2335.4	876
2336.34	860
2337.27	858
2338.2	900
2339.14	876
2340.07	878
2341.01	866
2341.94	900
2342.87	858
2343.81	864
2344.74	846
2345.67	888
2346.6	862
2347.54	848
2348.47	826
2349.4	864
2350.33	842
2351.27	890
2352.2	844
2353.13	856
2354.06	872
2354.99	850
2355.93	858
2356.86	850
2357.79	892
2358.72	836
2359.65	898
2360.58	840
2361.51	836
2362.44	852
2363.37	854
2364.3	806
2365.23	848
2366.16	854
2367.09	804
2368.02	858
2368.95	828
2369.88	824
2370.81	834
2371.74	832
2372.67	846
2373.6	808
2374.52	828
2375.45	818
2376.38	842
2377.31	834
2378.24	844
2379.17	850
2380.09	798
2381.02	862
2381.95	844
2382.88	790
2383.8	772
2384.73	838
2385.66	800
2386.58	792
2387.51	792
2388.44	848
2389.36	802
2390.29	820
2391.22	796
2392.14	800
2393.07	768
2393.99	798
2394.92	820
2395.85	782
2396.77	804
2397.7	808
2398.62	796
2399.55	782
2400.47	814
2401.4	814
2402.32	802
2403.25	784
2404.17	800
2405.09	764
2406.02	776
2406.94	768
2407.86	784
2408.79	768
2409.71	778
2410.63	776
2411.56	750
2412.48	774
2413.4	768
2414.33	804
2415.25	758
2416.17	798
2417.09	770
2418.02	786
2418.94	802
2419.86	754
2420.78	772
2421.7	772
2422.63	756
2423.55	742
2424.47	772
2425.39	768
2426.31	778
2427.23	768
2428.15	748
2429.07	774
2429.99	748
2430.91	782
2431.83	722
2432.75	762
2433.67	732
2434.59	748
2435.51	744
2436.43	746
2437.35	762
2438.27	756
2439.19	752
2440.11	708
2441.03	736
2441.95	720
2442.86	758
2443.78	750
2444.7	732
2445.62	728
2446.54	718
2447.46	752
2448.37	716
2449.29	740
2450.21	708
2451.13	730
2452.04	708
2452.96	712
2453.88	750
2454.79	722
2455.71	702
2456.63	716
2457.54	716
2458.46	696
2459.38	748
2460.29	722
2461.21	680
2462.12	710
2463.04	676
2463.95	712
2464.87	688
2465.78	692
2466.7	682
2467.61	712
2468.53	700
2469.44	690
2470.36	692
2471.27	692
2472.19	674
2473.1	702
2474.01	708
2474.93	650
2475.84	690
2476.76	690
2477.67	658
2478.58	694
2479.5	656
2480.41	672
2481.32	684
2482.23	630
2483.15	658
2484.06	674
2484.97	660
2485.88	688
2486.8	668
2487.71	672
2488.62	658
2489.53	640
2490.44	640
2491.35	664
2492.26	686
2493.18	672
2494.09	668
2495	668
2495.91	650
2496.82	662
2497.73	648
2498.64	650
2499.55	604
2500.46	656
2501.37	624
2502.28	628
2503.19	630
2504.1	652
2505.01	654
2505.92	650
2506.83	642
2507.74	632
2508.65	618
2509.55	624
2510.46	622
2511.37	664
2512.28	622
2513.19	628
2514.09	630
2515	616
2515.91	610
2516.82	642
2517.73	618
2518.63	594
2519.54	636
2520.45	600
2521.35	578
2522.26	616
2523.17	586
2524.07	598
2524.98	576
2525.89	632
2526.79	598
2527.7	574
2528.6	610
2529.51	602
2530.42	582
2531.32	600
2532.23	592
2533.13	570
2534.04	582
2534.94	596
2535.85	568
2536.75	602
2537.66	594
2538.56	586
2539.47	558
2540.37	604
2541.27	592
2542.18	590
2543.08	590
2543.98	566
2544.89	612
2545.79	564
2546.7	580
2547.6	568
2548.5	568
2549.4	596
2550.31	590
2551.21	602
2552.11	558
2553.01	576
2553.92	584
2554.82	570
2555.72	554
2556.62	578
2557.52	590
2558.42	534
2559.33	542
2560.23	572
2561.13	544
2562.03	562
2562.93	552
2563.83	558
2564.73	560
2565.63	534
2566.53	548
2567.43	538
2568.33	552
2569.23	546
2570.13	518
2571.03	538
2571.93	552
2572.83	538
2573.73	520
2574.63	534
2575.53	508
2576.43	534
2577.33	532
2578.22	554
2579.12	522
2580.02	560
2580.92	532
2581.82	538
2582.72	532
2583.61	526
2584.51	526
2585.41	526
2586.31	538
2587.2	514
2588.1	524
2589	510
2589.89	512
2590.79	530
2591.69	496
2592.58	542
2593.48	520
2594.38	504
2595.27	528
2596.17	528
2597.06	510
2597.96	482
2598.86	494
2599.75	518
2600.65	504
2601.54	500
2602.44	496
2603.33	496
2604.23	504
2605.12	498
2606.02	510
2606.91	516
2607.81	488
2608.7	506
2609.59	514
2610.49	496
2611.38	490
2612.27	506
2613.17	494
2614.06	494
2614.95	462
2615.85	490
2616.74	482
2617.63	462
2618.53	484
2619.42	476
2620.31	498
2621.2	480
2622.1	486
2622.99	472
2623.88	480
2624.77	484
2625.66	478
2626.55	510
2627.45	478
2628.34	458
2629.23	452
2630.12	468
2631.01	476
2631.9	474
2632.79	462
2633.68	470
2634.57	462
2635.46	480
2636.35	440
2637.24	472
2638.13	466
2639.02	468
2639.91	454
2640.8	498
2641.69	468
2642.58	478
2643.47	476
2644.36	466
2645.25	426
2646.14	452
2647.02	460
2647.91	446
2648.8	452
2649.69	464
2650.58	466
2651.46	422
2652.35	440
2653.24	448
2654.13	450
2655.01	440
2655.9	426
2656.79	446
2657.68	410
2658.56	420
2659.45	452
2660.34	398
2661.22	432
2662.11	440
2662.99	440
2663.88	428
2664.77	444
2665.65	434
2666.54	446
2667.42	450
2668.31	428
2669.2	440
2670.08	436
2670.96	400
2671.85	430
2672.73	436
2673.62	444
2674.5	422
2675.39	428
2676.27	428
2677.16	434
2678.04	406
2678.93	426
2679.81	420
2680.69	390
2681.58	420
2682.46	424
2683.34	396
2684.23	438
2685.11	396
2685.99	396
2686.87	414
2687.76	412
2688.64	408
2689.52	400
2690.4	408
2691.28	414
2692.17	420
2693.05	408
2693.93	388
2694.81	390
2695.69	420
2696.57	402
2697.46	388
2698.34	406
2699.22	390
2700.1	394
2700.98	370
2701.86	372
2702.74	390
2703.62	388
2704.5	386
2705.38	378
2706.26	376
2707.14	372
2708.02	374
2708.9	376
2709.78	388
2710.66	378
2711.54	382
2712.42	368
2713.3	372
2714.17	380
2715.05	362
2715.93	372
2716.81	380
2717.69	372
2718.57	362
2719.44	372
2720.32	386
2721.2	356
2722.08	370
2722.95	356
2723.83	388
2724.71	356
2725.59	376
2726.46	358
2727.34	350
2728.22	358
2729.09	344
2729.97	376
2730.85	366
2731.72	350
2732.6	354
2733.47	344
2734.35	352
2735.23	350
2736.1	358
2736.98	326
2737.85	350
2738.73	360
2739.6	360
2740.48	348
2741.35	344
2742.23	346
2743.1	326
2743.98	340
2744.85	328
2745.72	360
2746.6	330
2747.47	346
2748.35	340
2749.22	348
2750.09	336
2750.97	332
2751.84	294
2752.71	350
2753.59	316
2754.46	342
2755.33	324
2756.2	330
2757.08	330
2757.95	324
2758.82	312
2759.69	306
2760.57	300
2761.44	308
2762.31	310
2763.18	320
2764.05	326
2764.92	302
2765.79	326
2766.67	304
2767.54	330
2768.41	316
2769.28	318
2770.15	322
2771.02	304
2771.89	298
2772.76	314
2773.63	314
2774.5	308
2775.37	308
2776.24	300
2777.11	296
2777.98	312
2778.85	290
2779.72	290
2780.59	302
2781.46	334
2782.32	286
2783.19	320
2784.06	304
2784.93	306
2785.8	298
2786.67	292
2787.53	306
2788.4	288
2789.27	280
2790.14	304
2791.01	316
2791.87	288
2792.74	272
2793.61	284
2794.47	290
2795.34	298
2796.21	286
2797.07	282
2797.94	288
2798.81	294
2799.67	298
2800.54	290
2801.41	264
2802.27	290
2803.14	284
2804	282
2804.87	284
2805.74	278
2806.6	268
2807.47	282
2808.33	286
2809.2	288
2810.06	290
2810.93	272
2811.79	284
2812.65	284
2813.52	270
2814.38	268
2815.25	268
2816.11	284
2816.98	268
2817.84	274
2818.7	260
2819.56	288
2820.43	274
2821.29	260
2822.16	258
2823.02	282
2823.88	276
2824.74	264
2825.61	262
2826.47	230
2827.33	274
2828.19	252
2829.05	276
2829.92	248
2830.78	236
2831.64	264
2832.5	254
2833.36	252
2834.23	262
2835.09	270
2835.95	244
2836.81	246
2837.67	260
2838.53	230
2839.39	242
2840.25	252
2841.11	238
2841.97	230
2842.83	226
2843.69	230
2844.55	250
2845.41	236
2846.27	268
2847.13	240
2847.99	236
2848.85	232
2849.71	252
2850.57	234
2851.43	218
2852.28	222
2853.14	236
2854	224
2854.86	244
2855.72	234
2856.58	226
2857.43	244
2858.29	240
2859.15	224
2860.01	236
2860.86	234
2861.72	224
2862.58	224
2863.44	220
2864.29	230
2865.15	226
2866.01	228
2866.86	204
2867.72	228
2868.58	226
2869.43	232
2870.29	220
2871.14	236
2872	220
2872.86	212
2873.71	209
2874.57	206
2875.42	208
2876.28	210
2877.13	206
2877.99	218
2878.84	200
2879.7	200
2880.55	214
2881.41	222
2882.26	208
2883.11	208
2883.97	206
2884.82	208
2885.68	224
2886.53	222
2887.39	208
2888.24	208
2889.09	198
2889.94	204
2890.8	210
2891.65	228
2892.5	204
2893.36	194
2894.21	214
2895.06	202
2895.91	222
2896.77	214
2897.62	184
2898.47	184
2899.32	186
2900.17	210
2901.03	198
2901.88	198
2902.73	182
2903.58	214
2904.43	202
2905.28	204
2906.13	198
2906.98	180
2907.84	200
2908.69	212
2909.54	192
2910.39	206
2911.24	190
2912.09	204
2912.94	190
2913.79	188
2914.64	214
2915.49	192
2916.34	192
2917.19	186
2918.03	198
2918.88	196
2919.73	204
2920.58	184
2921.43	190
2922.28	206
2923.13	184
2923.98	178
2924.82	184
2925.67	204
2926.52	208
2927.37	206
2928.22	176
2929.06	182
2929.91	184
2930.76	172
2931.61	180
2932.45	176
2933.3	166
2934.15	180
2934.99	192
2935.84	176
2936.69	188
2937.53	168
2938.38	182
2939.23	158
2940.07	178
2940.92	182
2941.76	182
2942.61	180
2943.46	180
2944.3	186
2945.15	190
2945.99	172
2946.84	194
2947.68	168
2948.53	164
2949.37	168
2950.22	180
2951.06	170
2951.9	166
2952.75	162
2953.59	178
2954.44	184
2955.28	170
2956.12	160
2956.97	164
2957.81	182
2958.65	178
2959.5	174
2960.34	168
2961.18	182
2962.03	174
2962.87	174
2963.71	176
2964.56	142
2965.4	162
2966.24	158
2967.08	160
2967.92	158
2968.77	182
2969.61	168
2970.45	160
2971.29	166
2972.13	156
2972.97	162
2973.82	164
2974.66	152
2975.5	162
2976.34	142
2977.18	164
2978.02	154
2978.86	156
2979.7	160
2980.54	170
2981.38	176
2982.22	164
2983.06	172
2983.9	156
2984.74	174
2985.58	162
2986.42	170
2987.26	166
2988.1	150
2988.94	170
2989.78	148
2990.61	160
2991.45	164
2992.29	172
2993.13	160
2993.97	160
2994.81	170
2995.64	160
2996.48	142
2997.32	156
2998.16	142
2999	162
2999.83	160
