#Acq. time (s)=	10
#Accumulations=	1
#Range (cm-¹)=	200...3000
#Windows=	3
#Autofocus=	Off
#AutoExposure=	Off
#Spike filter=	Off
#Delay time (s)=	0
#Binning=	1
#Readout mode=	Signal
#DeNoise=	Off
#ICS correction=	Off
#Dark correction=	Off
#Inst. Process=	Off
#Instrument=	LabRAM HR Evol
#Detector=	Syncerity OE
#Objective=	x100_VIS
#Grating=	600 (500nm)
#ND Filter=	1%
#Laser=	633nm_Edge
#Hole=	30.0125
#Range=	Visible
#Project=	Omar
#Sample=	03-07-23
#Site=	fings
#Title=	inside_pr
#Remark=	
#Date=	03.07.2023 15:00
#Acquired=	03.07.2023 15:00:37
201.713	64
202.98	70
204.247	72
205.513	70
206.778	76
208.045	72
209.311	70
210.576	72
211.84	66
213.106	74
214.371	74
215.636	66
216.899	70
218.164	72
219.428	82
220.692	78
221.955	78
223.219	80
224.482	68
225.744	82
227.007	80
228.27	74
229.531	74
230.794	80
232.055	76
233.317	76
234.579	80
235.839	78
237.1	68
238.362	76
239.621	70
240.882	64
242.141	72
243.402	86
244.661	72
245.921	94
247.179	82
248.439	80
249.698	84
250.956	92
252.215	74
253.473	76
254.731	76
255.988	88
257.246	78
258.503	80
259.761	78
261.017	78
262.273	88
263.53	84
264.786	82
266.042	86
267.298	88
268.554	82
269.809	88
271.063	94
272.319	94
273.573	88
274.828	96
276.082	80
277.336	78
278.591	96
279.844	86
281.097	78
282.351	102
283.603	96
284.855	94
286.109	96
287.361	100
288.613	100
289.866	88
291.117	98
292.368	90
293.62	94
294.871	106
296.121	102
297.372	106
298.623	108
299.873	104
301.123	88
302.372	88
303.622	114
304.872	108
306.121	102
307.37	106
308.618	102
309.866	104
311.116	106
312.364	102
313.611	98
314.859	106
316.106	106
317.353	102
318.6	102
319.848	110
321.095	110
322.341	104
323.587	108
324.833	108
326.079	98
327.324	116
328.569	104
329.814	116
331.059	98
332.304	100
333.548	116
334.792	124
336.037	114
337.28	130
338.524	128
339.767	116
341.011	122
342.254	130
343.497	108
344.739	120
345.982	124
347.224	112
348.466	122
349.708	124
350.95	128
352.191	116
353.432	130
354.673	120
355.914	136
357.155	142
358.394	138
359.634	138
360.874	132
362.114	128
363.354	136
364.593	124
365.832	130
367.07	138
368.309	126
369.548	124
370.786	134
372.024	130
373.261	138
374.499	126
375.736	136
376.974	150
378.211	128
379.447	136
380.684	136
381.92	138
383.157	148
384.392	144
385.628	132
386.864	144
388.098	132
389.333	144
390.569	152
391.802	136
393.037	142
394.272	132
395.505	154
396.739	156
397.973	142
399.206	146
400.44	140
401.673	154
402.905	146
404.138	142
405.37	160
406.602	168
407.835	158
409.066	166
410.298	172
411.528	158
412.76	184
413.99	170
415.221	160
416.451	170
417.682	176
418.911	166
420.142	170
421.371	170
422.601	168
423.83	174
425.059	160
426.288	168
427.517	174
428.745	166
429.974	170
431.201	176
432.43	182
433.657	176
434.883	200
436.111	172
437.338	186
438.565	182
439.791	174
441.017	178
442.244	166
443.469	176
444.695	176
445.921	194
447.146	184
448.37	188
449.596	176
450.821	178
452.045	184
453.27	188
454.493	198
455.717	192
456.94	188
458.165	190
459.387	178
460.61	192
461.833	192
463.056	194
464.278	188
465.5	216
466.722	202
467.945	204
469.166	204
470.387	200
471.608	208
472.829	198
474.049	200
475.271	214
476.491	214
477.711	214
478.931	202
480.15	226
481.37	186
482.589	218
483.808	202
485.027	216
486.247	230
487.465	216
488.683	214
489.901	236
491.119	216
492.337	220
493.554	222
494.771	228
495.988	220
497.205	216
498.422	216
499.638	218
500.854	248
502.07	224
503.286	230
504.502	228
505.717	228
506.933	250
508.148	228
509.363	234
510.577	238
511.792	242
513.005	232
514.219	232
515.433	238
516.647	244
517.86	248
519.073	240
520.287	268
521.5	242
522.711	242
523.924	250
525.136	236
526.348	244
527.56	262
528.772	246
529.982	256
531.194	260
532.405	262
533.616	246
534.825	250
536.036	254
537.246	280
538.457	266
539.665	256
540.875	254
542.085	268
543.294	258
544.502	254
545.712	266
546.92	260
548.128	268
549.336	260
550.545	288
551.751	282
552.959	268
554.167	274
555.373	286
556.581	286
557.788	290
558.994	300
560.2	280
561.406	278
562.612	286
563.817	278
565.023	286
566.229	292
567.433	286
568.639	302
569.843	302
571.048	306
572.251	288
573.456	306
574.659	316
575.863	296
577.066	306
578.27	316
579.472	300
580.676	314
581.878	300
583.081	300
584.283	326
585.484	304
586.687	312
587.888	320
589.09	338
590.291	298
591.493	322
592.693	326
593.893	330
595.094	330
596.294	324
597.494	354
598.694	312
599.894	320
601.093	330
602.293	326
603.491	340
604.69	362
605.889	334
607.087	372
608.285	350
609.483	360
610.682	372
611.879	376
613.076	346
614.273	350
615.471	384
616.667	358
617.864	370
619.06	370
620.256	384
621.453	374
622.648	352
623.844	360
625.039	372
626.234	392
627.429	372
628.625	392
629.819	392
631.013	396
632.208	390
633.401	382
634.595	414
635.789	400
636.982	406
638.175	414
639.369	426
640.562	432
641.755	400
642.947	410
644.139	422
645.331	430
646.523	412
647.715	444
648.906	422
650.097	466
651.288	404
652.479	410
653.67	410
654.86	442
656.051	448
657.241	440
658.429	450
659.619	434
660.808	434
661.998	456
663.187	450
664.376	456
665.565	456
666.753	460
667.942	450
669.13	458
670.317	470
671.505	478
672.692	488
673.88	470
675.067	462
676.254	456
677.44	480
678.627	474
679.813	492
681	504
682.184	530
683.37	500
684.556	486
685.742	496
686.926	500
688.111	508
689.296	540
690.481	520
691.664	514
692.849	498
694.033	526
695.216	540
696.4	524
697.584	544
698.766	514
699.949	542
701.133	526
702.314	526
703.497	564
704.678	562
705.861	552
707.043	578
708.224	568
709.406	594
710.586	564
711.768	568
712.949	542
714.129	606
715.31	580
716.489	598
717.67	580
718.849	590
720.029	568
721.208	598
722.388	594
723.566	636
724.746	636
725.924	628
727.103	628
728.28	630
729.458	606
730.636	626
731.814	648
732.992	648
734.168	634
735.345	676
736.523	656
737.699	664
738.876	682
740.052	660
741.227	672
742.404	684
743.579	698
744.754	698
745.931	676
747.105	702
748.28	672
749.455	682
750.629	694
751.803	692
752.977	660
754.152	698
755.325	750
756.499	726
757.672	754
758.846	718
760.018	758
761.191	732
762.363	756
763.535	754
764.708	760
765.88	744
767.052	722
768.223	742
769.394	764
770.565	750
771.737	784
772.908	790
774.078	808
775.249	796
776.419	784
777.589	794
778.758	820
779.928	810
781.097	780
782.266	782
783.435	790
784.604	856
785.773	830
786.941	832
788.11	824
789.278	818
790.446	844
791.613	826
792.781	848
793.948	858
795.115	884
796.282	864
797.449	862
798.616	904
799.782	898
800.948	902
802.115	914
803.28	918
804.446	888
805.612	890
806.777	928
807.941	902
809.106	880
810.271	950
811.435	944
812.6	958
813.764	970
814.927	974
816.091	978
817.254	968
818.418	996
819.581	1012
820.743	1020
821.906	982
823.069	1014
824.232	996
825.393	1012
826.555	994
827.717	1054
828.879	1054
830.039	1038
831.201	1054
832.362	1028
833.522	1080
834.683	1140
835.844	1064
837.003	1112
838.164	1074
839.324	1066
840.483	1080
841.643	1140
842.801	1152
843.961	1122
845.12	1176
846.278	1106
847.437	1146
848.594	1166
849.753	1196
850.91	1184
852.069	1176
853.227	1228
854.383	1170
855.541	1220
856.697	1222
857.855	1208
859.011	1226
860.168	1208
861.323	1226
862.48	1218
863.635	1280
864.79	1264
865.946	1272
867.101	1254
868.257	1266
869.411	1306
870.567	1300
871.721	1294
872.874	1316
874.029	1328
875.183	1284
876.336	1326
877.49	1344
878.643	1374
879.796	1348
880.95	1322
882.102	1350
883.254	1368
884.407	1412
885.559	1396
886.711	1372
887.862	1378
889.015	1394
890.166	1392
891.317	1430
892.467	1434
893.619	1432
894.77	1440
895.92	1440
897.07	1436
898.221	1444
899.371	1516
900.52	1496
901.669	1458
902.819	1470
903.968	1460
905.116	1494
906.266	1564
907.415	1532
908.563	1514
909.711	1576
910.859	1538
912.007	1576
913.154	1582
914.301	1564
915.449	1596
916.596	1614
917.742	1558
918.889	1588
920.036	1614
921.183	1642
922.329	1674
923.475	1624
924.621	1640
925.765	1690
926.911	1662
928.056	1648
929.201	1682
930.346	1734
931.49	1762
932.635	1772
933.779	1716
934.924	1742
936.068	1794
937.211	1766
938.355	1776
939.498	1704
940.64	1770
941.784	1780
942.926	1818
944.069	1814
945.212	1794
946.354	1814
947.495	1840
948.637	1840
949.779	1906
950.921	1886
952.062	1884
953.202	1926
954.344	1886
955.484	1954
956.625	1922
957.765	1924
958.905	1934
960.045	1942
961.184	1938
962.324	1950
963.464	2020
964.604	2040
965.742	1996
966.881	2052
968.02	2114
969.158	2084
970.296	2088
971.434	2094
972.572	2082
973.71	2066
974.847	2056
975.985	2118
977.121	2074
978.259	2132
979.396	2112
980.532	2158
981.669	2168
982.804	2148
983.941	2222
985.076	2244
986.212	2262
987.347	2222
988.483	2266
989.617	2186
990.753	2222
991.887	2280
993.022	2306
994.156	2290
995.29	2320
996.424	2376
997.558	2324
998.692	2414
999.825	2372
1000.96	2388
1002.09	2412
1003.22	2370
1004.36	2438
1005.49	2422
1006.62	2458
1007.75	2398
1008.89	2404
1010.02	2420
1011.15	2504
1012.28	2476
1013.41	2504
1014.54	2474
1015.67	2536
1016.8	2570
1017.93	2506
1019.07	2582
1020.19	2564
1021.32	2570
1022.45	2628
1023.58	2614
1024.71	2632
1025.84	2628
1026.97	2698
1028.1	2712
1029.23	2678
1030.36	2742
1031.49	2768
1032.61	2712
1033.74	2768
1034.87	2772
1036	2876
1037.12	2818
1038.25	2832
1039.38	2832
1040.5	2920
1041.63	2886
1042.76	2970
1043.88	2854
1045.01	2936
1046.14	2926
1047.26	3032
1048.39	2914
1049.51	2930
1050.64	2916
1051.76	3034
1052.89	2982
1054.01	2940
1055.14	3044
1056.26	3076
1057.38	3026
1058.51	3086
1059.63	3080
1060.75	3072
1061.88	3109
1063	3146
1064.12	3216
1065.25	3208
1066.37	3108
1067.49	3164
1068.61	3168
1069.73	3266
1070.86	3164
1071.98	3262
1073.1	3322
1074.22	3234
1075.34	3298
1076.46	3278
1077.58	3300
1078.7	3356
1079.82	3268
1080.94	3262
1082.06	3388
1083.18	3300
1084.3	3390
1085.42	3384
1086.54	3400
1087.66	3348
1088.78	3442
1089.9	3326
1091.02	3502
1092.14	3454
1093.25	3428
1094.37	3472
1095.49	3402
1096.61	3476
1097.72	3522
1098.84	3452
1099.96	3480
1101.08	3522
1102.19	3516
1103.31	3478
1104.43	3514
1105.54	3578
1106.66	3582
1107.77	3642
1108.89	3558
1110	3560
1111.12	3632
1112.23	3666
1113.35	3650
1114.46	3692
1115.58	3600
1116.69	3654
1117.81	3734
1118.92	3712
1120.03	3778
1121.15	3682
1122.26	3776
1123.37	3746
1124.49	3784
1125.6	3744
1126.71	3744
1127.83	3774
1128.94	3830
1130.05	3832
1131.16	3758
1132.27	3766
1133.39	3850
1134.5	3872
1135.61	3886
1136.72	3926
1137.83	3920
1138.94	3876
1140.05	3916
1141.16	3878
1142.27	3942
1143.38	3926
1144.49	3950
1145.6	3950
1146.71	3986
1147.82	3948
1148.93	3948
1150.04	3954
1151.15	3940
1152.26	4000
1153.36	3954
1154.47	4086
1155.58	3976
1156.69	4074
1157.8	4130
1158.9	4122
1160.01	4040
1161.12	4040
1162.22	4098
1163.33	4110
1164.44	4102
1165.54	4074
1166.65	4054
1167.76	4128
1168.86	4084
1169.97	4158
1171.07	4088
1172.18	4126
1173.28	4188
1174.39	4142
1175.49	4046
1176.6	4128
1177.7	4124
1178.81	4202
1179.91	4028
1181.02	4154
1182.12	4160
1183.22	4146
1184.33	4052
1185.43	4180
1186.53	4086
1187.63	4124
1188.74	4096
1189.84	4200
1190.94	4018
1192.04	4078
1193.15	4074
1194.25	4124
1195.35	4124
1196.45	4118
1197.55	4070
1198.65	4102
1199.75	4108
1200.85	4032
1201.95	4032
1203.05	4016
1204.16	4094
1205.25	4006
1206.35	4008
1207.45	4032
1208.55	4018
1209.65	4030
1210.75	4004
1211.85	4002
1212.95	4068
1214.05	3998
1215.15	3988
1216.24	3906
1217.34	3998
1218.44	3918
1219.54	3986
1220.64	3972
1221.73	3940
1222.83	3816
1223.93	3878
1225.02	3880
1226.12	3912
1227.22	3852
1228.31	3856
1229.41	3856
1230.5	3852
1231.6	3772
1232.7	3888
1233.79	3800
1234.89	3794
1235.98	3876
1237.08	3786
1238.17	3848
1239.26	3794
1240.36	3768
1241.45	3748
1242.55	3736
1243.64	3794
1244.73	3722
1245.83	3782
1246.92	3706
1248.01	3808
1249.11	3730
1250.2	3720
1251.29	3688
1252.38	3670
1253.48	3708
1254.57	3750
1255.66	3658
1256.75	3618
1257.84	3626
1258.93	3608
1260.03	3580
1261.12	3560
1262.21	3590
1263.3	3550
1264.39	3540
1265.48	3590
1266.57	3568
1267.66	3544
1268.75	3544
1269.84	3646
1270.93	3504
1272.02	3512
1273.11	3478
1274.19	3442
1275.28	3530
1276.37	3466
1277.46	3416
1278.55	3442
1279.64	3396
1280.72	3426
1281.81	3386
1282.9	3362
1283.98	3339.67
1285.07	3346.81
1286.16	3355.11
1287.25	3401.07
1288.33	3325.65
1289.42	3277.6
1290.5	3309.48
1291.59	3252.44
1292.68	3238.45
1293.76	3280.54
1294.85	3216.3
1295.93	3300.99
1297.02	3178.87
1298.1	3184.06
1299.19	3219.93
1300.27	3165.65
1301.36	3228.01
1302.44	3137.28
1303.53	3106.54
1304.61	3067.35
1305.69	3100.34
1306.78	3084.14
1307.86	3085.07
1308.94	3098.84
1310.03	3013.46
1311.11	3011.97
1312.19	2977.16
1313.27	2989.94
1314.36	2956.02
1315.44	2947.4
1316.52	2963.56
1317.6	2943.7
1318.68	2955.88
1319.77	2896.42
1320.85	2901.5
1321.93	2861.22
1323.01	2864.32
1324.09	2855.37
1325.17	2875.44
1326.25	2818.79
1327.33	2825.29
1328.41	2792.92
1329.49	2800.45
1330.57	2788.7
1331.65	2772.11
1332.73	2757.13
1333.81	2712.93
1334.89	2732.7
1335.97	2727.76
1337.04	2675.53
1338.12	2665.11
1339.2	2658.68
1340.28	2661.62
1341.36	2678.65
1342.44	2670.01
1343.51	2632.15
1344.59	2582.47
1345.67	2555.18
1346.75	2582.6
1347.82	2526.66
1348.9	2527.44
1349.98	2535.03
1351.05	2566.17
1352.13	2506.31
1353.2	2535.08
1354.28	2498.16
1355.36	2505.95
1356.43	2470.39
1357.51	2445.48
1358.58	2445.21
1359.66	2422.69
1360.73	2425.01
1361.81	2422.08
1362.88	2449.19
1363.96	2397.6
1365.03	2396.18
1366.1	2416.25
1367.18	2375.75
1368.25	2347.28
1369.33	2326.02
1370.4	2346.67
1371.47	2356.25
1372.54	2278.35
1373.62	2297.81
1374.69	2332.23
1375.76	2280.72
1376.83	2276.06
1377.91	2266.72
1378.98	2254.08
1380.05	2316.79
1381.12	2235.51
1382.19	2233.55
1383.26	2195.43
1384.34	2183.76
1385.41	2165.4
1386.48	2184.23
1387.55	2196.35
1388.62	2160.43
1389.69	2175.29
1390.76	2125.81
1391.83	2110.03
1392.9	2152.3
1393.02	2158
1394.1	2090
1395.17	2136
1396.25	2124
1397.32	2160
1398.4	2130
1399.47	2076
1400.55	2070
1401.62	2052
1402.69	2072
1403.77	2090
1404.84	2036
1405.91	2030
1406.99	1998
1408.06	2056
1409.13	2018
1410.2	2026
1411.27	1988
1412.35	1942
1413.42	2010
1414.49	2014
1415.56	1918
1416.63	1984
1417.7	2006
1418.78	1946
1419.85	1958
1420.92	1892
1421.99	2004
1423.06	1980
1424.13	1910
1425.2	1892
1426.27	1904
1427.34	1858
1428.41	1926
1429.48	1848
1430.55	1898
1431.61	1834
1432.68	1876
1433.75	1878
1434.82	1832
1435.89	1850
1436.96	1872
1438.02	1806
1439.09	1822
1440.16	1798
1441.23	1804
1442.3	1812
1443.36	1770
1444.43	1822
1445.5	1790
1446.56	1786
1447.63	1716
1448.7	1718
1449.76	1760
1450.83	1812
1451.89	1778
1452.96	1744
1454.02	1756
1455.09	1778
1456.15	1766
1457.22	1756
1458.28	1714
1459.35	1724
1460.41	1694
1461.48	1686
1462.54	1712
1463.61	1700
1464.67	1714
1465.73	1684
1466.8	1676
1467.86	1670
1468.92	1646
1469.98	1706
1471.05	1684
1472.11	1694
1473.17	1672
1474.24	1640
1475.3	1698
1476.36	1674
1477.42	1648
1478.48	1628
1479.54	1628
1480.6	1618
1481.67	1626
1482.73	1612
1483.79	1622
1484.85	1598
1485.91	1572
1486.97	1652
1488.03	1556
1489.09	1600
1490.15	1616
1491.21	1518
1492.27	1600
1493.33	1552
1494.38	1564
1495.44	1572
1496.5	1584
1497.56	1572
1498.62	1540
1499.68	1540
1500.74	1566
1501.79	1572
1502.85	1560
1503.91	1494
1504.97	1520
1506.02	1538
1507.08	1460
1508.14	1484
1509.2	1542
1510.25	1478
1511.31	1526
1512.36	1508
1513.42	1490
1514.48	1498
1515.53	1462
1516.59	1534
1517.64	1452
1518.7	1486
1519.75	1446
1520.81	1480
1521.86	1456
1522.92	1440
1523.97	1448
1525.02	1446
1526.08	1390
1527.13	1396
1528.19	1412
1529.24	1408
1530.29	1390
1531.35	1384
1532.4	1414
1533.45	1418
1534.51	1392
1535.56	1390
1536.61	1400
1537.66	1380
1538.72	1396
1539.77	1348
1540.82	1362
1541.87	1366
1542.92	1382
1543.97	1344
1545.02	1390
1546.08	1372
1547.13	1312
1548.18	1372
1549.23	1328
1550.28	1372
1551.33	1316
1552.38	1322
1553.43	1334
1554.48	1346
1555.53	1318
1556.57	1378
1557.62	1270
1558.67	1296
1559.72	1326
1560.77	1328
1561.82	1306
1562.87	1316
1563.92	1298
1564.96	1292
1566.01	1282
1567.06	1260
1568.11	1282
1569.15	1304
1570.2	1298
1571.25	1260
1572.29	1286
1573.34	1296
1574.39	1262
1575.43	1334
1576.48	1240
1577.53	1258
1578.57	1240
1579.62	1222
1580.66	1232
1581.71	1234
1582.75	1260
1583.8	1240
1584.84	1236
1585.89	1198
1586.93	1216
1587.98	1244
1589.02	1208
1590.06	1250
1591.11	1216
1592.15	1254
1593.2	1200
1594.24	1256
1595.28	1198
1596.33	1212
1597.37	1218
1598.41	1228
1599.45	1188
1600.5	1218
1601.54	1192
1602.58	1152
1603.62	1234
1604.66	1184
1605.7	1172
1606.75	1188
1607.79	1178
1608.83	1216
1609.87	1162
1610.91	1158
1611.95	1208
1612.99	1208
1614.03	1234
1615.07	1160
1616.11	1190
1617.15	1214
1618.19	1172
1619.23	1148
1620.27	1164
1621.31	1168
1622.35	1164
1623.39	1134
1624.43	1174
1625.46	1156
1626.5	1192
1627.54	1186
1628.58	1158
1629.62	1124
1630.65	1162
1631.69	1134
1632.73	1138
1633.77	1162
1634.8	1124
1635.84	1164
1636.88	1170
1637.91	1160
1638.95	1170
1639.99	1142
1641.02	1112
1642.06	1132
1643.09	1102
1644.13	1116
1645.16	1094
1646.2	1150
1647.23	1138
1648.27	1104
1649.3	1116
1650.34	1142
1651.37	1170
1652.41	1098
1653.44	1120
1654.47	1080
1655.51	1150
1656.54	1118
1657.57	1126
1658.61	1092
1659.64	1122
1660.67	1078
1661.71	1084
1662.74	1138
1663.77	1082
1664.81	1058
1665.84	1098
1666.87	1090
1667.9	1110
1668.93	1094
1669.96	1082
1671	1100
1672.03	1096
1673.06	1078
1674.09	1034
1675.12	1076
1676.15	1054
1677.18	1048
1678.21	1066
1679.24	1116
1680.27	1016
1681.3	1066
1682.33	1058
1683.36	1080
1684.39	1064
1685.42	1094
1686.45	1080
1687.47	1048
1688.5	1024
1689.53	1072
1690.56	1058
1691.59	1014
1692.62	1054
1693.64	1080
1694.67	1050
1695.7	1056
1696.73	1032
1697.75	1040
1698.78	1036
1699.81	1016
1700.83	1078
1701.86	1032
1702.89	1026
1703.91	1014
1704.94	1050
1705.97	1054
1706.99	1044
1708.02	1020
1709.04	1030
1710.07	1006
1711.09	1034
1712.12	1018
1713.14	984
1714.17	992
1715.19	1040
1716.22	1036
1717.24	1020
1718.26	990
1719.29	1024
1720.31	1012
1721.33	1016
1722.36	1002
1723.38	1022
1724.4	1030
1725.43	980
1726.45	968
1727.47	966
1728.49	1002
1729.52	986
1730.54	1004
1731.56	1010
1732.58	994
1733.6	988
1734.63	982
1735.65	1016
1736.67	1018
1737.69	970
1738.71	994
1739.73	990
1740.75	1028
1741.77	990
1742.79	978
1743.81	1024
1744.83	1016
1745.85	1034
1746.87	1022
1747.89	988
1748.91	994
1749.93	996
1750.95	1020
1751.97	1018
1752.98	1020
1754	962
1755.02	1010
1756.04	1000
1757.06	986
1758.07	1020
1759.09	1012
1760.11	978
1761.13	976
1762.14	980
1763.16	996
1764.18	984
1765.19	990
1766.21	968
1767.23	1018
1768.24	980
1769.26	972
1770.28	986
1771.29	1026
1772.31	1014
1773.32	964
1774.34	944
1775.35	1000
1776.37	924
1777.38	964
1778.4	1000
1779.41	974
1780.43	996
1781.44	954
1782.45	920
1783.47	978
1784.48	938
1785.49	952
1786.51	964
1787.52	990
1788.53	1000
1789.55	966
1790.56	982
1791.57	958
1792.58	982
1793.6	986
1794.61	980
1795.62	952
1796.63	986
1797.64	972
1798.66	972
1799.67	1002
1800.68	1002
1801.69	962
1802.7	998
1803.71	954
1804.72	984
1805.73	958
1806.74	974
1807.75	978
1808.76	972
1809.77	954
1810.78	942
1811.79	958
1812.8	998
1813.81	940
1814.82	978
1815.83	948
1816.84	982
1817.84	938
1818.85	926
1819.86	984
1820.87	938
1821.88	972
1822.88	980
1823.89	928
1824.9	934
1825.91	974
1826.91	960
1827.92	946
1828.93	914
1829.93	972
1830.94	940
1831.95	968
1832.95	930
1833.96	960
1834.97	934
1835.97	926
1836.98	948
1837.98	944
1838.99	934
1839.99	944
1841	940
1842	950
1843.01	920
1844.01	936
1845.02	940
1846.02	908
1847.02	908
1848.03	952
1849.03	948
1850.03	928
1851.04	918
1852.04	934
1853.04	958
1854.05	956
1855.05	952
1856.05	906
1857.05	942
1858.06	934
1859.06	948
1860.06	908
1861.06	958
1862.06	978
1863.07	940
1864.07	968
1865.07	906
1866.07	912
1867.07	940
1868.07	928
1869.07	938
1870.07	932
1871.07	944
1872.07	932
1873.07	906
1874.07	904
1875.07	978
1876.07	926
1877.07	920
1878.07	948
1879.07	910
1880.07	962
1881.07	918
1882.07	938
1883.06	928
1884.06	932
1885.06	926
1886.06	938
1887.06	944
1888.05	910
1889.05	896
1890.05	938
1891.05	922
1892.04	920
1893.04	886
1894.04	942
1895.03	924
1896.03	916
1897.03	896
1898.02	936
1899.02	930
1900.01	916
1901.01	896
1902	886
1903	922
1903.99	926
1904.99	918
1905.98	918
1906.98	898
1907.97	946
1908.97	928
1909.96	908
1910.96	922
1911.95	954
1912.94	902
1913.94	926
1914.93	916
1915.93	936
1916.92	918
1917.91	916
1918.9	912
1919.9	932
1920.89	928
1921.88	902
1922.87	924
1923.87	936
1924.86	938
1925.85	896
1926.84	932
1927.83	930
1928.82	912
1929.82	918
1930.81	910
1931.8	938
1932.79	898
1933.78	920
1934.77	886
1935.76	908
1936.75	894
1937.74	924
1938.73	918
1939.72	868
1940.71	880
1941.7	912
1942.69	878
1943.68	928
1944.67	886
1945.65	912
1946.64	858
1947.63	890
1948.62	908
1949.61	972
1950.6	958
1951.58	910
1952.57	922
1953.56	880
1954.55	920
1955.53	926
1956.52	924
1957.51	916
1958.5	880
1959.48	916
1960.47	906
1961.45	936
1962.44	918
1963.43	868
1964.41	880
1965.4	878
1966.38	894
1967.37	892
1968.35	894
1969.34	870
1970.32	952
1971.31	858
1972.29	862
1973.28	876
1974.26	922
1975.25	864
1976.23	884
1977.22	900
1978.2	868
1979.18	860
1980.17	894
1981.15	890
1982.13	898
1983.12	884
1984.1	882
1985.08	848
1986.06	862
1987.05	876
1988.03	888
1989.01	890
1989.99	874
1990.97	862
1991.96	870
1992.94	836
1993.92	876
1994.9	856
1995.88	874
1996.86	862
1997.84	908
1998.82	882
1999.8	896
2000.78	876
2001.76	884
2002.74	912
2003.72	890
2004.7	888
2005.68	892
2006.66	876
2007.64	920
2008.62	888
2009.6	876
2010.58	888
2011.56	898
2012.54	864
2013.51	882
2014.49	882
2015.47	854
2016.45	878
2017.43	916
2018.4	830
2019.38	874
2020.36	890
2021.34	906
2022.31	866
2023.29	860
2024.27	888
2025.24	892
2026.22	884
2027.2	898
2028.17	877
2029.15	856
2030.12	874
2031.1	918
2032.07	890
2033.05	868
2034.03	904
2035	878
2035.98	886
2036.95	858
2037.93	864
2038.9	840
2039.87	892
2040.85	864
2041.82	872
2042.8	860
2043.77	870
2044.74	872
2045.72	880
2046.69	860
2047.66	890
2048.64	918
2049.61	882
2050.58	880
2051.55	896
2052.53	886
2053.5	906
2054.47	878
2055.44	874
2056.41	876
2057.39	868
2058.36	874
2059.33	862
2060.3	880
2061.27	878
2062.24	858
2063.21	830
2064.18	862
2065.15	858
2066.12	874
2067.09	866
2068.06	856
2069.03	880
2070	854
2070.97	852
2071.94	894
2072.91	876
2073.88	880
2074.85	870
2075.82	882
2076.79	882
2077.76	862
2078.73	838
2079.69	864
2080.66	870
2081.63	862
2082.6	854
2083.56	862
2084.53	820
2085.5	846
2086.47	866
2087.43	912
2088.4	866
2089.37	834
2090.33	884
2091.3	848
2092.27	832
2093.23	864
2094.2	868
2095.17	898
2096.13	860
2097.1	856
2098.06	860
2099.03	864
2099.99	876
2100.96	836
2101.92	892
2102.89	858
2103.85	880
2104.82	864
2105.78	844
2106.74	872
2107.71	874
2108.67	840
2109.64	884
2110.6	826
2111.56	894
2112.53	852
2113.49	842
2114.45	884
2115.41	856
2116.38	870
2117.34	864
2118.3	854
2119.26	854
2120.23	842
2121.19	858
2122.15	876
2123.11	866
2124.07	870
2125.03	822
2126	898
2126.96	870
2127.92	894
2128.88	860
2129.84	846
2130.8	850
2131.76	836
2132.72	854
2133.68	822
2134.64	848
2135.6	872
2136.56	878
2137.52	862
2138.48	884
2139.44	844
2140.4	892
2141.35	844
2142.31	854
2143.27	872
2144.23	832
2145.19	862
2146.15	860
2147.1	846
2148.06	828
2149.02	840
2149.98	814
2150.94	834
2151.89	874
2152.85	864
2153.81	838
2154.76	864
2155.72	834
2156.68	868
2157.63	866
2158.59	838
2159.55	828
2160.5	856
2161.46	818
2162.41	856
2163.37	828
2164.32	846
2165.28	838
2166.23	844
2167.19	820
2168.14	818
2169.1	854
2170.05	846
2171.01	830
2171.96	816
2172.91	832
2173.87	812
2174.82	816
2175.78	858
2176.73	808
2177.68	824
2178.64	830
2179.59	820
2180.54	828
2181.49	832
2182.45	828
2183.4	814
2184.35	818
2185.3	840
2186.26	838
2187.21	824
2188.16	842
2189.11	804
2190.06	834
2191.01	828
2191.96	814
2192.92	824
2193.87	810
2194.82	820
2195.77	836
2196.72	834
2197.67	856
2198.62	840
2199.57	852
2200.52	808
2201.47	820
2202.42	814
2203.37	796
2204.32	820
2205.27	820
2206.22	804
2207.16	788
2208.11	824
2209.06	820
2210.01	808
2210.96	786
2211.91	802
2212.85	778
2213.8	796
2214.75	800
2215.7	826
2216.64	836
2217.59	810
2218.54	832
2219.49	794
2220.43	834
2221.38	812
2222.33	798
2223.27	802.001
2224.22	803.552
2225.16	826.707
2226.11	824.469
2227.06	799.45
2228	827.367
2228.95	834.634
2229.89	795.86
2230.84	816.476
2231.78	874.558
2232.73	1089.47
2233.67	1227.65
2234.62	1655
2235.56	1633.45
2236.51	852.972
2237.45	805.844
2238.4	818.058
2239.34	798.48
2240.28	802.316
2241.23	784.148
2242.17	832.465
2243.11	802.947
2244.06	798.963
2245	817.859
2245.94	809.395
2246.89	816.525
2247.83	808.269
2248.77	806.413
2249.71	788.232
2250.66	827.84
2251.6	800.417
2252.54	808.224
2253.48	813.146
2254.42	807.522
2255.37	817.678
2256.31	780.652
2257.25	811.216
2258.19	828.725
2259.13	813.642
2260.07	809.174
2261.01	801.551
2261.95	777.913
2262.89	763.835
2263.83	809.21
2264.77	772.711
2265.71	800.752
2266.65	808.933
2267.59	792.716
2268.53	783.629
2269.47	813.27
2270.41	798.985
2271.35	780.595
2272.29	795.52
2273.23	786.347
2274.17	787.207
2275.1	770.246
2276.04	793.809
2276.98	776.485
2277.92	788.154
2278.86	793.64
2279.8	777.169
2280.73	786.466
2281.67	805.169
2282.61	800.933
2283.55	790.334
2284.48	795.07
2285.42	784.999
2286.36	792.025
2287.29	794.609
2288.23	783.035
2289.17	783.455
2290.1	788.52
2291.04	788.851
2291.98	785.776
2292.91	765.806
2293.85	790.123
2294.78	771.397
2295.72	783.177
2296.65	789.462
2297.59	788.77
2298.52	796.65
2299.46	783.555
2300.39	763.048
2301.33	775.126
2302.26	759.436
2303.2	756.323
2304.13	763.234
2305.06	751.789
2306	751.928
2306.93	767.756
2307.87	769.04
2308.8	763.35
2309.73	761.655
2310.67	763.59
2311.6	767.024
2312.53	760.24
2313.46	758.3
2314.4	776.42
2315.33	754.809
2316.26	742.495
2316.69	754
2317.62	766
2318.56	754
2319.5	752
2320.43	762
2321.37	732
2322.31	752
2323.24	726
2324.18	768
2325.12	730
2326.05	740
2326.99	774
2327.92	744
2328.86	718
2329.79	728
2330.73	764
2331.66	742
2332.6	750
2333.53	760
2334.47	746
2335.4	738
2336.34	744
2337.27	736
2338.2	744
2339.14	742
2340.07	752
2341.01	760
2341.94	740
2342.87	740
2343.81	708
2344.74	718
2345.67	712
2346.6	732
2347.54	746
2348.47	754
2349.4	712
2350.33	714
2351.27	722
2352.2	706
2353.13	726
2354.06	754
2354.99	752
2355.93	704
2356.86	712
2357.79	736
2358.72	716
2359.65	724
2360.58	726
2361.51	732
2362.44	744
2363.37	694
2364.3	742
2365.23	716
2366.16	722
2367.09	744
2368.02	736
2368.95	710
2369.88	690
2370.81	716
2371.74	712
2372.67	694
2373.6	730
2374.52	734
2375.45	712
2376.38	698
2377.31	742
2378.24	706
2379.17	700
2380.09	676
2381.02	692
2381.95	690
2382.88	686
2383.8	714
2384.73	714
2385.66	682
2386.58	676
2387.51	688
2388.44	682
2389.36	704
2390.29	704
2391.22	666
2392.14	722
2393.07	676
2393.99	694
2394.92	674
2395.85	652
2396.77	664
2397.7	694
2398.62	704
2399.55	712
2400.47	708
2401.4	676
2402.32	646
2403.25	678
2404.17	664
2405.09	682
2406.02	684
2406.94	686
2407.86	666
2408.79	682
2409.71	686
2410.63	680
2411.56	636
2412.48	694
2413.4	686
2414.33	666
2415.25	684
2416.17	662
2417.09	650
2418.02	672
2418.94	650
2419.86	666
2420.78	636
2421.7	642
2422.63	662
2423.55	658
2424.47	662
2425.39	648
2426.31	636
2427.23	650
2428.15	652
2429.07	654
2429.99	646
2430.91	636
2431.83	662
2432.75	644
2433.67	646
2434.59	642
2435.51	622
2436.43	630
2437.35	644
2438.27	626
2439.19	650
2440.11	640
2441.03	640
2441.95	596
2442.86	624
2443.78	650
2444.7	664
2445.62	596
2446.54	612
2447.46	608
2448.37	620
2449.29	626
2450.21	614
2451.13	600
2452.04	626
2452.96	622
2453.88	592
2454.79	606
2455.71	618
2456.63	582
2457.54	596
2458.46	648
2459.38	616
2460.29	632
2461.21	616
2462.12	616
2463.04	604
2463.95	644
2464.87	600
2465.78	590
2466.7	624
2467.61	600
2468.53	642
2469.44	608
2470.36	580
2471.27	594
2472.19	588
2473.1	606
2474.01	594
2474.93	594
2475.84	600
2476.76	598
2477.67	590
2478.58	598
2479.5	610
2480.41	616
2481.32	570
2482.23	594
2483.15	592
2484.06	576
2484.97	576
2485.88	578
2486.8	544
2487.71	576
2488.62	582
2489.53	566
2490.44	552
2491.35	566
2492.26	594
2493.18	574
2494.09	590
2495	546
2495.91	546
2496.82	570
2497.73	566
2498.64	574
2499.55	556
2500.46	548
2501.37	530
2502.28	546
2503.19	560
2504.1	560
2505.01	584
2505.92	550
2506.83	538
2507.74	526
2508.65	574
2509.55	546
2510.46	530
2511.37	598
2512.28	530
2513.19	544
2514.09	548
2515	520
2515.91	518
2516.82	554
2517.73	538
2518.63	548
2519.54	502
2520.45	528
2521.35	546
2522.26	522
2523.17	530
2524.07	534
2524.98	522
2525.89	504
2526.79	530
2527.7	528
2528.6	546
2529.51	524
2530.42	508
2531.32	544
2532.23	544
2533.13	494
2534.04	522
2534.94	526
2535.85	486
2536.75	510
2537.66	536
2538.56	488
2539.47	518
2540.37	502
2541.27	502
2542.18	506
2543.08	498
2543.98	522
2544.89	500
2545.79	534
2546.7	488
2547.6	494
2548.5	516
2549.4	498
2550.31	498
2551.21	482
2552.11	504
2553.01	520
2553.92	486
2554.82	520
2555.72	504
2556.62	492
2557.52	468
2558.42	470
2559.33	480
2560.23	496
2561.13	482
2562.03	488
2562.93	496
2563.83	482
2564.73	462
2565.63	502
2566.53	482
2567.43	492
2568.33	486
2569.23	496
2570.13	478
2571.03	490
2571.93	472
2572.83	448
2573.73	484
2574.63	460
2575.53	484
2576.43	496
2577.33	490
2578.22	462
2579.12	446
2580.02	500
2580.92	470
2581.82	480
2582.72	462
2583.61	446
2584.51	450
2585.41	478
2586.31	448
2587.2	486
2588.1	482
2589	440
2589.89	464
2590.79	460
2591.69	458
2592.58	444
2593.48	428
2594.38	464
2595.27	446
2596.17	440
2597.06	442
2597.96	454
2598.86	464
2599.75	446
2600.65	428
2601.54	448
2602.44	460
2603.33	440
2604.23	458
2605.12	440
2606.02	416
2606.91	456
2607.81	442
2608.7	440
2609.59	432
2610.49	424
2611.38	430
2612.27	444
2613.17	424
2614.06	424
2614.95	438
2615.85	416
2616.74	424
2617.63	406
2618.53	448
2619.42	422
2620.31	438
2621.2	448
2622.1	400
2622.99	424
2623.88	404
2624.77	422
2625.66	402
2626.55	424
2627.45	436
2628.34	404
2629.23	408
2630.12	430
2631.01	382
2631.9	400
2632.79	410
2633.68	412
2634.57	392
2635.46	404
2636.35	380
2637.24	410
2638.13	388
2639.02	384
2639.91	384
2640.8	400
2641.69	396
2642.58	398
2643.47	416
2644.36	382
2645.25	404
2646.14	386
2647.02	402
2647.91	400
2648.8	374
2649.69	370
2650.58	406
2651.46	388
2652.35	392
2653.24	368
2654.13	358
2655.01	368
2655.9	400
2656.79	358
2657.68	388
2658.56	354
2659.45	414
2660.34	388
2661.22	396
2662.11	388
2662.99	368
2663.88	382
2664.77	354
2665.65	376
2666.54	364
2667.42	352
2668.31	382
2669.2	398
2670.08	394
2670.96	372
2671.85	362
2672.73	394
2673.62	382
2674.5	398
2675.39	360
2676.27	380
2677.16	366
2678.04	394
2678.93	350
2679.81	370
2680.69	366
2681.58	358
2682.46	400
2683.34	360
2684.23	364
2685.11	406
2685.99	378
2686.87	358
2687.76	350
2688.64	368
2689.52	368
2690.4	350
2691.28	342
2692.17	382
2693.05	378
2693.93	356
2694.81	358
2695.69	358
2696.57	350
2697.46	362
2698.34	354
2699.22	342
2700.1	374
2700.98	338
2701.86	342
2702.74	342
2703.62	334
2704.5	356
2705.38	348
2706.26	334
2707.14	358
2708.02	338
2708.9	326
2709.78	328
2710.66	328
2711.54	346
2712.42	340
2713.3	340
2714.17	328
2715.05	342
2715.93	330
2716.81	332
2717.69	346
2718.57	320
2719.44	324
2720.32	316
2721.2	308
2722.08	316
2722.95	306
2723.83	324
2724.71	296
2725.59	308
2726.46	312
2727.34	320
2728.22	332
2729.09	318
2729.97	318
2730.85	304
2731.72	316
2732.6	306
2733.47	328
2734.35	314
2735.23	310
2736.1	326
2736.98	300
2737.85	300
2738.73	290
2739.6	302
2740.48	308
2741.35	320
2742.23	304
2743.1	308
2743.98	298
2744.85	308
2745.72	284
2746.6	298
2747.47	298
2748.35	302
2749.22	314
2750.09	320
2750.97	328
2751.84	302
2752.71	292
2753.59	286
2754.46	300
2755.33	288
2756.2	278
2757.08	280
2757.95	306
2758.82	286
2759.69	282
2760.57	282
2761.44	302
2762.31	280
2763.18	280
2764.05	288
2764.92	296
2765.79	270
2766.67	292
2767.54	296
2768.41	268
2769.28	296
2770.15	278
2771.02	280
2771.89	284
2772.76	284
2773.63	284
2774.5	266
2775.37	292
2776.24	276
2777.11	264
2777.98	280
2778.85	256
2779.72	284
2780.59	266
2781.46	264
2782.32	262
2783.19	276
2784.06	278
2784.93	270
2785.8	270
2786.67	276
2787.53	254
2788.4	248
2789.27	264
2790.14	262
2791.01	260
2791.87	274
2792.74	256
2793.61	264
2794.47	270
2795.34	256
2796.21	260
2797.07	252
2797.94	260
2798.81	238
2799.67	258
2800.54	252
2801.41	236
2802.27	256
2803.14	260
2804	266
2804.87	224
2805.74	242
2806.6	254
2807.47	266
2808.33	254
2809.2	234
2810.06	266
2810.93	254
2811.79	254
2812.65	236
2813.52	242
2814.38	244
2815.25	232
2816.11	262
2816.98	248
2817.84	230
2818.7	252
2819.56	236
2820.43	224
2821.29	258
2822.16	252
2823.02	250
2823.88	230
2824.74	226
2825.61	240
2826.47	234
2827.33	238
2828.19	240
2829.05	234
2829.92	230
2830.78	222
2831.64	230
2832.5	244
2833.36	206
2834.23	220
2835.09	226
2835.95	228
2836.81	236
2837.67	212
2838.53	222
2839.39	218
2840.25	238
2841.11	226
2841.97	216
2842.83	230
2843.69	206
2844.55	236
2845.41	216
2846.27	218
2847.13	224
2847.99	236
2848.85	208
2849.71	220
2850.57	222
2851.43	192
2852.28	222
2853.14	210
2854	214
2854.86	214
2855.72	222
2856.58	208
2857.43	206
2858.29	188
2859.15	210
2860.01	222
2860.86	218
2861.72	194
2862.58	194
2863.44	202
2864.29	218
2865.15	184
2866.01	204
2866.86	224
2867.72	210
2868.58	208
2869.43	200
2870.29	204
2871.14	214
2872	218
2872.86	222
2873.71	215
2874.57	208
2875.42	200
2876.28	190
2877.13	200
2877.99	202
2878.84	200
2879.7	188
2880.55	188
2881.41	206
2882.26	190
2883.11	184
2883.97	188
2884.82	192
2885.68	190
2886.53	196
2887.39	198
2888.24	198
2889.09	188
2889.94	178
2890.8	206
2891.65	190
2892.5	192
2893.36	196
2894.21	212
2895.06	184
2895.91	190
2896.77	182
2897.62	196
2898.47	200
2899.32	196
2900.17	196
2901.03	186
2901.88	184
2902.73	182
2903.58	198
2904.43	184
2905.28	192
2906.13	178
2906.98	194
2907.84	182
2908.69	184
2909.54	186
2910.39	184
2911.24	174
2912.09	188
2912.94	180
2913.79	182
2914.64	190
2915.49	186
2916.34	164
2917.19	182
2918.03	182
2918.88	158
2919.73	172
2920.58	168
2921.43	188
2922.28	160
2923.13	180
2923.98	174
2924.82	172
2925.67	170
2926.52	162
2927.37	178
2928.22	170
2929.06	186
2929.91	170
2930.76	182
2931.61	158
2932.45	196
2933.3	174
2934.15	164
2934.99	170
2935.84	158
2936.69	164
2937.53	182
2938.38	162
2939.23	180
2940.07	164
2940.92	166
2941.76	176
2942.61	174
2943.46	162
2944.3	172
2945.15	162
2945.99	180
2946.84	154
2947.68	166
2948.53	182
2949.37	168
2950.22	170
2951.06	174
2951.9	168
2952.75	170
2953.59	168
2954.44	158
2955.28	182
2956.12	156
2956.97	154
2957.81	162
2958.65	170
2959.5	182
2960.34	174
2961.18	174
2962.03	164
2962.87	162
2963.71	154
2964.56	144
2965.4	162
2966.24	146
2967.08	162
2967.92	164
2968.77	160
2969.61	156
2970.45	164
2971.29	160
2972.13	148
2972.97	152
2973.82	144
2974.66	158
2975.5	162
2976.34	150
2977.18	140
2978.02	146
2978.86	142
2979.7	142
2980.54	162
2981.38	154
2982.22	150
2983.06	158
2983.9	146
2984.74	156
2985.58	158
2986.42	150
2987.26	146
2988.1	150
2988.94	142
2989.78	146
2990.61	152
2991.45	146
2992.29	142
2993.13	142
2993.97	148
2994.81	152
2995.64	154
2996.48	140
2997.32	152
2998.16	154
2999	150
2999.83	152
