#Acq. time (s)=	10
#Accumulations=	1
#Range (cm-¹)=	200...3000
#Windows=	3
#Autofocus=	Off
#AutoExposure=	Off
#Spike filter=	Off
#Delay time (s)=	0
#Binning=	1
#Readout mode=	Signal
#DeNoise=	Off
#ICS correction=	Off
#Dark correction=	Off
#Inst. Process=	Off
#Instrument=	LabRAM HR Evol
#Detector=	Syncerity OE
#Objective=	x100_VIS
#Grating=	600 (500nm)
#ND Filter=	1%
#Laser=	633nm_Edge
#Hole=	30.0125
#Range=	Visible
#Project=	Omar
#Sample=	03-07-23
#Site=	fings
#Title=	inside_pr
#Remark=	
#Date=	03.07.2023 15:12
#Acquired=	03.07.2023 15:12:50
201.713	38
202.98	38
204.247	42
205.513	48
206.778	50
208.045	42
209.311	36
210.576	44
211.84	44
213.106	42
214.371	48
215.636	44
216.899	46
218.164	60
219.428	46
220.692	36
221.955	46
223.219	46
224.482	44
225.744	40
227.007	50
228.27	44
229.531	46
230.794	48
232.055	56
233.317	48
234.579	42
235.839	48
237.1	38
238.362	48
239.621	44
240.882	44
242.141	48
243.402	46
244.661	50
245.921	46
247.179	44
248.439	48
249.698	42
250.956	46
252.215	46
253.473	52
254.731	48
255.988	52
257.246	48
258.503	44
259.761	40
261.017	52
262.273	50
263.53	46
264.786	48
266.042	58
267.298	52
268.554	48
269.809	66
271.063	44
272.319	48
273.573	50
274.828	48
276.082	50
277.336	54
278.591	54
279.844	56
281.097	44
282.351	60
283.603	52
284.855	40
286.109	56
287.361	48
288.613	48
289.866	50
291.117	50
292.368	52
293.62	50
294.871	50
296.121	50
297.372	52
298.623	52
299.873	48
301.123	46
302.372	54
303.622	60
304.872	56
306.121	52
307.37	56
308.618	50
309.866	46
311.116	52
312.364	48
313.611	58
314.859	58
316.106	50
317.353	56
318.6	54
319.848	56
321.095	52
322.341	50
323.587	60
324.833	52
326.079	56
327.324	54
328.569	60
329.814	66
331.059	44
332.304	52
333.548	46
334.792	58
336.037	62
337.28	56
338.524	56
339.767	54
341.011	52
342.254	50
343.497	58
344.739	50
345.982	56
347.224	60
348.466	66
349.708	62
350.95	66
352.191	60
353.432	56
354.673	46
355.914	54
357.155	58
358.394	54
359.634	56
360.874	62
362.114	62
363.354	66
364.593	56
365.832	54
367.07	68
368.309	58
369.548	60
370.786	72
372.024	60
373.261	68
374.499	50
375.736	66
376.974	68
378.211	64
379.447	66
380.684	60
381.92	72
383.157	60
384.392	68
385.628	68
386.864	60
388.098	54
389.333	68
390.569	68
391.802	68
393.037	64
394.272	68
395.505	66
396.739	70
397.973	66
399.206	60
400.44	66
401.673	68
402.905	70
404.138	62
405.37	70
406.602	64
407.835	66
409.066	62
410.298	66
411.528	56
412.76	72
413.99	60
415.221	80
416.451	66
417.682	68
418.911	84
420.142	66
421.371	72
422.601	80
423.83	64
425.059	82
426.288	74
427.517	64
428.745	84
429.974	66
431.201	70
432.43	64
433.657	80
434.883	72
436.111	78
437.338	78
438.565	78
439.791	88
441.017	64
442.244	88
443.469	86
444.695	80
445.921	84
447.146	74
448.37	82
449.596	72
450.821	82
452.045	84
453.27	84
454.493	80
455.717	64
456.94	80
458.165	84
459.387	76
460.61	86
461.833	92
463.056	84
464.278	68
465.5	88
466.722	80
467.945	94
469.166	76
470.387	84
471.608	88
472.829	92
474.049	88
475.271	94
476.491	80
477.711	80
478.931	90
480.15	84
481.37	80
482.589	88
483.808	82
485.027	80
486.247	88
487.465	90
488.683	88
489.901	78
491.119	94
492.337	88
493.554	86
494.771	86
495.988	94
497.205	90
498.422	80
499.638	94
500.854	86
502.07	90
503.286	98
504.502	78
505.717	104
506.933	90
508.148	90
509.363	90
510.577	108
511.792	108
513.005	94
514.219	92
515.433	94
516.647	96
517.86	88
519.073	90
520.287	88
521.5	86
522.711	104
523.924	96
525.136	90
526.348	92
527.56	92
528.772	96
529.982	88
531.194	100
532.405	98
533.616	96
534.825	102
536.036	98
537.246	100
538.457	100
539.665	106
540.875	106
542.085	94
543.294	98
544.502	92
545.712	110
546.92	98
548.128	110
549.336	110
550.545	96
551.751	112
552.959	90
554.167	122
555.373	104
556.581	94
557.788	114
558.994	102
560.2	110
561.406	112
562.612	106
563.817	106
565.023	104
566.229	104
567.433	104
568.639	104
569.843	112
571.048	110
572.251	100
573.456	100
574.659	114
575.863	100
577.066	124
578.27	118
579.472	120
580.676	108
581.878	114
583.081	114
584.283	110
585.484	112
586.687	126
587.888	118
589.09	110
590.291	120
591.493	130
592.693	130
593.893	114
595.094	108
596.294	118
597.494	120
598.694	124
599.894	128
601.093	130
602.293	116
603.491	116
604.69	112
605.889	122
607.087	130
608.285	136
609.483	120
610.682	130
611.879	130
613.076	124
614.273	132
615.471	124
616.667	116
617.864	128
619.06	126
620.256	130
621.453	122
622.648	128
623.844	136
625.039	124
626.234	130
627.429	130
628.625	128
629.819	136
631.013	136
632.208	142
633.401	134
634.595	140
635.789	146
636.982	150
638.175	138
639.369	150
640.562	136
641.755	154
642.947	150
644.139	144
645.331	156
646.523	134
647.715	142
648.906	140
650.097	152
651.288	140
652.479	142
653.67	150
654.86	142
656.051	160
657.241	152
658.429	150
659.619	146
660.808	148
661.998	152
663.187	152
664.376	148
665.565	152
666.753	148
667.942	164
669.13	170
670.317	158
671.505	168
672.692	156
673.88	170
675.067	162
676.254	164
677.44	156
678.627	180
679.813	174
681	158
682.184	164
683.37	166
684.556	174
685.742	160
686.926	176
688.111	150
689.296	172
690.481	166
691.664	166
692.849	166
694.033	182
695.216	176
696.4	182
697.584	178
698.766	174
699.949	196
701.133	174
702.314	180
703.497	168
704.678	196
705.861	180
707.043	186
708.224	188
709.406	186
710.586	174
711.768	180
712.949	180
714.129	198
715.31	196
716.489	196
717.67	192
718.849	190
720.029	198
721.208	176
722.388	210
723.566	204
724.746	202
725.924	202
727.103	208
728.28	210
729.458	212
730.636	206
731.814	220
732.992	204
734.168	218
735.345	194
736.523	212
737.699	212
738.876	200
740.052	212
741.227	244
742.404	232
743.579	206
744.754	216
745.931	236
747.105	232
748.28	216
749.455	224
750.629	212
751.803	226
752.977	240
754.152	224
755.325	252
756.499	230
757.672	216
758.846	220
760.018	240
761.191	256
762.363	228
763.535	242
764.708	230
765.88	234
767.052	254
768.223	250
769.394	252
770.565	248
771.737	220
772.908	252
774.078	268
775.249	270
776.419	262
777.589	242
778.758	256
779.928	264
781.097	252
782.266	266
783.435	274
784.604	242
785.773	266
786.941	258
788.11	264
789.278	260
790.446	268
791.613	240
792.781	274
793.948	262
795.115	280
796.282	282
797.449	270
798.616	282
799.782	278
800.948	282
802.115	298
803.28	296
804.446	286
805.612	270
806.777	314
807.941	304
809.106	286
810.271	296
811.435	302
812.6	318
813.764	302
814.927	304
816.091	314
817.254	292
818.418	312
819.581	298
820.743	334
821.906	302
823.069	306
824.232	318
825.393	326
826.555	318
827.717	322
828.879	314
830.039	336
831.201	316
832.362	314
833.522	332
834.683	348
835.844	356
837.003	352
838.164	348
839.324	336
840.483	330
841.643	368
842.801	358
843.961	340
845.12	354
846.278	346
847.437	388
848.594	360
849.753	352
850.91	356
852.069	372
853.227	362
854.383	380
855.541	370
856.697	398
857.855	368
859.011	376
860.168	382
861.323	354
862.48	404
863.635	382
864.79	378
865.946	406
867.101	408
868.257	374
869.411	372
870.567	408
871.721	370
872.874	412
874.029	416
875.183	420
876.336	394
877.49	404
878.643	408
879.796	426
880.95	402
882.102	404
883.254	412
884.407	424
885.559	422
886.711	420
887.862	450
889.015	452
890.166	420
891.317	446
892.467	420
893.619	452
894.77	430
895.92	436
897.07	468
898.221	456
899.371	496
900.52	468
901.669	454
902.819	468
903.968	458
905.116	458
906.266	488
907.415	452
908.563	466
909.711	488
910.859	470
912.007	466
913.154	460
914.301	494
915.449	488
916.596	508
917.742	482
918.889	484
920.036	510
921.183	490
922.329	496
923.475	492
924.621	532
925.765	496
926.911	548
928.056	494
929.201	506
930.346	506
931.49	520
932.635	534
933.779	550
934.924	546
936.068	518
937.211	558
938.355	530
939.498	518
940.64	544
941.784	568
942.926	556
944.069	556
945.212	542
946.354	542
947.495	574
948.637	584
949.779	556
950.921	592
952.062	588
953.202	586
954.344	580
955.484	582
956.625	586
957.765	566
958.905	580
960.045	620
961.184	612
962.324	596
963.464	602
964.604	648
965.742	616
966.881	644
968.02	606
969.158	622
970.296	658
971.434	626
972.572	634
973.71	616
974.847	646
975.985	624
977.121	658
978.259	660
979.396	646
980.532	676
981.669	652
982.804	666
983.941	682
985.076	694
986.212	684
987.347	686
988.483	668
989.617	672
990.753	702
991.887	690
993.022	694
994.156	688
995.29	714
996.424	690
997.558	710
998.692	756
999.825	738
1000.96	732
1002.09	740
1003.22	744
1004.36	728
1005.49	698
1006.62	740
1007.75	730
1008.89	744
1010.02	762
1011.15	746
1012.28	752
1013.41	744
1014.54	800
1015.67	774
1016.8	750
1017.93	762
1019.07	760
1020.19	812
1021.32	782
1022.45	796
1023.58	788
1024.71	826
1025.84	816
1026.97	810
1028.1	814
1029.23	806
1030.36	828
1031.49	774
1032.61	822
1033.74	792
1034.87	860
1036	830
1037.12	860
1038.25	846
1039.38	874
1040.5	860
1041.63	856
1042.76	842
1043.88	902
1045.01	878
1046.14	906
1047.26	848
1048.39	898
1049.51	864
1050.64	930
1051.76	880
1052.89	904
1054.01	914
1055.14	938
1056.26	944
1057.38	944
1058.51	914
1059.63	944
1060.75	972
1061.88	949
1063	926
1064.12	950
1065.25	936
1066.37	934
1067.49	940
1068.61	954
1069.73	1010
1070.86	974
1071.98	982
1073.1	988
1074.22	986
1075.34	1020
1076.46	970
1077.58	982
1078.7	992
1079.82	1046
1080.94	998
1082.06	1014
1083.18	1028
1084.3	1026
1085.42	1034
1086.54	1024
1087.66	1036
1088.78	1018
1089.9	1030
1091.02	1052
1092.14	1028
1093.25	1012
1094.37	1042
1095.49	1050
1096.61	1056
1097.72	1072
1098.84	1060
1099.96	1034
1101.08	1066
1102.19	1062
1103.31	1026
1104.43	1098
1105.54	1052
1106.66	1060
1107.77	1058
1108.89	1062
1110	1070
1111.12	1082
1112.23	1086
1113.35	1100
1114.46	1058
1115.58	1118
1116.69	1126
1117.81	1094
1118.92	1128
1120.03	1128
1121.15	1112
1122.26	1108
1123.37	1076
1124.49	1136
1125.6	1148
1126.71	1110
1127.83	1128
1128.94	1160
1130.05	1138
1131.16	1140
1132.27	1168
1133.39	1176
1134.5	1186
1135.61	1180
1136.72	1170
1137.83	1168
1138.94	1176
1140.05	1194
1141.16	1154
1142.27	1168
1143.38	1204
1144.49	1166
1145.6	1194
1146.71	1154
1147.82	1194
1148.93	1206
1150.04	1202
1151.15	1188
1152.26	1224
1153.36	1232
1154.47	1216
1155.58	1210
1156.69	1236
1157.8	1238
1158.9	1246
1160.01	1210
1161.12	1194
1162.22	1218
1163.33	1208
1164.44	1236
1165.54	1256
1166.65	1204
1167.76	1216
1168.86	1224
1169.97	1242
1171.07	1234
1172.18	1272
1173.28	1198
1174.39	1254
1175.49	1244
1176.6	1244
1177.7	1222
1178.81	1240
1179.91	1202
1181.02	1200
1182.12	1212
1183.22	1242
1184.33	1242
1185.43	1228
1186.53	1220
1187.63	1214
1188.74	1244
1189.84	1202
1190.94	1224
1192.04	1220
1193.15	1224
1194.25	1238
1195.35	1184
1196.45	1228
1197.55	1192
1198.65	1206
1199.75	1226
1200.85	1174
1201.95	1228
1203.05	1236
1204.16	1252
1205.25	1196
1206.35	1178
1207.45	1160
1208.55	1198
1209.65	1184
1210.75	1170
1211.85	1178
1212.95	1204
1214.05	1164
1215.15	1160
1216.24	1206
1217.34	1158
1218.44	1174
1219.54	1194
1220.64	1164
1221.73	1138
1222.83	1174
1223.93	1186
1225.02	1124
1226.12	1146
1227.22	1132
1228.31	1142
1229.41	1142
1230.5	1134
1231.6	1118
1232.7	1136
1233.79	1088
1234.89	1148
1235.98	1138
1237.08	1132
1238.17	1144
1239.26	1134
1240.36	1130
1241.45	1120
1242.55	1102
1243.64	1132
1244.73	1090
1245.83	1144
1246.92	1060
1248.01	1072
1249.11	1128
1250.2	1104
1251.29	1068
1252.38	1074
1253.48	1052
1254.57	1068
1255.66	1078
1256.75	1074
1257.84	1078
1258.93	1128
1260.03	1072
1261.12	1066
1262.21	1110
1263.3	1042
1264.39	1066
1265.48	1080
1266.57	986
1267.66	1016
1268.75	1078
1269.84	1070
1270.93	1072
1272.02	1070
1273.11	1012
1274.19	1078
1275.28	1052
1276.37	982
1277.46	1044
1278.55	986
1279.64	1026
1280.72	1026
1281.81	998
1282.9	998
1283.98	1014.66
1285.07	996.555
1286.16	1002.84
1287.25	970.102
1288.33	979.729
1289.42	1009.86
1290.5	1024.73
1291.59	992.68
1292.68	990.986
1293.76	941.983
1294.85	966.908
1295.93	985.782
1297.02	973.128
1298.1	976.429
1299.19	961.397
1300.27	946.351
1301.36	955.792
1302.44	941.138
1303.53	938.067
1304.61	959.488
1305.69	903.838
1306.78	924.922
1307.86	952.768
1308.94	917.401
1310.03	913.402
1311.11	929.534
1312.19	938.784
1313.27	931.94
1314.36	931.693
1315.44	912.048
1316.52	927.649
1317.6	909.514
1318.68	897.706
1319.77	882.327
1320.85	889.34
1321.93	903.281
1323.01	882.382
1324.09	888.284
1325.17	890.659
1326.25	883.759
1327.33	930.842
1328.41	898.844
1329.49	891.838
1330.57	880.784
1331.65	871.43
1332.73	871.5
1333.81	849.92
1334.89	844.326
1335.97	855.841
1337.04	851.936
1338.12	827.479
1339.2	868.181
1340.28	852.724
1341.36	819.385
1342.44	809.709
1343.51	871.116
1344.59	840.978
1345.67	833.783
1346.75	822.275
1347.82	823.071
1348.9	847.879
1349.98	820.319
1351.05	822.337
1352.13	822.117
1353.2	810.342
1354.28	798.088
1355.36	808.164
1356.43	819.189
1357.51	820.919
1358.58	799.356
1359.66	794.647
1360.73	795.607
1361.81	757.62
1362.88	788.911
1363.96	787.446
1365.03	803.381
1366.1	784.574
1367.18	798.512
1368.25	779.797
1369.33	788.713
1370.4	763.747
1371.47	768.144
1372.54	785.686
1373.62	775.872
1374.69	746.799
1375.76	782.099
1376.83	770.635
1377.91	738.605
1378.98	756.756
1380.05	751.473
1381.12	737.913
1382.19	751.676
1383.26	766.455
1384.34	747.903
1385.41	770.6
1386.48	746.677
1387.55	725.054
1388.62	724.765
1389.69	731.921
1390.76	703.266
1391.83	737.827
1392.9	697.847
1393.02	692
1394.1	724
1395.17	714
1396.25	728
1397.32	704
1398.4	718
1399.47	714
1400.55	716
1401.62	736
1402.69	676
1403.77	682
1404.84	694
1405.91	680
1406.99	718
1408.06	680
1409.13	710
1410.2	740
1411.27	676
1412.35	664
1413.42	672
1414.49	660
1415.56	686
1416.63	666
1417.7	664
1418.78	630
1419.85	660
1420.92	656
1421.99	654
1423.06	658
1424.13	646
1425.2	654
1426.27	632
1427.34	648
1428.41	662
1429.48	622
1430.55	614
1431.61	612
1432.68	650
1433.75	618
1434.82	628
1435.89	636
1436.96	614
1438.02	616
1439.09	620
1440.16	614
1441.23	620
1442.3	614
1443.36	632
1444.43	598
1445.5	634
1446.56	616
1447.63	592
1448.7	606
1449.76	620
1450.83	620
1451.89	596
1452.96	580
1454.02	582
1455.09	588
1456.15	604
1457.22	606
1458.28	614
1459.35	588
1460.41	590
1461.48	564
1462.54	580
1463.61	594
1464.67	572
1465.73	594
1466.8	590
1467.86	558
1468.92	578
1469.98	544
1471.05	544
1472.11	580
1473.17	582
1474.24	572
1475.3	536
1476.36	582
1477.42	556
1478.48	560
1479.54	600
1480.6	534
1481.67	540
1482.73	560
1483.79	550
1484.85	558
1485.91	556
1486.97	520
1488.03	538
1489.09	574
1490.15	534
1491.21	528
1492.27	532
1493.33	536
1494.38	520
1495.44	522
1496.5	534
1497.56	506
1498.62	536
1499.68	522
1500.74	514
1501.79	518
1502.85	560
1503.91	528
1504.97	518
1506.02	508
1507.08	492
1508.14	490
1509.2	524
1510.25	534
1511.31	496
1512.36	536
1513.42	498
1514.48	530
1515.53	470
1516.59	516
1517.64	488
1518.7	498
1519.75	510
1520.81	484
1521.86	476
1522.92	506
1523.97	494
1525.02	466
1526.08	494
1527.13	488
1528.19	468
1529.24	468
1530.29	464
1531.35	466
1532.4	458
1533.45	488
1534.51	484
1535.56	464
1536.61	464
1537.66	462
1538.72	476
1539.77	492
1540.82	462
1541.87	478
1542.92	442
1543.97	480
1545.02	454
1546.08	432
1547.13	464
1548.18	450
1549.23	434
1550.28	476
1551.33	444
1552.38	428
1553.43	474
1554.48	432
1555.53	428
1556.57	452
1557.62	432
1558.67	450
1559.72	424
1560.77	462
1561.82	426
1562.87	472
1563.92	440
1564.96	432
1566.01	450
1567.06	456
1568.11	442
1569.15	422
1570.2	418
1571.25	444
1572.29	448
1573.34	428
1574.39	448
1575.43	448
1576.48	434
1577.53	414
1578.57	432
1579.62	428
1580.66	456
1581.71	424
1582.75	406
1583.8	438
1584.84	440
1585.89	436
1586.93	424
1587.98	400
1589.02	404
1590.06	420
1591.11	396
1592.15	422
1593.2	416
1594.24	426
1595.28	416
1596.33	434
1597.37	426
1598.41	418
1599.45	444
1600.5	432
1601.54	424
1602.58	432
1603.62	420
1604.66	406
1605.7	406
1606.75	420
1607.79	404
1608.83	398
1609.87	398
1610.91	422
1611.95	388
1612.99	400
1614.03	404
1615.07	416
1616.11	398
1617.15	392
1618.19	390
1619.23	388
1620.27	386
1621.31	416
1622.35	406
1623.39	394
1624.43	408
1625.46	420
1626.5	412
1627.54	390
1628.58	406
1629.62	386
1630.65	414
1631.69	388
1632.73	378
1633.77	408
1634.8	412
1635.84	402
1636.88	400
1637.91	382
1638.95	386
1639.99	390
1641.02	384
1642.06	384
1643.09	388
1644.13	392
1645.16	376
1646.2	394
1647.23	374
1648.27	398
1649.3	366
1650.34	392
1651.37	382
1652.41	384
1653.44	390
1654.47	390
1655.51	366
1656.54	362
1657.57	364
1658.61	358
1659.64	374
1660.67	364
1661.71	368
1662.74	380
1663.77	350
1664.81	386
1665.84	382
1666.87	388
1667.9	372
1668.93	370
1669.96	356
1671	372
1672.03	358
1673.06	368
1674.09	350
1675.12	374
1676.15	372
1677.18	370
1678.21	372
1679.24	366
1680.27	378
1681.3	388
1682.33	372
1683.36	374
1684.39	362
1685.42	372
1686.45	372
1687.47	356
1688.5	376
1689.53	368
1690.56	370
1691.59	370
1692.62	334
1693.64	366
1694.67	358
1695.7	364
1696.73	368
1697.75	360
1698.78	348
1699.81	354
1700.83	356
1701.86	372
1702.89	344
1703.91	328
1704.94	334
1705.97	356
1706.99	344
1708.02	330
1709.04	362
1710.07	354
1711.09	358
1712.12	370
1713.14	336
1714.17	352
1715.19	352
1716.22	368
1717.24	354
1718.26	364
1719.29	336
1720.31	338
1721.33	338
1722.36	366
1723.38	372
1724.4	354
1725.43	340
1726.45	344
1727.47	362
1728.49	334
1729.52	354
1730.54	344
1731.56	364
1732.58	348
1733.6	352
1734.63	340
1735.65	354
1736.67	344
1737.69	338
1738.71	342
1739.73	330
1740.75	354
1741.77	382
1742.79	340
1743.81	336
1744.83	342
1745.85	328
1746.87	348
1747.89	350
1748.91	336
1749.93	322
1750.95	356
1751.97	352
1752.98	336
1754	344
1755.02	334
1756.04	350
1757.06	332
1758.07	350
1759.09	338
1760.11	340
1761.13	326
1762.14	364
1763.16	348
1764.18	336
1765.19	344
1766.21	336
1767.23	338
1768.24	328
1769.26	336
1770.28	340
1771.29	360
1772.31	364
1773.32	350
1774.34	338
1775.35	330
1776.37	338
1777.38	338
1778.4	346
1779.41	352
1780.43	342
1781.44	330
1782.45	358
1783.47	324
1784.48	312
1785.49	344
1786.51	338
1787.52	342
1788.53	320
1789.55	346
1790.56	334
1791.57	336
1792.58	346
1793.6	350
1794.61	330
1795.62	326
1796.63	344
1797.64	354
1798.66	314
1799.67	336
1800.68	342
1801.69	328
1802.7	348
1803.71	326
1804.72	322
1805.73	340
1806.74	348
1807.75	340
1808.76	332
1809.77	352
1810.78	330
1811.79	342
1812.8	346
1813.81	360
1814.82	334
1815.83	342
1816.84	326
1817.84	338
1818.85	342
1819.86	342
1820.87	328
1821.88	330
1822.88	324
1823.89	310
1824.9	330
1825.91	344
1826.91	324
1827.92	328
1828.93	334
1829.93	326
1830.94	320
1831.95	332
1832.95	334
1833.96	318
1834.97	344
1835.97	334
1836.98	346
1837.98	318
1838.99	336
1839.99	306
1841	312
1842	332
1843.01	330
1844.01	342
1845.02	318
1846.02	316
1847.02	332
1848.03	326
1849.03	320
1850.03	344
1851.04	322
1852.04	358
1853.04	332
1854.05	358
1855.05	340
1856.05	318
1857.05	308
1858.06	338
1859.06	310
1860.06	328
1861.06	320
1862.06	328
1863.07	336
1864.07	310
1865.07	328
1866.07	338
1867.07	320
1868.07	340
1869.07	312
1870.07	330
1871.07	322
1872.07	326
1873.07	336
1874.07	330
1875.07	324
1876.07	302
1877.07	318
1878.07	318
1879.07	324
1880.07	330
1881.07	340
1882.07	328
1883.06	338
1884.06	324
1885.06	306
1886.06	328
1887.06	314
1888.05	308
1889.05	312
1890.05	320
1891.05	314
1892.04	322
1893.04	308
1894.04	334
1895.03	330
1896.03	324
1897.03	314
1898.02	318
1899.02	308
1900.01	318
1901.01	330
1902	320
1903	318
1903.99	314
1904.99	336
1905.98	318
1906.98	330
1907.97	336
1908.97	338
1909.96	306
1910.96	314
1911.95	330
1912.94	314
1913.94	312
1914.93	308
1915.93	312
1916.92	316
1917.91	334
1918.9	318
1919.9	326
1920.89	332
1921.88	322
1922.87	316
1923.87	334
1924.86	332
1925.85	322
1926.84	326
1927.83	322
1928.82	314
1929.82	314
1930.81	324
1931.8	328
1932.79	334
1933.78	332
1934.77	322
1935.76	314
1936.75	318
1937.74	332
1938.73	316
1939.72	312
1940.71	328
1941.7	314
1942.69	318
1943.68	300
1944.67	328
1945.65	328
1946.64	308
1947.63	314
1948.62	324
1949.61	346
1950.6	310
1951.58	314
1952.57	298
1953.56	316
1954.55	310
1955.53	316
1956.52	304
1957.51	310
1958.5	314
1959.48	326
1960.47	300
1961.45	326
1962.44	324
1963.43	306
1964.41	306
1965.4	298
1966.38	322
1967.37	314
1968.35	314
1969.34	328
1970.32	306
1971.31	318
1972.29	306
1973.28	298
1974.26	314
1975.25	318
1976.23	316
1977.22	324
1978.2	328
1979.18	328
1980.17	294
1981.15	312
1982.13	336
1983.12	312
1984.1	332
1985.08	308
1986.06	316
1987.05	316
1988.03	294
1989.01	320
1989.99	302
1990.97	302
1991.96	310
1992.94	304
1993.92	310
1994.9	312
1995.88	308
1996.86	306
1997.84	306
1998.82	320
1999.8	300
2000.78	312
2001.76	288
2002.74	334
2003.72	306
2004.7	314
2005.68	308
2006.66	340
2007.64	296
2008.62	322
2009.6	306
2010.58	294
2011.56	320
2012.54	324
2013.51	292
2014.49	324
2015.47	306
2016.45	314
2017.43	326
2018.4	302
2019.38	312
2020.36	290
2021.34	312
2022.31	294
2023.29	312
2024.27	292
2025.24	306
2026.22	300
2027.2	324
2028.17	321
2029.15	318
2030.12	298
2031.1	310
2032.07	298
2033.05	342
2034.03	294
2035	302
2035.98	302
2036.95	288
2037.93	316
2038.9	298
2039.87	346
2040.85	294
2041.82	304
2042.8	312
2043.77	316
2044.74	312
2045.72	298
2046.69	306
2047.66	296
2048.64	320
2049.61	298
2050.58	296
2051.55	312
2052.53	304
2053.5	310
2054.47	298
2055.44	308
2056.41	286
2057.39	308
2058.36	320
2059.33	282
2060.3	310
2061.27	298
2062.24	316
2063.21	298
2064.18	304
2065.15	290
2066.12	310
2067.09	306
2068.06	320
2069.03	310
2070	296
2070.97	300
2071.94	312
2072.91	282
2073.88	316
2074.85	312
2075.82	314
2076.79	306
2077.76	324
2078.73	294
2079.69	302
2080.66	300
2081.63	316
2082.6	308
2083.56	306
2084.53	302
2085.5	292
2086.47	300
2087.43	316
2088.4	310
2089.37	292
2090.33	294
2091.3	310
2092.27	302
2093.23	300
2094.2	300
2095.17	292
2096.13	308
2097.1	288
2098.06	312
2099.03	304
2099.99	304
2100.96	306
2101.92	294
2102.89	290
2103.85	308
2104.82	320
2105.78	314
2106.74	278
2107.71	292
2108.67	308
2109.64	314
2110.6	314
2111.56	288
2112.53	310
2113.49	308
2114.45	296
2115.41	304
2116.38	280
2117.34	314
2118.3	296
2119.26	298
2120.23	286
2121.19	298
2122.15	300
2123.11	300
2124.07	300
2125.03	300
2126	316
2126.96	304
2127.92	324
2128.88	284
2129.84	284
2130.8	296
2131.76	320
2132.72	300
2133.68	302
2134.64	316
2135.6	292
2136.56	306
2137.52	298
2138.48	322
2139.44	286
2140.4	296
2141.35	298
2142.31	282
2143.27	312
2144.23	302
2145.19	304
2146.15	318
2147.1	284
2148.06	318
2149.02	294
2149.98	308
2150.94	268
2151.89	312
2152.85	312
2153.81	296
2154.76	288
2155.72	310
2156.68	288
2157.63	294
2158.59	300
2159.55	302
2160.5	282
2161.46	288
2162.41	300
2163.37	286
2164.32	312
2165.28	290
2166.23	278
2167.19	284
2168.14	290
2169.1	284
2170.05	282
2171.01	282
2171.96	314
2172.91	294
2173.87	278
2174.82	280
2175.78	296
2176.73	282
2177.68	288
2178.64	294
2179.59	304
2180.54	288
2181.49	266
2182.45	314
2183.4	306
2184.35	286
2185.3	302
2186.26	296
2187.21	280
2188.16	308
2189.11	306
2190.06	292
2191.01	296
2191.96	308
2192.92	270
2193.87	298
2194.82	280
2195.77	302
2196.72	298
2197.67	288
2198.62	292
2199.57	282
2200.52	290
2201.47	292
2202.42	288
2203.37	304
2204.32	268
2205.27	288
2206.22	296
2207.16	296
2208.11	286
2209.06	274
2210.01	304
2210.96	310
2211.91	302
2212.85	282
2213.8	284
2214.75	274
2215.7	282
2216.64	308
2217.59	292
2218.54	282
2219.49	276
2220.43	284
2221.38	286
2222.33	284
2223.27	289.905
2224.22	269.799
2225.16	312.845
2226.11	279.431
2227.06	282.847
2228	303.921
2228.95	288.935
2229.89	285.893
2230.84	290.776
2231.78	287.167
2232.73	290.109
2233.67	302.09
2234.62	280.75
2235.56	289.958
2236.51	276.821
2237.45	272.905
2238.4	277.008
2239.34	263.6
2240.28	273.15
2241.23	278.8
2242.17	279.249
2243.11	281.68
2244.06	289.721
2245	270.876
2245.94	288.998
2246.89	286.215
2247.83	278.81
2248.77	279.389
2249.71	274.529
2250.66	274.433
2251.6	277.942
2252.54	271.524
2253.48	278.529
2254.42	281.028
2255.37	283.948
2256.31	293.89
2257.25	266.472
2258.19	270.025
2259.13	275.22
2260.07	288.399
2261.01	278.745
2261.95	272.944
2262.89	276.504
2263.83	271.53
2264.77	286.51
2265.71	278.017
2266.65	270.882
2267.59	280.328
2268.53	272.607
2269.47	274.801
2270.41	271.309
2271.35	276.105
2272.29	283.561
2273.23	290.76
2274.17	266.374
2275.1	262.275
2276.04	276.549
2276.98	279.618
2277.92	274.796
2278.86	268.77
2279.8	267.289
2280.73	274.467
2281.67	268.13
2282.61	271.824
2283.55	270.418
2284.48	269.687
2285.42	265.36
2286.36	271.365
2287.29	265.725
2288.23	260.071
2289.17	273.721
2290.1	285.807
2291.04	283.45
2291.98	278.918
2292.91	255.76
2293.85	254.501
2294.78	271.229
2295.72	252.551
2296.65	250.881
2297.59	260.56
2298.52	263.494
2299.46	261.023
2300.39	255.648
2301.33	259.764
2302.26	259.976
2303.2	265.313
2304.13	267.268
2305.06	270.162
2306	257.765
2306.93	259.274
2307.87	275.083
2308.8	260.624
2309.73	255.789
2310.67	257.177
2311.6	259.616
2312.53	261.705
2313.46	263.544
2314.4	262.4
2315.33	246.189
2316.26	246.375
2316.69	258
2317.62	256
2318.56	260
2319.5	252
2320.43	266
2321.37	268
2322.31	270
2323.24	274
2324.18	270
2325.12	268
2326.05	246
2326.99	266
2327.92	262
2328.86	250
2329.79	250
2330.73	268
2331.66	254
2332.6	264
2333.53	246
2334.47	258
2335.4	238
2336.34	258
2337.27	258
2338.2	254
2339.14	246
2340.07	254
2341.01	246
2341.94	258
2342.87	268
2343.81	258
2344.74	248
2345.67	256
2346.6	242
2347.54	244
2348.47	250
2349.4	254
2350.33	248
2351.27	232
2352.2	238
2353.13	248
2354.06	258
2354.99	264
2355.93	238
2356.86	242
2357.79	272
2358.72	234
2359.65	234
2360.58	228
2361.51	230
2362.44	246
2363.37	238
2364.3	252
2365.23	244
2366.16	242
2367.09	252
2368.02	250
2368.95	248
2369.88	230
2370.81	246
2371.74	220
2372.67	232
2373.6	222
2374.52	234
2375.45	252
2376.38	240
2377.31	244
2378.24	242
2379.17	264
2380.09	262
2381.02	218
2381.95	250
2382.88	252
2383.8	230
2384.73	266
2385.66	238
2386.58	234
2387.51	244
2388.44	234
2389.36	236
2390.29	234
2391.22	248
2392.14	238
2393.07	236
2393.99	222
2394.92	216
2395.85	246
2396.77	236
2397.7	238
2398.62	236
2399.55	238
2400.47	218
2401.4	252
2402.32	224
2403.25	232
2404.17	226
2405.09	238
2406.02	218
2406.94	242
2407.86	230
2408.79	228
2409.71	222
2410.63	226
2411.56	220
2412.48	240
2413.4	226
2414.33	232
2415.25	232
2416.17	244
2417.09	222
2418.02	226
2418.94	232
2419.86	230
2420.78	226
2421.7	226
2422.63	222
2423.55	226
2424.47	230
2425.39	232
2426.31	222
2427.23	242
2428.15	224
2429.07	238
2429.99	236
2430.91	232
2431.83	226
2432.75	216
2433.67	224
2434.59	238
2435.51	216
2436.43	218
2437.35	214
2438.27	208
2439.19	230
2440.11	226
2441.03	226
2441.95	240
2442.86	208
2443.78	220
2444.7	204
2445.62	200
2446.54	220
2447.46	224
2448.37	232
2449.29	226
2450.21	214
2451.13	212
2452.04	210
2452.96	224
2453.88	196
2454.79	216
2455.71	226
2456.63	198
2457.54	204
2458.46	208
2459.38	234
2460.29	228
2461.21	202
2462.12	200
2463.04	212
2463.95	214
2464.87	198
2465.78	222
2466.7	236
2467.61	226
2468.53	210
2469.44	200
2470.36	206
2471.27	210
2472.19	208
2473.1	206
2474.01	200
2474.93	192
2475.84	208
2476.76	218
2477.67	216
2478.58	190
2479.5	194
2480.41	198
2481.32	212
2482.23	200
2483.15	212
2484.06	206
2484.97	214
2485.88	192
2486.8	196
2487.71	198
2488.62	204
2489.53	222
2490.44	186
2491.35	202
2492.26	188
2493.18	210
2494.09	186
2495	192
2495.91	186
2496.82	192
2497.73	192
2498.64	176
2499.55	192
2500.46	208
2501.37	188
2502.28	194
2503.19	188
2504.1	192
2505.01	194
2505.92	202
2506.83	184
2507.74	190
2508.65	200
2509.55	200
2510.46	200
2511.37	180
2512.28	204
2513.19	190
2514.09	190
2515	212
2515.91	202
2516.82	204
2517.73	194
2518.63	188
2519.54	178
2520.45	190
2521.35	190
2522.26	188
2523.17	182
2524.07	172
2524.98	190
2525.89	182
2526.79	184
2527.7	176
2528.6	176
2529.51	180
2530.42	198
2531.32	178
2532.23	188
2533.13	184
2534.04	186
2534.94	180
2535.85	194
2536.75	172
2537.66	168
2538.56	174
2539.47	176
2540.37	178
2541.27	180
2542.18	182
2543.08	184
2543.98	166
2544.89	170
2545.79	178
2546.7	160
2547.6	174
2548.5	182
2549.4	190
2550.31	148
2551.21	182
2552.11	168
2553.01	182
2553.92	182
2554.82	196
2555.72	174
2556.62	182
2557.52	174
2558.42	170
2559.33	164
2560.23	174
2561.13	170
2562.03	170
2562.93	162
2563.83	158
2564.73	176
2565.63	182
2566.53	172
2567.43	152
2568.33	164
2569.23	166
2570.13	166
2571.03	164
2571.93	162
2572.83	168
2573.73	156
2574.63	158
2575.53	180
2576.43	174
2577.33	176
2578.22	160
2579.12	158
2580.02	156
2580.92	168
2581.82	156
2582.72	172
2583.61	146
2584.51	178
2585.41	172
2586.31	180
2587.2	142
2588.1	166
2589	176
2589.89	176
2590.79	150
2591.69	164
2592.58	170
2593.48	162
2594.38	160
2595.27	164
2596.17	152
2597.06	156
2597.96	170
2598.86	158
2599.75	150
2600.65	166
2601.54	166
2602.44	156
2603.33	164
2604.23	156
2605.12	154
2606.02	160
2606.91	158
2607.81	166
2608.7	150
2609.59	166
2610.49	142
2611.38	174
2612.27	154
2613.17	144
2614.06	128
2614.95	158
2615.85	168
2616.74	146
2617.63	144
2618.53	154
2619.42	146
2620.31	144
2621.2	148
2622.1	162
2622.99	160
2623.88	140
2624.77	138
2625.66	142
2626.55	156
2627.45	152
2628.34	142
2629.23	138
2630.12	148
2631.01	148
2631.9	142
2632.79	142
2633.68	148
2634.57	162
2635.46	148
2636.35	134
2637.24	152
2638.13	142
2639.02	142
2639.91	146
2640.8	132
2641.69	148
2642.58	142
2643.47	138
2644.36	134
2645.25	148
2646.14	146
2647.02	140
2647.91	142
2648.8	142
2649.69	150
2650.58	136
2651.46	138
2652.35	124
2653.24	146
2654.13	134
2655.01	144
2655.9	132
2656.79	134
2657.68	152
2658.56	142
2659.45	136
2660.34	134
2661.22	140
2662.11	128
2662.99	142
2663.88	136
2664.77	128
2665.65	140
2666.54	132
2667.42	138
2668.31	154
2669.2	124
2670.08	140
2670.96	148
2671.85	130
2672.73	138
2673.62	126
2674.5	140
2675.39	138
2676.27	130
2677.16	134
2678.04	130
2678.93	130
2679.81	136
2680.69	126
2681.58	144
2682.46	120
2683.34	144
2684.23	136
2685.11	130
2685.99	136
2686.87	146
2687.76	126
2688.64	134
2689.52	134
2690.4	134
2691.28	142
2692.17	118
2693.05	110
2693.93	130
2694.81	110
2695.69	136
2696.57	134
2697.46	122
2698.34	138
2699.22	138
2700.1	142
2700.98	126
2701.86	122
2702.74	122
2703.62	120
2704.5	120
2705.38	130
2706.26	112
2707.14	126
2708.02	128
2708.9	126
2709.78	122
2710.66	130
2711.54	120
2712.42	110
2713.3	116
2714.17	114
2715.05	126
2715.93	134
2716.81	110
2717.69	130
2718.57	120
2719.44	120
2720.32	126
2721.2	116
2722.08	122
2722.95	138
2723.83	124
2724.71	124
2725.59	116
2726.46	106
2727.34	120
2728.22	126
2729.09	114
2729.97	122
2730.85	114
2731.72	116
2732.6	116
2733.47	122
2734.35	126
2735.23	112
2736.1	118
2736.98	126
2737.85	112
2738.73	112
2739.6	122
2740.48	100
2741.35	118
2742.23	124
2743.1	118
2743.98	106
2744.85	110
2745.72	132
2746.6	116
2747.47	98
2748.35	120
2749.22	112
2750.09	106
2750.97	108
2751.84	102
2752.71	102
2753.59	118
2754.46	104
2755.33	114
2756.2	108
2757.08	106
2757.95	124
2758.82	110
2759.69	110
2760.57	104
2761.44	108
2762.31	116
2763.18	116
2764.05	108
2764.92	96
2765.79	112
2766.67	106
2767.54	120
2768.41	106
2769.28	98
2770.15	118
2771.02	98
2771.89	114
2772.76	112
2773.63	104
2774.5	102
2775.37	102
2776.24	104
2777.11	104
2777.98	108
2778.85	110
2779.72	104
2780.59	102
2781.46	100
2782.32	96
2783.19	104
2784.06	106
2784.93	104
2785.8	110
2786.67	92
2787.53	104
2788.4	102
2789.27	108
2790.14	100
2791.01	106
2791.87	96
2792.74	92
2793.61	104
2794.47	100
2795.34	88
2796.21	104
2797.07	102
2797.94	104
2798.81	92
2799.67	102
2800.54	104
2801.41	104
2802.27	100
2803.14	96
2804	102
2804.87	92
2805.74	106
2806.6	98
2807.47	102
2808.33	98
2809.2	102
2810.06	82
2810.93	100
2811.79	84
2812.65	98
2813.52	108
2814.38	94
2815.25	96
2816.11	90
2816.98	98
2817.84	102
2818.7	102
2819.56	92
2820.43	78
2821.29	90
2822.16	88
2823.02	98
2823.88	108
2824.74	92
2825.61	70
2826.47	82
2827.33	92
2828.19	82
2829.05	88
2829.92	88
2830.78	104
2831.64	88
2832.5	92
2833.36	94
2834.23	92
2835.09	86
2835.95	94
2836.81	78
2837.67	96
2838.53	86
2839.39	90
2840.25	94
2841.11	88
2841.97	74
2842.83	84
2843.69	84
2844.55	90
2845.41	90
2846.27	88
2847.13	92
2847.99	88
2848.85	84
2849.71	78
2850.57	90
2851.43	88
2852.28	86
2853.14	92
2854	78
2854.86	100
2855.72	86
2856.58	80
2857.43	86
2858.29	92
2859.15	96
2860.01	94
2860.86	74
2861.72	78
2862.58	70
2863.44	100
2864.29	84
2865.15	86
2866.01	80
2866.86	80
2867.72	86
2868.58	82
2869.43	78
2870.29	86
2871.14	78
2872	90
2872.86	88
2873.71	84
2874.57	80
2875.42	82
2876.28	76
2877.13	76
2877.99	70
2878.84	78
2879.7	76
2880.55	74
2881.41	92
2882.26	80
2883.11	80
2883.97	80
2884.82	80
2885.68	76
2886.53	78
2887.39	76
2888.24	82
2889.09	86
2889.94	76
2890.8	74
2891.65	90
2892.5	76
2893.36	74
2894.21	80
2895.06	78
2895.91	74
2896.77	70
2897.62	74
2898.47	88
2899.32	78
2900.17	76
2901.03	62
2901.88	76
2902.73	84
2903.58	72
2904.43	80
2905.28	76
2906.13	80
2906.98	58
2907.84	78
2908.69	84
2909.54	60
2910.39	66
2911.24	74
2912.09	74
2912.94	78
2913.79	84
2914.64	72
2915.49	84
2916.34	84
2917.19	78
2918.03	70
2918.88	64
2919.73	68
2920.58	68
2921.43	72
2922.28	76
2923.13	72
2923.98	74
2924.82	74
2925.67	74
2926.52	68
2927.37	80
2928.22	64
2929.06	76
2929.91	78
2930.76	72
2931.61	78
2932.45	68
2933.3	92
2934.15	72
2934.99	74
2935.84	74
2936.69	70
2937.53	76
2938.38	58
2939.23	76
2940.07	78
2940.92	74
2941.76	74
2942.61	66
2943.46	70
2944.3	70
2945.15	76
2945.99	80
2946.84	62
2947.68	76
2948.53	70
2949.37	62
2950.22	68
2951.06	76
2951.9	62
2952.75	66
2953.59	60
2954.44	56
2955.28	70
2956.12	78
2956.97	56
2957.81	64
2958.65	72
2959.5	64
2960.34	66
2961.18	62
2962.03	70
2962.87	72
2963.71	64
2964.56	74
2965.4	64
2966.24	74
2967.08	78
2967.92	74
2968.77	74
2969.61	68
2970.45	70
2971.29	60
2972.13	60
2972.97	64
2973.82	76
2974.66	56
2975.5	62
2976.34	66
2977.18	58
2978.02	66
2978.86	62
2979.7	68
2980.54	66
2981.38	70
2982.22	72
2983.06	70
2983.9	58
2984.74	62
2985.58	68
2986.42	58
2987.26	76
2988.1	70
2988.94	58
2989.78	66
2990.61	58
2991.45	70
2992.29	60
2993.13	68
2993.97	62
2994.81	62
2995.64	64
2996.48	56
2997.32	62
2998.16	62
2999	50
2999.83	60
