#Acq. time (s)=	10
#Accumulations=	1
#Range (cm-¹)=	200...3000
#Windows=	3
#Autofocus=	Off
#AutoExposure=	Off
#Spike filter=	Off
#Delay time (s)=	0
#Binning=	1
#Readout mode=	Signal
#DeNoise=	Off
#ICS correction=	Off
#Dark correction=	Off
#Inst. Process=	Off
#Instrument=	LabRAM HR Evol
#Detector=	Syncerity OE
#Objective=	x100_VIS
#Grating=	600 (500nm)
#ND Filter=	1%
#Laser=	633nm_Edge
#Hole=	30.0125
#Range=	Visible
#Project=	Omar
#Sample=	03-07-23
#Site=	fings
#Title=	inside_pr
#Remark=	
#Date=	03.07.2023 15:01
#Acquired=	03.07.2023 15:01:31
201.713	82
202.98	60
204.247	78
205.513	66
206.778	74
208.045	64
209.311	76
210.576	62
211.84	76
213.106	64
214.371	64
215.636	72
216.899	76
218.164	68
219.428	72
220.692	64
221.955	76
223.219	70
224.482	78
225.744	68
227.007	72
228.27	74
229.531	76
230.794	66
232.055	66
233.317	66
234.579	74
235.839	80
237.1	80
238.362	86
239.621	74
240.882	72
242.141	82
243.402	86
244.661	82
245.921	76
247.179	74
248.439	82
249.698	70
250.956	68
252.215	78
253.473	88
254.731	78
255.988	78
257.246	78
258.503	84
259.761	72
261.017	84
262.273	78
263.53	80
264.786	88
266.042	76
267.298	88
268.554	76
269.809	82
271.063	88
272.319	74
273.573	90
274.828	92
276.082	86
277.336	84
278.591	92
279.844	84
281.097	86
282.351	96
283.603	78
284.855	92
286.109	94
287.361	94
288.613	88
289.866	94
291.117	86
292.368	100
293.62	88
294.871	90
296.121	90
297.372	98
298.623	84
299.873	92
301.123	100
302.372	88
303.622	100
304.872	94
306.121	110
307.37	96
308.618	100
309.866	88
311.116	106
312.364	90
313.611	96
314.859	88
316.106	96
317.353	100
318.6	96
319.848	106
321.095	94
322.341	102
323.587	102
324.833	96
326.079	110
327.324	98
328.569	104
329.814	96
331.059	98
332.304	96
333.548	106
334.792	96
336.037	114
337.28	100
338.524	102
339.767	100
341.011	112
342.254	110
343.497	112
344.739	106
345.982	110
347.224	116
348.466	118
349.708	104
350.95	100
352.191	114
353.432	118
354.673	116
355.914	118
357.155	114
358.394	116
359.634	110
360.874	122
362.114	118
363.354	108
364.593	126
365.832	124
367.07	128
368.309	136
369.548	130
370.786	128
372.024	134
373.261	118
374.499	130
375.736	126
376.974	120
378.211	132
379.447	124
380.684	126
381.92	122
383.157	126
384.392	98
385.628	118
386.864	126
388.098	124
389.333	132
390.569	146
391.802	134
393.037	142
394.272	120
395.505	134
396.739	140
397.973	138
399.206	136
400.44	144
401.673	130
402.905	138
404.138	156
405.37	134
406.602	148
407.835	140
409.066	152
410.298	138
411.528	148
412.76	138
413.99	144
415.221	152
416.451	162
417.682	154
418.911	142
420.142	152
421.371	146
422.601	144
423.83	156
425.059	152
426.288	174
427.517	158
428.745	142
429.974	160
431.201	152
432.43	172
433.657	160
434.883	174
436.111	154
437.338	176
438.565	172
439.791	158
441.017	164
442.244	172
443.469	154
444.695	166
445.921	168
447.146	164
448.37	188
449.596	158
450.821	176
452.045	152
453.27	170
454.493	178
455.717	162
456.94	160
458.165	172
459.387	174
460.61	182
461.833	184
463.056	188
464.278	172
465.5	186
466.722	172
467.945	210
469.166	184
470.387	172
471.608	172
472.829	184
474.049	190
475.271	166
476.491	192
477.711	168
478.931	196
480.15	190
481.37	198
482.589	204
483.808	190
485.027	196
486.247	188
487.465	176
488.683	204
489.901	224
491.119	190
492.337	198
493.554	206
494.771	212
495.988	214
497.205	204
498.422	220
499.638	204
500.854	220
502.07	218
503.286	210
504.502	202
505.717	204
506.933	202
508.148	224
509.363	218
510.577	202
511.792	202
513.005	210
514.219	216
515.433	238
516.647	222
517.86	210
519.073	232
520.287	228
521.5	222
522.711	224
523.924	224
525.136	242
526.348	232
527.56	230
528.772	236
529.982	232
531.194	230
532.405	212
533.616	234
534.825	240
536.036	236
537.246	242
538.457	234
539.665	250
540.875	240
542.085	246
543.294	242
544.502	256
545.712	242
546.92	238
548.128	246
549.336	262
550.545	230
551.751	246
552.959	260
554.167	268
555.373	260
556.581	240
557.788	246
558.994	250
560.2	252
561.406	254
562.612	264
563.817	252
565.023	262
566.229	276
567.433	258
568.639	266
569.843	270
571.048	232
572.251	272
573.456	260
574.659	284
575.863	274
577.066	286
578.27	274
579.472	300
580.676	280
581.878	288
583.081	276
584.283	280
585.484	278
586.687	282
587.888	280
589.09	292
590.291	292
591.493	300
592.693	314
593.893	300
595.094	286
596.294	294
597.494	294
598.694	314
599.894	284
601.093	314
602.293	312
603.491	312
604.69	306
605.889	302
607.087	308
608.285	300
609.483	322
610.682	310
611.879	326
613.076	324
614.273	320
615.471	336
616.667	328
617.864	324
619.06	336
620.256	330
621.453	322
622.648	342
623.844	312
625.039	338
626.234	308
627.429	336
628.625	344
629.819	360
631.013	326
632.208	352
633.401	364
634.595	366
635.789	368
636.982	376
638.175	356
639.369	354
640.562	380
641.755	382
642.947	374
644.139	388
645.331	370
646.523	394
647.715	396
648.906	362
650.097	410
651.288	362
652.479	390
653.67	400
654.86	378
656.051	374
657.241	394
658.429	400
659.619	406
660.808	404
661.998	386
663.187	402
664.376	406
665.565	446
666.753	414
667.942	418
669.13	418
670.317	410
671.505	410
672.692	432
673.88	434
675.067	418
676.254	420
677.44	424
678.627	462
679.813	414
681	448
682.184	454
683.37	442
684.556	422
685.742	448
686.926	468
688.111	452
689.296	454
690.481	464
691.664	466
692.849	460
694.033	436
695.216	456
696.4	444
697.584	484
698.766	464
699.949	444
701.133	476
702.314	482
703.497	476
704.678	482
705.861	486
707.043	498
708.224	504
709.406	490
710.586	496
711.768	480
712.949	498
714.129	524
715.31	502
716.489	532
717.67	520
718.849	542
720.029	528
721.208	528
722.388	530
723.566	514
724.746	534
725.924	528
727.103	538
728.28	518
729.458	534
730.636	540
731.814	566
732.992	554
734.168	582
735.345	552
736.523	566
737.699	594
738.876	600
740.052	590
741.227	638
742.404	586
743.579	568
744.754	616
745.931	606
747.105	604
748.28	612
749.455	604
750.629	606
751.803	644
752.977	610
754.152	622
755.325	624
756.499	658
757.672	602
758.846	660
760.018	642
761.191	618
762.363	646
763.535	628
764.708	660
765.88	672
767.052	652
768.223	656
769.394	646
770.565	702
771.737	680
772.908	654
774.078	636
775.249	680
776.419	680
777.589	680
778.758	694
779.928	712
781.097	674
782.266	700
783.435	708
784.604	718
785.773	698
786.941	734
788.11	740
789.278	712
790.446	736
791.613	734
792.781	764
793.948	744
795.115	756
796.282	736
797.449	770
798.616	750
799.782	758
800.948	792
802.115	760
803.28	786
804.446	778
805.612	808
806.777	792
807.941	792
809.106	808
810.271	848
811.435	850
812.6	822
813.764	840
814.927	830
816.091	874
817.254	830
818.418	830
819.581	830
820.743	860
821.906	886
823.069	868
824.232	938
825.393	910
826.555	906
827.717	882
828.879	886
830.039	910
831.201	900
832.362	926
833.522	934
834.683	934
835.844	936
837.003	946
838.164	966
839.324	948
840.483	980
841.643	994
842.801	992
843.961	978
845.12	1008
846.278	992
847.437	980
848.594	1044
849.753	1010
850.91	1016
852.069	998
853.227	1046
854.383	1020
855.541	1044
856.697	1036
857.855	1080
859.011	1088
860.168	1036
861.323	1068
862.48	1060
863.635	1134
864.79	1108
865.946	1092
867.101	1106
868.257	1112
869.411	1144
870.567	1098
871.721	1168
872.874	1156
874.029	1144
875.183	1158
876.336	1162
877.49	1178
878.643	1158
879.796	1140
880.95	1164
882.102	1184
883.254	1164
884.407	1218
885.559	1218
886.711	1216
887.862	1188
889.015	1192
890.166	1248
891.317	1192
892.467	1244
893.619	1232
894.77	1278
895.92	1218
897.07	1274
898.221	1266
899.371	1332
900.52	1284
901.669	1318
902.819	1302
903.968	1314
905.116	1282
906.266	1354
907.415	1298
908.563	1336
909.711	1330
910.859	1344
912.007	1334
913.154	1366
914.301	1370
915.449	1366
916.596	1406
917.742	1398
918.889	1368
920.036	1414
921.183	1448
922.329	1432
923.475	1444
924.621	1430
925.765	1468
926.911	1460
928.056	1458
929.201	1436
930.346	1462
931.49	1474
932.635	1458
933.779	1502
934.924	1500
936.068	1554
937.211	1532
938.355	1508
939.498	1556
940.64	1568
941.784	1616
942.926	1578
944.069	1574
945.212	1642
946.354	1576
947.495	1600
948.637	1602
949.779	1608
950.921	1592
952.062	1602
953.202	1660
954.344	1656
955.484	1704
956.625	1714
957.765	1732
958.905	1710
960.045	1754
961.184	1722
962.324	1746
963.464	1740
964.604	1718
965.742	1792
966.881	1764
968.02	1750
969.158	1832
970.296	1842
971.434	1796
972.572	1794
973.71	1840
974.847	1778
975.985	1858
977.121	1804
978.259	1844
979.396	1860
980.532	1906
981.669	1908
982.804	1884
983.941	1982
985.076	1894
986.212	1930
987.347	1976
988.483	1950
989.617	1980
990.753	1944
991.887	1912
993.022	2054
994.156	2000
995.29	2010
996.424	2030
997.558	2060
998.692	2064
999.825	2046
1000.96	2102
1002.09	2104
1003.22	2036
1004.36	2078
1005.49	2100
1006.62	2132
1007.75	2158
1008.89	2140
1010.02	2152
1011.15	2140
1012.28	2112
1013.41	2194
1014.54	2176
1015.67	2200
1016.8	2286
1017.93	2294
1019.07	2194
1020.19	2224
1021.32	2282
1022.45	2286
1023.58	2314
1024.71	2284
1025.84	2274
1026.97	2310
1028.1	2318
1029.23	2396
1030.36	2376
1031.49	2394
1032.61	2424
1033.74	2346
1034.87	2374
1036	2472
1037.12	2444
1038.25	2460
1039.38	2492
1040.5	2510
1041.63	2552
1042.76	2500
1043.88	2520
1045.01	2492
1046.14	2550
1047.26	2588
1048.39	2578
1049.51	2566
1050.64	2638
1051.76	2610
1052.89	2516
1054.01	2714
1055.14	2624
1056.26	2702
1057.38	2688
1058.51	2702
1059.63	2638
1060.75	2664
1061.88	2695
1063	2726
1064.12	2756
1065.25	2788
1066.37	2738
1067.49	2758
1068.61	2734
1069.73	2742
1070.86	2806
1071.98	2782
1073.1	2798
1074.22	2880
1075.34	2908
1076.46	2884
1077.58	2926
1078.7	2882
1079.82	2920
1080.94	2914
1082.06	2944
1083.18	2896
1084.3	2940
1085.42	2954
1086.54	2964
1087.66	2900
1088.78	2916
1089.9	3010
1091.02	2930
1092.14	2964
1093.25	3050
1094.37	3030
1095.49	2986
1096.61	3054
1097.72	3036
1098.84	3060
1099.96	3122
1101.08	3150
1102.19	3056
1103.31	3042
1104.43	3168
1105.54	3096
1106.66	3130
1107.77	3142
1108.89	3166
1110	3140
1111.12	3246
1112.23	3178
1113.35	3192
1114.46	3186
1115.58	3214
1116.69	3204
1117.81	3220
1118.92	3246
1120.03	3176
1121.15	3232
1122.26	3254
1123.37	3298
1124.49	3284
1125.6	3308
1126.71	3266
1127.83	3356
1128.94	3304
1130.05	3374
1131.16	3350
1132.27	3330
1133.39	3382
1134.5	3328
1135.61	3426
1136.72	3342
1137.83	3390
1138.94	3432
1140.05	3392
1141.16	3478
1142.27	3416
1143.38	3394
1144.49	3392
1145.6	3450
1146.71	3482
1147.82	3462
1148.93	3464
1150.04	3488
1151.15	3574
1152.26	3614
1153.36	3490
1154.47	3516
1155.58	3572
1156.69	3512
1157.8	3514
1158.9	3646
1160.01	3498
1161.12	3600
1162.22	3538
1163.33	3602
1164.44	3618
1165.54	3624
1166.65	3590
1167.76	3604
1168.86	3714
1169.97	3544
1171.07	3626
1172.18	3544
1173.28	3526
1174.39	3582
1175.49	3686
1176.6	3666
1177.7	3592
1178.81	3636
1179.91	3596
1181.02	3556
1182.12	3604
1183.22	3586
1184.33	3622
1185.43	3624
1186.53	3670
1187.63	3562
1188.74	3642
1189.84	3608
1190.94	3610
1192.04	3540
1193.15	3540
1194.25	3554
1195.35	3586
1196.45	3546
1197.55	3552
1198.65	3546
1199.75	3526
1200.85	3590
1201.95	3508
1203.05	3536
1204.16	3566
1205.25	3534
1206.35	3534
1207.45	3532
1208.55	3510
1209.65	3542
1210.75	3518
1211.85	3520
1212.95	3490
1214.05	3536
1215.15	3456
1216.24	3478
1217.34	3450
1218.44	3448
1219.54	3410
1220.64	3408
1221.73	3426
1222.83	3406
1223.93	3420
1225.02	3406
1226.12	3420
1227.22	3334
1228.31	3352
1229.41	3322
1230.5	3378
1231.6	3374
1232.7	3364
1233.79	3374
1234.89	3322
1235.98	3418
1237.08	3340
1238.17	3338
1239.26	3316
1240.36	3326
1241.45	3290
1242.55	3290
1243.64	3308
1244.73	3222
1245.83	3278
1246.92	3370
1248.01	3284
1249.11	3160
1250.2	3282
1251.29	3138
1252.38	3288
1253.48	3254
1254.57	3256
1255.66	3154
1256.75	3190
1257.84	3192
1258.93	3120
1260.03	3116
1261.12	3208
1262.21	3080
1263.3	3216
1264.39	3114
1265.48	3098
1266.57	3154
1267.66	3092
1268.75	3048
1269.84	3166
1270.93	3074
1272.02	3068
1273.11	3090
1274.19	3022
1275.28	3062
1276.37	3008
1277.46	3004
1278.55	2978
1279.64	3050
1280.72	2966
1281.81	3050
1282.9	2990
1283.98	2873.18
1285.07	2959.15
1286.16	2881.31
1287.25	2871.61
1288.33	2928.46
1289.42	2983.75
1290.5	2925.06
1291.59	2859.61
1292.68	2876.65
1293.76	2821.43
1294.85	2902.65
1295.93	2837.56
1297.02	2860.93
1298.1	2902.73
1299.19	2809.92
1300.27	2827.82
1301.36	2825.88
1302.44	2757.75
1303.53	2778.15
1304.61	2760.73
1305.69	2777.67
1306.78	2725.21
1307.86	2711.14
1308.94	2681.15
1310.03	2693.02
1311.11	2652.13
1312.19	2663.82
1313.27	2724.27
1314.36	2679.15
1315.44	2656.69
1316.52	2648.85
1317.6	2680.69
1318.68	2621.99
1319.77	2607.84
1320.85	2629.93
1321.93	2601.35
1323.01	2506.57
1324.09	2611.47
1325.17	2585.96
1326.25	2576.15
1327.33	2558.65
1328.41	2538.27
1329.49	2532.06
1330.57	2546.33
1331.65	2503.62
1332.73	2474.69
1333.81	2467.74
1334.89	2447.15
1335.97	2448.52
1337.04	2460.17
1338.12	2415.55
1339.2	2393.59
1340.28	2389.72
1341.36	2395.22
1342.44	2410.36
1343.51	2381.28
1344.59	2394.17
1345.67	2362.96
1346.75	2302.28
1347.82	2342.06
1348.9	2346.19
1349.98	2295.75
1351.05	2319.77
1352.13	2329.19
1353.2	2290.35
1354.28	2282.28
1355.36	2299.12
1356.43	2224.86
1357.51	2300.89
1358.58	2266.51
1359.66	2230.15
1360.73	2241.63
1361.81	2251.97
1362.88	2266.95
1363.96	2219.23
1365.03	2181.57
1366.1	2173.93
1367.18	2185.08
1368.25	2157.79
1369.33	2174.67
1370.4	2116.65
1371.47	2133.29
1372.54	2195.93
1373.62	2122.48
1374.69	2110.71
1375.76	2079.49
1376.83	2149.91
1377.91	2126.45
1378.98	2065.65
1380.05	2090.8
1381.12	2088.45
1382.19	2077.67
1383.26	2039.3
1384.34	2069.62
1385.41	2073.74
1386.48	2038.08
1387.55	1988.97
1388.62	1986.48
1389.69	1994.93
1390.76	1946.8
1391.83	1976.37
1392.9	1939.52
1393.02	1934
1394.1	1986
1395.17	1950
1396.25	1986
1397.32	1918
1398.4	1936
1399.47	1900
1400.55	1908
1401.62	1888
1402.69	1922
1403.77	1902
1404.84	1898
1405.91	1878
1406.99	1890
1408.06	1848
1409.13	1898
1410.2	1846
1411.27	1838
1412.35	1830
1413.42	1836
1414.49	1812
1415.56	1784
1416.63	1804
1417.7	1788
1418.78	1858
1419.85	1814
1420.92	1790
1421.99	1768
1423.06	1792
1424.13	1708
1425.2	1800
1426.27	1734
1427.34	1730
1428.41	1774
1429.48	1800
1430.55	1716
1431.61	1670
1432.68	1718
1433.75	1714
1434.82	1732
1435.89	1678
1436.96	1672
1438.02	1674
1439.09	1618
1440.16	1670
1441.23	1656
1442.3	1674
1443.36	1650
1444.43	1676
1445.5	1674
1446.56	1674
1447.63	1618
1448.7	1670
1449.76	1612
1450.83	1652
1451.89	1618
1452.96	1622
1454.02	1548
1455.09	1626
1456.15	1618
1457.22	1604
1458.28	1636
1459.35	1648
1460.41	1574
1461.48	1566
1462.54	1580
1463.61	1524
1464.67	1592
1465.73	1556
1466.8	1596
1467.86	1542
1468.92	1588
1469.98	1542
1471.05	1550
1472.11	1524
1473.17	1512
1474.24	1514
1475.3	1582
1476.36	1518
1477.42	1548
1478.48	1534
1479.54	1518
1480.6	1506
1481.67	1496
1482.73	1498
1483.79	1490
1484.85	1518
1485.91	1482
1486.97	1526
1488.03	1486
1489.09	1430
1490.15	1486
1491.21	1448
1492.27	1422
1493.33	1452
1494.38	1472
1495.44	1464
1496.5	1416
1497.56	1430
1498.62	1402
1499.68	1412
1500.74	1398
1501.79	1476
1502.85	1412
1503.91	1406
1504.97	1394
1506.02	1410
1507.08	1398
1508.14	1444
1509.2	1394
1510.25	1434
1511.31	1374
1512.36	1348
1513.42	1368
1514.48	1364
1515.53	1346
1516.59	1348
1517.64	1356
1518.7	1354
1519.75	1328
1520.81	1344
1521.86	1338
1522.92	1344
1523.97	1330
1525.02	1384
1526.08	1334
1527.13	1296
1528.19	1276
1529.24	1280
1530.29	1334
1531.35	1322
1532.4	1358
1533.45	1268
1534.51	1244
1535.56	1276
1536.61	1288
1537.66	1344
1538.72	1256
1539.77	1266
1540.82	1310
1541.87	1258
1542.92	1220
1543.97	1258
1545.02	1240
1546.08	1212
1547.13	1246
1548.18	1268
1549.23	1214
1550.28	1246
1551.33	1224
1552.38	1232
1553.43	1250
1554.48	1218
1555.53	1212
1556.57	1230
1557.62	1142
1558.67	1224
1559.72	1224
1560.77	1206
1561.82	1190
1562.87	1188
1563.92	1220
1564.96	1218
1566.01	1162
1567.06	1238
1568.11	1222
1569.15	1196
1570.2	1150
1571.25	1216
1572.29	1198
1573.34	1142
1574.39	1184
1575.43	1150
1576.48	1152
1577.53	1198
1578.57	1160
1579.62	1130
1580.66	1156
1581.71	1152
1582.75	1116
1583.8	1150
1584.84	1172
1585.89	1144
1586.93	1162
1587.98	1154
1589.02	1170
1590.06	1104
1591.11	1134
1592.15	1100
1593.2	1140
1594.24	1148
1595.28	1164
1596.33	1128
1597.37	1120
1598.41	1124
1599.45	1140
1600.5	1104
1601.54	1132
1602.58	1112
1603.62	1114
1604.66	1136
1605.7	1100
1606.75	1170
1607.79	1138
1608.83	1108
1609.87	1120
1610.91	1112
1611.95	1130
1612.99	1088
1614.03	1090
1615.07	1094
1616.11	1118
1617.15	1106
1618.19	1112
1619.23	1068
1620.27	1078
1621.31	1064
1622.35	1062
1623.39	1042
1624.43	1082
1625.46	1080
1626.5	1106
1627.54	1084
1628.58	1062
1629.62	1106
1630.65	1078
1631.69	1056
1632.73	1106
1633.77	1092
1634.8	1038
1635.84	1030
1636.88	1100
1637.91	1066
1638.95	1034
1639.99	1076
1641.02	1086
1642.06	1038
1643.09	1078
1644.13	1052
1645.16	1094
1646.2	1062
1647.23	1042
1648.27	988
1649.3	1064
1650.34	1014
1651.37	1052
1652.41	1064
1653.44	1058
1654.47	1014
1655.51	1020
1656.54	1034
1657.57	1012
1658.61	1020
1659.64	1032
1660.67	1016
1661.71	1038
1662.74	1034
1663.77	1028
1664.81	998
1665.84	982
1666.87	1008
1667.9	984
1668.93	1010
1669.96	1018
1671	1012
1672.03	1036
1673.06	1006
1674.09	1026
1675.12	990
1676.15	1024
1677.18	974
1678.21	1004
1679.24	988
1680.27	1006
1681.3	1000
1682.33	1018
1683.36	986
1684.39	1000
1685.42	994
1686.45	1012
1687.47	980
1688.5	976
1689.53	976
1690.56	940
1691.59	1030
1692.62	968
1693.64	948
1694.67	938
1695.7	946
1696.73	964
1697.75	988
1698.78	940
1699.81	926
1700.83	970
1701.86	1008
1702.89	958
1703.91	974
1704.94	966
1705.97	954
1706.99	960
1708.02	952
1709.04	988
1710.07	950
1711.09	968
1712.12	986
1713.14	948
1714.17	916
1715.19	946
1716.22	948
1717.24	976
1718.26	924
1719.29	970
1720.31	934
1721.33	964
1722.36	918
1723.38	962
1724.4	926
1725.43	938
1726.45	952
1727.47	926
1728.49	950
1729.52	950
1730.54	932
1731.56	902
1732.58	934
1733.6	940
1734.63	952
1735.65	932
1736.67	924
1737.69	922
1738.71	942
1739.73	932
1740.75	942
1741.77	918
1742.79	934
1743.81	924
1744.83	938
1745.85	912
1746.87	928
1747.89	938
1748.91	918
1749.93	912
1750.95	898
1751.97	928
1752.98	872
1754	940
1755.02	950
1756.04	936
1757.06	920
1758.07	938
1759.09	924
1760.11	906
1761.13	902
1762.14	912
1763.16	900
1764.18	912
1765.19	914
1766.21	940
1767.23	918
1768.24	894
1769.26	928
1770.28	948
1771.29	932
1772.31	898
1773.32	930
1774.34	910
1775.35	938
1776.37	886
1777.38	946
1778.4	896
1779.41	932
1780.43	908
1781.44	918
1782.45	922
1783.47	918
1784.48	888
1785.49	904
1786.51	946
1787.52	934
1788.53	944
1789.55	908
1790.56	916
1791.57	920
1792.58	940
1793.6	858
1794.61	912
1795.62	904
1796.63	912
1797.64	926
1798.66	900
1799.67	894
1800.68	882
1801.69	904
1802.7	914
1803.71	890
1804.72	900
1805.73	894
1806.74	910
1807.75	914
1808.76	888
1809.77	922
1810.78	918
1811.79	906
1812.8	878
1813.81	918
1814.82	904
1815.83	872
1816.84	880
1817.84	876
1818.85	884
1819.86	912
1820.87	880
1821.88	908
1822.88	886
1823.89	868
1824.9	890
1825.91	910
1826.91	890
1827.92	864
1828.93	890
1829.93	872
1830.94	904
1831.95	920
1832.95	910
1833.96	892
1834.97	858
1835.97	910
1836.98	894
1837.98	904
1838.99	870
1839.99	888
1841	886
1842	858
1843.01	928
1844.01	852
1845.02	856
1846.02	886
1847.02	902
1848.03	868
1849.03	876
1850.03	858
1851.04	900
1852.04	882
1853.04	848
1854.05	866
1855.05	868
1856.05	894
1857.05	862
1858.06	856
1859.06	878
1860.06	858
1861.06	874
1862.06	858
1863.07	876
1864.07	832
1865.07	840
1866.07	882
1867.07	908
1868.07	890
1869.07	844
1870.07	890
1871.07	886
1872.07	884
1873.07	876
1874.07	856
1875.07	898
1876.07	876
1877.07	858
1878.07	872
1879.07	876
1880.07	882
1881.07	860
1882.07	840
1883.06	848
1884.06	864
1885.06	868
1886.06	844
1887.06	864
1888.05	864
1889.05	896
1890.05	900
1891.05	896
1892.04	886
1893.04	856
1894.04	886
1895.03	902
1896.03	900
1897.03	834
1898.02	858
1899.02	882
1900.01	890
1901.01	844
1902	890
1903	830
1903.99	858
1904.99	890
1905.98	856
1906.98	856
1907.97	872
1908.97	890
1909.96	862
1910.96	894
1911.95	888
1912.94	894
1913.94	850
1914.93	892
1915.93	888
1916.92	862
1917.91	862
1918.9	888
1919.9	854
1920.89	890
1921.88	852
1922.87	866
1923.87	888
1924.86	894
1925.85	866
1926.84	832
1927.83	872
1928.82	832
1929.82	854
1930.81	836
1931.8	868
1932.79	882
1933.78	868
1934.77	858
1935.76	872
1936.75	836
1937.74	842
1938.73	838
1939.72	872
1940.71	870
1941.7	860
1942.69	860
1943.68	868
1944.67	826
1945.65	864
1946.64	856
1947.63	874
1948.62	854
1949.61	836
1950.6	864
1951.58	856
1952.57	846
1953.56	844
1954.55	840
1955.53	856
1956.52	874
1957.51	886
1958.5	812
1959.48	844
1960.47	844
1961.45	812
1962.44	838
1963.43	860
1964.41	856
1965.4	852
1966.38	846
1967.37	848
1968.35	832
1969.34	870
1970.32	828
1971.31	858
1972.29	842
1973.28	858
1974.26	838
1975.25	868
1976.23	858
1977.22	800
1978.2	834
1979.18	854
1980.17	850
1981.15	876
1982.13	852
1983.12	852
1984.1	894
1985.08	818
1986.06	826
1987.05	862
1988.03	854
1989.01	846
1989.99	810
1990.97	850
1991.96	822
1992.94	838
1993.92	858
1994.9	844
1995.88	834
1996.86	810
1997.84	852
1998.82	794
1999.8	828
2000.78	816
2001.76	850
2002.74	846
2003.72	834
2004.7	854
2005.68	826
2006.66	844
2007.64	832
2008.62	840
2009.6	834
2010.58	810
2011.56	836
2012.54	862
2013.51	834
2014.49	840
2015.47	824
2016.45	850
2017.43	816
2018.4	836
2019.38	842
2020.36	878
2021.34	820
2022.31	796
2023.29	798
2024.27	816
2025.24	798
2026.22	840
2027.2	844
2028.17	840
2029.15	836
2030.12	838
2031.1	810
2032.07	870
2033.05	822
2034.03	836
2035	846
2035.98	846
2036.95	848
2037.93	812
2038.9	852
2039.87	810
2040.85	816
2041.82	828
2042.8	842
2043.77	808
2044.74	828
2045.72	820
2046.69	850
2047.66	844
2048.64	802
2049.61	814
2050.58	808
2051.55	820
2052.53	778
2053.5	836
2054.47	822
2055.44	808
2056.41	822
2057.39	816
2058.36	818
2059.33	802
2060.3	842
2061.27	842
2062.24	814
2063.21	824
2064.18	796
2065.15	800
2066.12	802
2067.09	826
2068.06	828
2069.03	814
2070	792
2070.97	844
2071.94	820
2072.91	826
2073.88	844
2074.85	822
2075.82	826
2076.79	838
2077.76	830
2078.73	810
2079.69	826
2080.66	798
2081.63	820
2082.6	812
2083.56	800
2084.53	804
2085.5	784
2086.47	800
2087.43	834
2088.4	804
2089.37	812
2090.33	802
2091.3	818
2092.27	820
2093.23	812
2094.2	816
2095.17	808
2096.13	818
2097.1	776
2098.06	822
2099.03	816
2099.99	798
2100.96	836
2101.92	796
2102.89	810
2103.85	826
2104.82	824
2105.78	788
2106.74	822
2107.71	818
2108.67	824
2109.64	818
2110.6	808
2111.56	794
2112.53	822
2113.49	796
2114.45	822
2115.41	808
2116.38	816
2117.34	842
2118.3	824
2119.26	814
2120.23	808
2121.19	838
2122.15	830
2123.11	814
2124.07	766
2125.03	836
2126	846
2126.96	796
2127.92	824
2128.88	792
2129.84	852
2130.8	860
2131.76	812
2132.72	798
2133.68	840
2134.64	800
2135.6	822
2136.56	826
2137.52	832
2138.48	842
2139.44	804
2140.4	798
2141.35	824
2142.31	800
2143.27	798
2144.23	814
2145.19	814
2146.15	786
2147.1	804
2148.06	788
2149.02	830
2149.98	822
2150.94	774
2151.89	796
2152.85	808
2153.81	800
2154.76	804
2155.72	794
2156.68	772
2157.63	820
2158.59	780
2159.55	812
2160.5	826
2161.46	816
2162.41	794
2163.37	808
2164.32	782
2165.28	806
2166.23	778
2167.19	780
2168.14	766
2169.1	814
2170.05	788
2171.01	838
2171.96	794
2172.91	824
2173.87	782
2174.82	792
2175.78	798
2176.73	780
2177.68	788
2178.64	788
2179.59	764
2180.54	824
2181.49	796
2182.45	778
2183.4	772
2184.35	822
2185.3	796
2186.26	786
2187.21	814
2188.16	814
2189.11	764
2190.06	796
2191.01	808
2191.96	746
2192.92	774
2193.87	766
2194.82	804
2195.77	814
2196.72	778
2197.67	784
2198.62	798
2199.57	802
2200.52	784
2201.47	782
2202.42	796
2203.37	768
2204.32	820
2205.27	766
2206.22	796
2207.16	778
2208.11	764
2209.06	778
2210.01	768
2210.96	774
2211.91	798
2212.85	804
2213.8	784
2214.75	766
2215.7	796
2216.64	774
2217.59	808
2218.54	774
2219.49	780
2220.43	794
2221.38	786
2222.33	790
2223.27	770.06
2224.22	777.603
2225.16	768.309
2226.11	822.74
2227.06	787.986
2228	770.539
2228.95	774.035
2229.89	758.766
2230.84	775.164
2231.78	763.695
2232.73	796.621
2233.67	766.787
2234.62	783.493
2235.56	777.72
2236.51	779.413
2237.45	773.333
2238.4	783.821
2239.34	767.97
2240.28	775.276
2241.23	795.424
2242.17	787.263
2243.11	782.655
2244.06	770.559
2245	781.202
2245.94	776.272
2246.89	786.495
2247.83	781.17
2248.77	768.317
2249.71	777.097
2250.66	771.391
2251.6	770.642
2252.54	781.75
2253.48	753.202
2254.42	775.629
2255.37	769.72
2256.31	784.696
2257.25	802.35
2258.19	751.969
2259.13	778.682
2260.07	776.741
2261.01	770.524
2261.95	789.184
2262.89	792.49
2263.83	793.46
2264.77	764.124
2265.71	763.99
2266.65	752.451
2267.59	756.972
2268.53	767.456
2269.47	781.802
2270.41	772.375
2271.35	780.373
2272.29	782.424
2273.23	757.557
2274.17	753.82
2275.1	771.925
2276.04	761.485
2276.98	774.61
2277.92	769.583
2278.86	775.89
2279.8	757.278
2280.73	773.702
2281.67	763.859
2282.61	763.697
2283.55	757.393
2284.48	739.868
2285.42	766.846
2286.36	764.306
2287.29	743.792
2288.23	748.469
2289.17	746.712
2290.1	760.204
2291.04	759.5
2291.98	757.589
2292.91	751.625
2293.85	742.625
2294.78	736.619
2295.72	735.855
2296.65	732.819
2297.59	753.7
2298.52	757.12
2299.46	761.021
2300.39	750.944
2301.33	745.65
2302.26	753.684
2303.2	761.492
2304.13	755.473
2305.06	763.642
2306	766.42
2306.93	753.876
2307.87	745.884
2308.8	742.45
2309.73	750.571
2310.67	751.097
2311.6	747.312
2312.53	737.32
2313.46	730.49
2314.4	746.885
2315.33	747.07
2316.26	731.508
2316.69	726
2317.62	730
2318.56	720
2319.5	746
2320.43	758
2321.37	712
2322.31	740
2323.24	720
2324.18	720
2325.12	742
2326.05	736
2326.99	730
2327.92	736
2328.86	756
2329.79	718
2330.73	718
2331.66	758
2332.6	742
2333.53	728
2334.47	718
2335.4	728
2336.34	722
2337.27	738
2338.2	728
2339.14	724
2340.07	740
2341.01	752
2341.94	726
2342.87	706
2343.81	742
2344.74	714
2345.67	722
2346.6	720
2347.54	728
2348.47	690
2349.4	726
2350.33	710
2351.27	672
2352.2	686
2353.13	708
2354.06	700
2354.99	710
2355.93	714
2356.86	710
2357.79	730
2358.72	700
2359.65	724
2360.58	692
2361.51	714
2362.44	722
2363.37	728
2364.3	706
2365.23	710
2366.16	708
2367.09	730
2368.02	688
2368.95	694
2369.88	682
2370.81	678
2371.74	674
2372.67	690
2373.6	700
2374.52	706
2375.45	686
2376.38	712
2377.31	672
2378.24	662
2379.17	678
2380.09	672
2381.02	658
2381.95	708
2382.88	690
2383.8	694
2384.73	680
2385.66	704
2386.58	686
2387.51	686
2388.44	674
2389.36	668
2390.29	668
2391.22	690
2392.14	690
2393.07	666
2393.99	682
2394.92	662
2395.85	650
2396.77	672
2397.7	678
2398.62	670
2399.55	664
2400.47	668
2401.4	708
2402.32	662
2403.25	688
2404.17	638
2405.09	672
2406.02	668
2406.94	670
2407.86	648
2408.79	668
2409.71	684
2410.63	640
2411.56	618
2412.48	644
2413.4	676
2414.33	652
2415.25	616
2416.17	686
2417.09	654
2418.02	670
2418.94	660
2419.86	632
2420.78	646
2421.7	624
2422.63	656
2423.55	630
2424.47	664
2425.39	636
2426.31	596
2427.23	634
2428.15	672
2429.07	650
2429.99	604
2430.91	612
2431.83	612
2432.75	616
2433.67	618
2434.59	610
2435.51	628
2436.43	638
2437.35	614
2438.27	636
2439.19	638
2440.11	640
2441.03	622
2441.95	648
2442.86	634
2443.78	604
2444.7	596
2445.62	616
2446.54	594
2447.46	606
2448.37	618
2449.29	592
2450.21	592
2451.13	614
2452.04	634
2452.96	604
2453.88	596
2454.79	612
2455.71	592
2456.63	644
2457.54	622
2458.46	630
2459.38	614
2460.29	582
2461.21	578
2462.12	616
2463.04	578
2463.95	582
2464.87	602
2465.78	558
2466.7	584
2467.61	604
2468.53	566
2469.44	646
2470.36	582
2471.27	562
2472.19	568
2473.1	588
2474.01	596
2474.93	580
2475.84	586
2476.76	594
2477.67	608
2478.58	572
2479.5	562
2480.41	552
2481.32	546
2482.23	590
2483.15	566
2484.06	550
2484.97	554
2485.88	556
2486.8	570
2487.71	552
2488.62	598
2489.53	572
2490.44	540
2491.35	548
2492.26	544
2493.18	570
2494.09	562
2495	544
2495.91	524
2496.82	542
2497.73	572
2498.64	538
2499.55	548
2500.46	572
2501.37	546
2502.28	534
2503.19	544
2504.1	556
2505.01	514
2505.92	526
2506.83	552
2507.74	560
2508.65	528
2509.55	526
2510.46	528
2511.37	550
2512.28	520
2513.19	542
2514.09	530
2515	526
2515.91	532
2516.82	518
2517.73	512
2518.63	512
2519.54	520
2520.45	530
2521.35	500
2522.26	562
2523.17	498
2524.07	500
2524.98	528
2525.89	512
2526.79	528
2527.7	484
2528.6	524
2529.51	482
2530.42	516
2531.32	502
2532.23	480
2533.13	486
2534.04	534
2534.94	500
2535.85	490
2536.75	502
2537.66	502
2538.56	488
2539.47	482
2540.37	484
2541.27	498
2542.18	498
2543.08	462
2543.98	494
2544.89	486
2545.79	490
2546.7	496
2547.6	488
2548.5	496
2549.4	498
2550.31	486
2551.21	472
2552.11	516
2553.01	468
2553.92	506
2554.82	494
2555.72	468
2556.62	470
2557.52	470
2558.42	484
2559.33	480
2560.23	482
2561.13	512
2562.03	470
2562.93	470
2563.83	468
2564.73	482
2565.63	490
2566.53	498
2567.43	446
2568.33	456
2569.23	476
2570.13	480
2571.03	460
2571.93	468
2572.83	460
2573.73	442
2574.63	478
2575.53	462
2576.43	452
2577.33	438
2578.22	458
2579.12	468
2580.02	438
2580.92	436
2581.82	476
2582.72	446
2583.61	450
2584.51	436
2585.41	446
2586.31	452
2587.2	450
2588.1	406
2589	428
2589.89	440
2590.79	432
2591.69	434
2592.58	430
2593.48	468
2594.38	430
2595.27	436
2596.17	446
2597.06	442
2597.96	416
2598.86	448
2599.75	438
2600.65	454
2601.54	430
2602.44	428
2603.33	418
2604.23	396
2605.12	426
2606.02	418
2606.91	428
2607.81	418
2608.7	430
2609.59	442
2610.49	422
2611.38	434
2612.27	424
2613.17	422
2614.06	408
2614.95	394
2615.85	418
2616.74	412
2617.63	424
2618.53	384
2619.42	398
2620.31	432
2621.2	426
2622.1	422
2622.99	416
2623.88	406
2624.77	422
2625.66	414
2626.55	416
2627.45	388
2628.34	416
2629.23	418
2630.12	406
2631.01	406
2631.9	420
2632.79	400
2633.68	408
2634.57	404
2635.46	404
2636.35	394
2637.24	408
2638.13	404
2639.02	414
2639.91	410
2640.8	378
2641.69	404
2642.58	404
2643.47	364
2644.36	396
2645.25	408
2646.14	386
2647.02	390
2647.91	406
2648.8	384
2649.69	396
2650.58	374
2651.46	378
2652.35	402
2653.24	412
2654.13	380
2655.01	372
2655.9	388
2656.79	382
2657.68	368
2658.56	400
2659.45	382
2660.34	364
2661.22	376
2662.11	358
2662.99	384
2663.88	368
2664.77	354
2665.65	366
2666.54	368
2667.42	364
2668.31	372
2669.2	354
2670.08	382
2670.96	358
2671.85	368
2672.73	376
2673.62	374
2674.5	358
2675.39	348
2676.27	368
2677.16	382
2678.04	368
2678.93	372
2679.81	364
2680.69	370
2681.58	332
2682.46	362
2683.34	346
2684.23	344
2685.11	344
2685.99	372
2686.87	346
2687.76	336
2688.64	374
2689.52	348
2690.4	354
2691.28	358
2692.17	344
2693.05	340
2693.93	338
2694.81	332
2695.69	346
2696.57	362
2697.46	314
2698.34	334
2699.22	354
2700.1	354
2700.98	316
2701.86	342
2702.74	322
2703.62	354
2704.5	330
2705.38	338
2706.26	350
2707.14	320
2708.02	348
2708.9	358
2709.78	342
2710.66	338
2711.54	324
2712.42	322
2713.3	328
2714.17	322
2715.05	344
2715.93	314
2716.81	326
2717.69	342
2718.57	338
2719.44	322
2720.32	338
2721.2	328
2722.08	316
2722.95	338
2723.83	328
2724.71	320
2725.59	320
2726.46	308
2727.34	308
2728.22	316
2729.09	310
2729.97	316
2730.85	312
2731.72	322
2732.6	320
2733.47	298
2734.35	306
2735.23	314
2736.1	312
2736.98	288
2737.85	290
2738.73	304
2739.6	316
2740.48	314
2741.35	310
2742.23	302
2743.1	310
2743.98	276
2744.85	302
2745.72	296
2746.6	288
2747.47	276
2748.35	300
2749.22	324
2750.09	300
2750.97	294
2751.84	294
2752.71	280
2753.59	308
2754.46	278
2755.33	276
2756.2	284
2757.08	290
2757.95	270
2758.82	288
2759.69	274
2760.57	282
2761.44	270
2762.31	278
2763.18	272
2764.05	286
2764.92	280
2765.79	274
2766.67	288
2767.54	264
2768.41	270
2769.28	280
2770.15	290
2771.02	256
2771.89	282
2772.76	272
2773.63	280
2774.5	264
2775.37	270
2776.24	292
2777.11	256
2777.98	282
2778.85	272
2779.72	276
2780.59	268
2781.46	260
2782.32	284
2783.19	260
2784.06	272
2784.93	252
2785.8	256
2786.67	260
2787.53	248
2788.4	258
2789.27	262
2790.14	250
2791.01	270
2791.87	256
2792.74	266
2793.61	252
2794.47	232
2795.34	248
2796.21	254
2797.07	234
2797.94	260
2798.81	258
2799.67	244
2800.54	254
2801.41	240
2802.27	252
2803.14	270
2804	248
2804.87	262
2805.74	240
2806.6	258
2807.47	230
2808.33	252
2809.2	246
2810.06	252
2810.93	250
2811.79	238
2812.65	254
2813.52	232
2814.38	246
2815.25	218
2816.11	228
2816.98	240
2817.84	240
2818.7	242
2819.56	240
2820.43	252
2821.29	228
2822.16	236
2823.02	232
2823.88	240
2824.74	224
2825.61	216
2826.47	250
2827.33	220
2828.19	230
2829.05	218
2829.92	202
2830.78	244
2831.64	214
2832.5	226
2833.36	230
2834.23	246
2835.09	206
2835.95	226
2836.81	238
2837.67	216
2838.53	244
2839.39	228
2840.25	226
2841.11	238
2841.97	238
2842.83	218
2843.69	210
2844.55	216
2845.41	228
2846.27	218
2847.13	200
2847.99	222
2848.85	194
2849.71	202
2850.57	198
2851.43	216
2852.28	212
2853.14	216
2854	210
2854.86	216
2855.72	192
2856.58	204
2857.43	206
2858.29	208
2859.15	204
2860.01	202
2860.86	192
2861.72	210
2862.58	220
2863.44	204
2864.29	204
2865.15	212
2866.01	178
2866.86	180
2867.72	202
2868.58	192
2869.43	190
2870.29	190
2871.14	192
2872	198
2872.86	202
2873.71	204
2874.57	206
2875.42	184
2876.28	188
2877.13	198
2877.99	212
2878.84	216
2879.7	188
2880.55	182
2881.41	188
2882.26	182
2883.11	210
2883.97	186
2884.82	184
2885.68	208
2886.53	198
2887.39	178
2888.24	188
2889.09	198
2889.94	186
2890.8	186
2891.65	200
2892.5	166
2893.36	164
2894.21	186
2895.06	178
2895.91	194
2896.77	186
2897.62	178
2898.47	188
2899.32	186
2900.17	186
2901.03	184
2901.88	200
2902.73	184
2903.58	178
2904.43	188
2905.28	198
2906.13	176
2906.98	172
2907.84	174
2908.69	180
2909.54	186
2910.39	176
2911.24	168
2912.09	188
2912.94	182
2913.79	180
2914.64	190
2915.49	162
2916.34	180
2917.19	176
2918.03	184
2918.88	186
2919.73	168
2920.58	160
2921.43	180
2922.28	168
2923.13	180
2923.98	178
2924.82	176
2925.67	166
2926.52	176
2927.37	178
2928.22	184
2929.06	162
2929.91	158
2930.76	168
2931.61	180
2932.45	162
2933.3	174
2934.15	170
2934.99	164
2935.84	166
2936.69	168
2937.53	162
2938.38	172
2939.23	160
2940.07	156
2940.92	158
2941.76	170
2942.61	156
2943.46	156
2944.3	158
2945.15	164
2945.99	164
2946.84	184
2947.68	166
2948.53	158
2949.37	164
2950.22	152
2951.06	168
2951.9	168
2952.75	156
2953.59	152
2954.44	164
2955.28	148
2956.12	156
2956.97	166
2957.81	156
2958.65	146
2959.5	168
2960.34	154
2961.18	156
2962.03	160
2962.87	162
2963.71	152
2964.56	136
2965.4	152
2966.24	156
2967.08	162
2967.92	150
2968.77	152
2969.61	158
2970.45	146
2971.29	160
2972.13	176
2972.97	144
2973.82	156
2974.66	146
2975.5	138
2976.34	148
2977.18	132
2978.02	140
2978.86	154
2979.7	152
2980.54	152
2981.38	136
2982.22	158
2983.06	146
2983.9	146
2984.74	152
2985.58	152
2986.42	134
2987.26	132
2988.1	142
2988.94	148
2989.78	150
2990.61	144
2991.45	142
2992.29	154
2993.13	144
2993.97	150
2994.81	144
2995.64	136
2996.48	144
2997.32	132
2998.16	160
2999	148
2999.83	148
