#Acq. time (s)=	10
#Accumulations=	2
#Range (cm-¹)=	100...2000
#Windows=	2
#Autofocus=	Off
#AutoExposure=	Off
#Spike filter=	Multiple accum.
#Delay time (s)=	0
#Binning=	1
#Readout mode=	Signal
#DeNoise=	Off
#ICS correction=	Off
#Dark correction=	Off
#Inst. Process=	Off
#Instrument=	LabRAM HR Evol
#Detector=	Syncerity OE
#Objective=	x100_VIS_LWD
#Grating=	600 (500nm)
#ND Filter=	50%
#Laser=	633nm_Edge
#Hole=	100.021
#Range=	Visible
#Project=	LIG
#Sample=	proof
#Site=	
#Title=	fproof
#Remark=	
#Date=	07.03.2023 12:41
#Acquired=	07.03.2023 12:41:40
101.054	124
102.338	126
103.621	124
104.904	122
106.187	124
107.471	122
108.753	124
110.036	120
111.317	122
112.599	104
113.881	108
115.162	112
116.443	116
117.724	120
119.005	120
120.285	114
121.566	116
122.846	130
124.126	126
125.405	140
126.685	114
127.964	142
129.243	118
130.522	124
131.801	112
133.079	122
134.357	110
135.635	142
136.911	116
138.189	122
139.466	124
140.744	116
142.021	112
143.297	120
144.574	114
145.85	124
147.126	114
148.401	120
149.676	112
150.952	110
152.227	114
153.502	114
154.777	114
156.05	112
157.325	106
158.599	122
159.873	118
161.147	114
162.419	116
163.693	118
164.966	120
166.239	112
167.51	118
168.783	116
170.055	130
171.327	116
172.598	112
173.869	116
175.141	120
176.411	118
177.682	116
178.953	114
180.222	124
181.493	104
182.763	106
184.032	126
185.302	112
186.571	120
187.839	124
189.109	104
190.378	118
191.645	112
192.914	116
194.181	110
195.449	108
196.716	114
197.983	126
199.251	102
200.517	108
201.784	122
203.05	114
204.317	116
205.582	118
206.848	102
208.113	110
209.379	116
210.643	126
211.909	112
213.173	102
214.438	118
215.701	118
216.966	120
218.229	116
219.493	112
220.756	120
222.019	120
223.282	134
224.544	116
225.808	118
227.069	126
228.331	132
229.594	122
230.855	112
232.117	110
233.378	130
234.638	122
235.9	112
237.16	120
238.419	118
239.68	122
240.94	108
242.199	110
243.46	114
244.718	118
245.977	114
247.235	110
248.495	106
249.753	128
251.011	112
252.268	124
253.527	110
254.784	108
256.041	114
257.298	108
258.556	124
259.812	108
261.068	120
262.324	114
263.58	128
264.837	124
266.092	128
267.348	108
268.603	116
269.857	108
271.112	110
272.366	120
273.622	110
274.876	122
276.129	122
277.383	108
278.636	124
279.889	110
281.142	116
282.395	120
283.647	112
284.9	120
286.152	116
287.404	122
288.655	110
289.907	122
291.158	108
292.409	112
293.66	110
294.911	110
296.161	114
297.411	108
298.661	116
299.911	128
301.161	126
302.41	112
303.66	116
304.909	126
306.158	102
307.406	114
308.655	120
309.903	128
311.151	116
312.397	114
313.645	128
314.893	132
316.14	126
317.387	110
318.634	104
319.88	110
321.125	106
322.372	120
323.618	112
324.864	106
326.109	116
327.353	116
328.598	120
329.844	114
331.088	108
332.333	108
333.576	112
334.82	128
336.064	104
337.308	126
338.55	100
339.794	128
341.037	112
342.279	120
343.521	124
344.764	124
346.005	128
347.247	114
348.489	136
349.73	106
350.971	122
352.213	118
353.453	110
354.694	108
355.935	120
357.174	120
358.414	120
359.653	112
360.893	126
362.133	114
363.371	106
364.611	114
365.848	106
367.087	120
368.325	112
369.564	118
370.801	122
372.039	114
373.275	104
374.513	120
375.75	118
376.987	126
378.223	110
379.46	130
380.695	122
381.932	112
383.167	122
384.403	114
385.638	106
386.872	126
388.108	110
389.342	112
390.577	118
391.811	122
393.044	112
394.279	114
395.512	122
396.747	112
397.979	116
399.212	108
400.445	118
401.677	114
402.909	112
404.142	128
405.374	116
406.605	118
407.836	124
409.069	132
410.299	112
411.53	122
412.762	118
413.992	118
415.221	110
416.451	116
417.681	126
418.911	124
420.141	112
421.369	124
422.598	112
423.827	110
425.057	112
426.285	114
427.513	122
428.74	122
429.968	116
431.195	126
432.424	120
433.651	110
434.878	122
436.104	122
437.33	120
438.557	126
439.783	130
441.008	124
442.234	114
443.459	126
444.685	120
445.91	120
447.136	124
448.36	116
449.585	138
450.809	116
452.033	124
453.257	118
454.48	118
455.704	120
456.927	114
458.15	124
459.372	120
460.594	116
461.817	122
463.039	114
464.261	112
465.483	128
466.705	110
467.926	116
469.147	110
470.369	116
471.589	120
472.809	126
474.029	122
475.25	106
476.47	114
477.69	116
478.909	108
480.129	112
481.347	116
482.566	114
483.785	116
485.004	116
486.221	106
487.439	114
488.657	122
489.875	102
491.093	114
492.309	104
493.527	114
494.744	112
495.96	104
497.176	112
498.393	102
499.61	112
500.824	106
502.04	116
503.256	110
504.471	110
505.686	110
506.901	104
508.115	118
509.33	116
510.543	120
511.758	100
512.972	116
514.185	118
515.399	104
516.611	118
517.825	110
519.038	118
520.25	110
521.463	118
522.674	120
523.887	114
525.097	118
526.31	124
527.52	106
528.732	116
529.942	116
531.154	118
532.364	106
533.575	114
534.784	114
535.995	114
537.204	118
538.413	100
539.623	96
540.831	106
542.041	108
543.249	110
544.458	108
545.666	114
546.874	110
548.082	104
549.289	118
550.496	124
551.705	98
552.911	98
554.118	124
555.325	128
556.531	100
557.737	114
558.944	104
560.149	112
561.355	114
562.56	94
563.766	128
564.971	114
566.175	100
567.379	108
568.585	114
569.789	118
570.992	122
572.196	122
573.401	126
574.604	96
575.807	108
577.01	104
578.212	112
579.414	108
580.618	102
581.82	106
583.022	114
584.224	124
585.425	108
586.626	110
587.827	116
589.028	116
590.229	124
591.429	122
592.631	114
593.831	128
595.031	116
596.231	116
597.43	102
598.63	110
599.829	120
601.028	108
602.226	102
603.425	112
604.623	118
605.822	126
607.02	108
608.217	106
609.415	102
610.613	120
611.808	116
613.005	108
614.202	110
615.399	110
616.596	128
617.792	120
618.988	116
620.184	120
621.38	122
622.574	118
623.769	120
624.964	112
626.159	108
627.354	112
628.549	114
629.742	116
630.936	110
632.13	118
633.324	114
634.518	116
635.71	114
636.903	120
638.096	120
639.289	110
640.481	122
641.673	120
642.866	120
644.058	126
645.248	122
646.44	110
647.632	116
648.822	122
650.013	120
651.204	140
652.394	114
653.584	128
654.773	118
655.964	118
657.154	112
658.342	120
659.532	120
660.722	108
661.91	120
663.099	110
664.286	100
665.475	120
666.663	106
667.851	124
669.038	112
670.226	114
671.412	114
672.6	118
673.786	116
674.974	120
676.159	110
677.346	110
678.532	110
679.718	126
680.903	128
682.089	134
683.274	126
684.46	112
685.644	100
686.828	122
688.014	112
689.197	134
690.382	118
691.565	126
692.749	108
693.933	112
695.116	112
696.298	106
697.482	116
698.664	126
699.846	128
701.03	118
702.211	116
703.393	126
704.574	120
705.757	118
706.938	126
708.118	116
709.299	122
710.481	110
711.661	114
712.841	114
714.021	118
715.202	120
716.381	120
717.56	120
718.739	128
719.918	124
721.097	120
722.277	114
723.455	120
724.633	124
725.811	122
726.989	118
728.167	126
729.344	116
730.521	120
731.698	126
732.877	122
734.053	116
735.23	106
736.406	122
737.582	112
738.758	110
739.934	126
741.11	128
742.285	120
743.46	122
744.635	120
745.81	118
746.985	114
748.159	116
749.334	120
750.508	122
751.682	124
752.854	102
754.028	118
755.201	124
756.374	118
757.547	126
758.72	108
759.893	110
761.065	128
762.237	138
763.408	126
764.58	126
765.752	120
766.923	128
768.095	106
769.266	110
770.436	116
771.606	104
772.777	138
773.948	124
775.116	120
776.287	128
777.456	134
778.626	114
779.794	114
780.964	110
782.133	124
783.301	116
784.469	118
785.638	120
786.806	132
787.973	118
789.141	118
790.309	126
791.476	114
792.643	112
793.809	124
794.977	122
796.143	120
797.309	116
798.476	120
799.641	114
800.807	132
801.973	116
803.138	118
804.303	120
805.468	122
806.633	120
807.797	110
808.962	124
810.125	114
811.29	124
812.453	126
813.617	116
814.78	124
815.944	132
817.106	124
818.268	114
819.432	118
820.594	114
821.757	114
822.918	100
824.081	124
825.242	124
826.403	124
827.565	128
828.726	122
829.886	122
831.048	110
832.208	122
833.368	114
834.529	118
835.688	130
836.847	108
838.008	116
839.167	122
840.326	120
841.484	116
842.644	108
843.802	128
844.96	104
846.118	122
847.277	118
848.435	132
849.592	128
850.749	120
851.906	112
853.065	120
854.221	122
855.378	108
856.534	140
857.69	114
858.846	116
860.002	116
861.159	128
862.314	114
863.469	122
864.624	118
865.779	116
866.934	124
868.088	126
869.242	114
870.396	118
871.55	114
872.704	128
873.858	112
875.011	122
876.164	126
877.318	104
878.47	128
879.623	128
880.776	118
881.928	122
883.08	120
884.232	120
885.384	126
886.536	110
887.687	114
888.838	120
889.988	126
891.139	110
892.29	122
893.44	128
894.591	120
895.741	102
896.891	122
898.039	102
899.189	122
900.339	104
901.488	116
902.637	118
903.785	124
904.933	118
906.082	118
907.231	112
908.377	112
909.526	104
910.673	124
911.821	128
912.967	122
914.115	122
915.262	106
916.408	114
917.554	108
918.701	122
919.846	114
920.993	134
922.139	122
923.283	134
924.429	118
925.575	108
926.719	116
927.864	114
929.008	120
930.153	134
931.297	108
932.441	118
933.585	126
934.728	112
935.872	124
937.014	114
938.158	124
939.3	114
940.444	116
941.585	124
942.728	126
943.87	136
945.012	118
946.154	118
947.296	122
948.437	116
949.577	124
950.719	110
951.859	122
953	114
954.14	126
955.28	114
956.421	124
957.56	118
958.699	114
959.84	132
960.979	126
962.117	136
963.257	126
964.395	134
965.533	136
966.673	138
967.81	112
968.948	114
970.086	122
971.224	120
972.361	112
973.498	104
974.635	122
975.773	124
976.909	124
978.045	120
979.181	108
980.317	122
981.453	134
982.59	124
983.725	130
984.86	138
985.995	124
987.13	138
988.265	132
989.399	116
990.533	118
991.669	114
992.803	134
993.937	130
995.07	128
996.204	116
997.337	128
998.47	114
999.603	128
1000.74	136
1001.87	118
1003	122
1004.13	114
1005.26	128
1006.4	124
1007.53	132
1008.66	128
1009.79	128
1010.92	112
1012.05	132
1013.18	134
1014.31	136
1015.44	136
1016.57	132
1017.7	118
1018.83	128
1019.96	130
1021.09	122
1022.22	120
1023.35	128
1024.48	122
1025.61	122
1026.74	116
1027.87	130
1028.99	134
1030.12	130
1031.25	124
1032.38	122
1033.5	138
1034.63	134
1035.76	150
1036.88	152
1038.01	140
1039.14	126
1040.26	128
1041.39	136
1042.52	130
1043.64	122
1044.77	134
1045.89	132
1047.02	142
1048.14	136
1049.27	148
1050.39	134
1051.52	142
1052.64	144
1053.77	138
1054.89	136
1056.01	136
1057.14	132
1058.26	130
1059.38	138
1060.51	158
1061.63	146
1062.75	142
1063.87	140
1065	142
1066.12	136
1067.24	146
1068.36	134
1069.48	150
1070.6	156
1071.73	146
1072.85	134
1073.97	132
1075.09	146
1076.21	132
1077.33	144
1078.45	144
1079.57	160
1080.69	132
1081.81	154
1082.93	152
1084.05	144
1085.16	130
1086.28	144
1087.4	150
1088.52	140
1089.64	152
1090.76	150
1091.87	146
1092.99	152
1094.11	136
1095.23	150
1096.34	150
1097.46	146
1098.58	144
1099.69	146
1100.81	138
1101.93	154
1103.04	156
1104.16	150
1105.27	128
1106.39	150
1107.51	138
1108.62	150
1109.74	156
1110.85	156
1111.96	144
1113.08	144
1114.19	164
1115.31	152
1116.42	158
1117.53	148
1118.65	142
1119.76	136
1120.87	142
1121.99	166
1123.1	140
1124.21	164
1125.32	156
1126.44	154
1127.55	148
1128.66	150
1129.77	154
1130.88	150
1132	138
1133.11	168
1134.22	162
1135.33	158
1136.44	158
1137.55	172
1138.66	156
1139.77	158
1140.88	158
1141.99	172
1143.1	166
1144.21	168
1145.32	166
1146.43	168
1147.54	164
1148.64	168
1149.75	164
1150.86	184
1151.97	180
1153.08	160
1154.18	166
1155.29	170
1156.4	182
1157.51	174
1158.61	176
1159.72	180
1160.83	160
1161.93	186
1163.04	158
1164.14	174
1165.25	186
1166.36	162
1167.46	170
1168.57	174
1169.67	164
1170.78	172
1171.88	192
1172.99	166
1174.09	180
1175.2	182
1176.3	166
1177.4	196
1178.51	174
1179.61	178
1180.71	188
1181.82	172
1182.92	192
1184.02	182
1185.13	186
1186.23	176
1187.33	198
1188.43	174
1189.53	182
1190.64	182
1191.74	182
1192.84	180
1193.94	178
1195.04	204
1196.14	204
1197.24	192
1198.34	198
1199.45	204.34
1200.54	199.073
1201.64	192.164
1202.75	187.345
1203.84	181.904
1204.94	192.528
1206.04	204.815
1207.14	196.176
1208.24	193.976
1209.34	208.2
1210.44	188.723
1211.54	212.291
1212.64	199.186
1213.73	206.311
1214.83	194.441
1215.93	198.551
1217.03	204.35
1218.12	202.389
1219.22	223.17
1220.32	220.4
1221.41	209.432
1222.51	220.749
1223.61	226.652
1224.7	222.036
1225.8	222.456
1226.9	212.315
1227.99	219.533
1229.09	226.625
1230.18	227.638
1231.28	234.579
1232.37	242.29
1233.47	237.347
1234.56	227.532
1235.66	238.59
1236.75	234.64
1237.84	249.308
1238.94	252.982
1240.03	246.668
1241.13	240.111
1242.22	252.49
1243.31	255.094
1244.41	257.774
1245.5	262.723
1246.59	261.054
1247.68	262.585
1248.78	267.516
1249.87	278.125
1250.96	266.025
1252.05	281.897
1253.14	277.119
1254.24	279.767
1255.33	283.833
1256.42	282.497
1257.51	283.279
1258.6	286.996
1259.69	276.55
1260.78	288.734
1261.87	292.257
1262.96	293.24
1264.05	297.45
1265.14	315.335
1266.23	300.971
1267.32	309
1268.41	312.679
1269.5	325.543
1270.59	331.158
1271.67	330.932
1272.76	327.936
1273.85	328.212
1274.94	340.221
1276.03	333.146
1277.12	355.093
1278.2	337.589
1279.29	348.848
1280.38	361.758
1281.47	349.021
1282.55	346.376
1283.64	341.006
1284.72	350.766
1285.81	363.337
1286.9	361.552
1287.98	365.28
1289.07	364.123
1290.16	366.843
1291.24	378.395
1292.33	371.289
1293.41	375.872
1294.5	366.66
1295.58	386.244
1296.67	389.217
1297.75	392.512
1298.83	405.376
1299.92	419.219
1301	416.009
1302.09	410.903
1303.17	404.195
1304.25	408
1305.34	385.959
1306.42	417.973
1307.5	419.887
1308.44	412
1309.53	422
1310.61	418
1311.7	384
1312.79	428
1313.88	432
1314.97	424
1316.05	430
1317.14	406
1318.23	438
1319.31	400
1320.4	428
1321.48	422
1322.57	438
1323.66	410
1324.74	430
1325.83	406
1326.91	420
1328	406
1329.08	420
1330.17	418
1331.25	430
1332.34	398
1333.42	418
1334.5	420
1335.59	410
1336.67	420
1337.75	418
1338.84	398
1339.92	422
1341	418
1342.09	412
1343.17	426
1344.25	410
1345.33	384
1346.42	400
1347.5	430
1348.58	416
1349.66	396
1350.74	388
1351.83	404
1352.91	396
1353.99	390
1355.07	398
1356.15	388
1357.23	398
1358.31	396
1359.39	384
1360.47	402
1361.55	396
1362.63	386
1363.71	386
1364.79	364
1365.87	368
1366.94	388
1368.02	392
1369.1	404
1370.18	378
1371.26	356
1372.34	388
1373.41	374
1374.49	368
1375.57	392
1376.65	372
1377.72	356
1378.8	376
1379.88	340
1380.95	368
1382.03	388
1383.11	356
1384.18	374
1385.26	364
1386.33	356
1387.41	350
1388.48	340
1389.56	340
1390.64	344
1391.71	360
1392.79	358
1393.86	346
1394.93	318
1396.01	346
1397.08	350
1398.16	336
1399.23	328
1400.3	330
1401.38	358
1402.45	348
1403.52	326
1404.6	338
1405.67	332
1406.74	320
1407.81	310
1408.89	322
1409.96	310
1411.03	330
1412.1	316
1413.17	314
1414.24	326
1415.32	316
1416.39	316
1417.46	302
1418.53	304
1419.6	314
1420.67	308
1421.74	310
1422.81	322
1423.88	310
1424.95	306
1426.02	300
1427.09	306
1428.16	316
1429.23	298
1430.29	328
1431.36	298
1432.43	310
1433.5	304
1434.57	308
1435.64	308
1436.7	292
1437.77	316
1438.84	298
1439.91	296
1440.97	298
1442.04	304
1443.11	294
1444.17	300
1445.24	294
1446.31	268
1447.37	282
1448.44	296
1449.5	302
1450.57	292
1451.64	302
1452.7	290
1453.77	296
1454.83	298
1455.9	270
1456.96	296
1458.02	294
1459.09	278
1460.15	298
1461.22	298
1462.28	282
1463.34	268
1464.41	282
1465.47	278
1466.53	292
1467.6	288
1468.66	292
1469.72	292
1470.78	296
1471.85	296
1472.91	270
1473.97	304
1475.03	296
1476.09	290
1477.16	282
1478.22	292
1479.28	286
1480.34	290
1481.4	282
1482.46	300
1483.52	296
1484.58	294
1485.64	288
1486.7	280
1487.76	284
1488.82	296
1489.88	284
1490.94	286
1492	296
1493.06	296
1494.11	278
1495.17	282
1496.23	290
1497.29	290
1498.35	288
1499.41	276
1500.46	290
1501.52	284
1502.58	288
1503.64	280
1504.69	300
1505.75	292
1506.81	292
1507.86	306
1508.92	294
1509.98	292
1511.03	286
1512.09	298
1513.14	308
1514.2	276
1515.25	296
1516.31	298
1517.36	302
1518.42	318
1519.47	298
1520.53	290
1521.58	280
1522.64	292
1523.69	292
1524.74	314
1525.8	312
1526.85	306
1527.91	298
1528.96	302
1530.01	318
1531.07	298
1532.12	314
1533.17	342
1534.22	312
1535.27	292
1536.33	302
1537.38	320
1538.43	334
1539.48	312
1540.53	310
1541.58	306
1542.64	318
1543.69	318
1544.74	334
1545.79	298
1546.84	310
1547.89	314
1548.94	332
1549.99	332
1551.04	312
1552.09	320
1553.14	310
1554.19	324
1555.24	332
1556.28	344
1557.33	332
1558.38	346
1559.43	314
1560.48	352
1561.53	352
1562.57	344
1563.62	348
1564.67	354
1565.72	352
1566.76	356
1567.81	336
1568.86	362
1569.91	374
1570.95	350
1572	356
1573.05	352
1574.09	376
1575.14	344
1576.18	346
1577.23	374
1578.27	358
1579.32	366
1580.36	356
1581.41	380
1582.45	372
1583.5	378
1584.54	352
1585.59	366
1586.63	360
1587.68	350
1588.72	360
1589.76	378
1590.81	368
1591.85	346
1592.89	346
1593.94	354
1594.98	360
1596.02	338
1597.06	362
1598.11	352
1599.15	334
1600.19	338
1601.23	342
1602.27	314
1603.32	312
1604.36	320
1605.4	334
1606.44	324
1607.48	314
1608.52	306
1609.56	300
1610.6	300
1611.64	296
1612.68	310
1613.72	306
1614.76	292
1615.8	280
1616.84	290
1617.88	288
1618.92	260
1619.96	262
1621	266
1622.04	258
1623.07	280
1624.11	250
1625.15	246
1626.19	266
1627.23	246
1628.26	246
1629.3	236
1630.34	242
1631.38	242
1632.41	250
1633.45	238
1634.49	220
1635.52	222
1636.56	216
1637.59	220
1638.63	222
1639.67	218
1640.7	200
1641.74	222
1642.77	222
1643.81	202
1644.84	194
1645.88	206
1646.91	202
1647.95	204
1648.98	202
1650.02	200
1651.05	200
1652.08	214
1653.12	184
1654.15	196
1655.18	188
1656.22	186
1657.25	188
1658.28	184
1659.32	186
1660.35	182
1661.38	196
1662.41	192
1663.45	184
1664.48	190
1665.51	176
1666.54	160
1667.57	176
1668.6	166
1669.64	174
1670.67	166
1671.7	176
1672.73	180
1673.76	178
1674.79	162
1675.82	178
1676.85	158
1677.88	150
1678.91	164
1679.94	162
1680.97	178
1682	166
1683.03	174
1684.05	170
1685.08	172
1686.11	154
1687.14	166
1688.17	158
1689.2	160
1690.22	152
1691.25	152
1692.28	158
1693.31	150
1694.33	152
1695.36	156
1696.39	148
1697.42	150
1698.44	152
1699.47	142
1700.49	156
1701.52	154
1702.55	154
1703.57	146
1704.6	156
1705.63	152
1706.65	148
1707.68	152
1708.7	156
1709.72	148
1710.75	152
1711.77	152
1712.8	152
1713.82	142
1714.85	138
1715.87	144
1716.89	144
1717.92	152
1718.94	136
1719.97	148
1720.99	136
1722.01	156
1723.03	146
1724.06	134
1725.08	150
1726.1	146
1727.12	132
1728.15	142
1729.17	144
1730.19	148
1731.21	146
1732.23	138
1733.25	156
1734.27	144
1735.3	148
1736.32	138
1737.34	138
1738.36	136
1739.38	122
1740.4	144
1741.42	136
1742.44	130
1743.46	146
1744.48	142
1745.5	132
1746.51	130
1747.53	136
1748.55	142
1749.57	126
1750.59	138
1751.61	132
1752.63	138
1753.64	140
1754.66	134
1755.68	126
1756.7	124
1757.72	132
1758.73	134
1759.75	140
1760.77	132
1761.78	122
1762.8	136
1763.82	134
1764.83	132
1765.85	146
1766.86	132
1767.88	124
1768.9	142
1769.91	140
1770.93	138
1771.94	130
1772.96	146
1773.97	128
1774.99	138
1776	138
1777.02	144
1778.03	134
1779.04	136
1780.06	130
1781.07	128
1782.09	140
1783.1	128
1784.11	136
1785.13	132
1786.14	142
1787.15	128
1788.16	130
1789.18	144
1790.19	136
1791.2	136
1792.21	134
1793.23	130
1794.24	124
1795.25	128
1796.26	136
1797.27	138
1798.28	136
1799.29	130
1800.3	134
1801.31	136
1802.33	132
1803.34	136
1804.35	124
1805.36	132
1806.37	138
1807.38	128
1808.38	120
1809.39	138
1810.4	122
1811.41	120
1812.42	118
1813.43	128
1814.44	130
1815.45	132
1816.46	122
1817.46	132
1818.47	118
1819.48	134
1820.49	130
1821.49	126
1822.5	132
1823.51	130
1824.52	122
1825.52	130
1826.53	126
1827.54	130
1828.54	126
1829.55	126
1830.56	126
1831.56	124
1832.57	122
1833.57	122
1834.58	130
1835.58	122
1836.59	136
1837.59	128
1838.6	130
1839.6	122
1840.61	120
1841.61	126
1842.62	122
1843.62	136
1844.62	128
1845.63	126
1846.63	132
1847.64	102
1848.64	122
1849.64	122
1850.64	134
1851.65	120
1852.65	132
1853.65	128
1854.66	134
1855.66	126
1856.66	110
1857.66	122
1858.66	124
1859.66	120
1860.67	126
1861.67	130
1862.67	124
1863.67	134
1864.67	120
1865.67	120
1866.67	130
1867.67	122
1868.67	120
1869.67	124
1870.67	128
1871.67	120
1872.67	124
1873.67	132
1874.67	126
1875.67	132
1876.67	126
1877.67	118
1878.67	116
1879.66	120
1880.66	108
1881.66	128
1882.66	122
1883.66	132
1884.65	126
1885.65	122
1886.65	114
1887.65	130
1888.64	126
1889.64	112
1890.64	128
1891.63	130
1892.63	118
1893.63	106
1894.62	124
1895.62	118
1896.62	110
1897.61	126
1898.61	122
1899.6	116
1900.6	120
1901.59	114
1902.59	122
1903.58	128
1904.58	120
1905.57	120
1906.57	118
1907.56	134
1908.55	122
1909.55	130
1910.54	114
1911.53	126
1912.53	124
1913.52	134
1914.52	120
1915.51	122
1916.5	128
1917.49	128
1918.49	128
1919.48	116
1920.47	124
1921.46	118
1922.45	122
1923.45	120
1924.44	116
1925.43	116
1926.42	126
1927.41	118
1928.4	118
1929.39	118
1930.38	124
1931.37	124
1932.36	118
1933.36	128
1934.35	120
1935.33	110
1936.33	122
1937.31	126
1938.3	112
1939.29	114
1940.28	114
1941.27	116
1942.26	112
1943.25	128
1944.24	118
1945.23	122
1946.21	120
1947.2	132
1948.19	126
1949.18	124
1950.17	118
1951.15	116
1952.14	114
1953.13	116
1954.11	118
1955.1	118
1956.09	132
1957.08	114
1958.06	106
1959.05	120
1960.03	120
1961.02	128
1962.01	118
1962.99	122
1963.98	126
1964.96	110
1965.95	100
1966.93	120
1967.92	124
1968.9	120
1969.89	114
1970.87	116
1971.86	118
1972.84	114
1973.82	122
1974.81	126
1975.79	124
1976.77	122
1977.76	108
1978.74	118
1979.72	114
1980.71	106
1981.69	112
1982.67	120
1983.66	118
1984.64	108
1985.62	116
1986.6	120
1987.58	126
1988.57	126
1989.55	116
1990.53	110
1991.51	116
1992.49	114
1993.47	112
1994.45	112
1995.43	122
1996.41	116
1997.39	126
1998.37	112
1999.35	116
