#Acq. time (s)=	10
#Accumulations=	1
#Range (cm-¹)=	100...2000
#Windows=	2
#Autofocus=	Off
#AutoExposure=	Off
#Spike filter=	Off
#Delay time (s)=	0
#Binning=	1
#Readout mode=	Signal
#DeNoise=	Off
#ICS correction=	Off
#Dark correction=	Off
#Inst. Process=	Off
#Instrument=	LabRAM HR Evol
#Detector=	Syncerity OE
#Objective=	x100_VIS_LWD
#Grating=	600 (500nm)
#ND Filter=	100%
#Laser=	633nm_Edge
#Hole=	39.9962
#Range=	Visible
#Project=	LIG
#Sample=	proof
#Site=	
#Title=	fproof
#Remark=	
#Date=	07.03.2023 12:17
#Acquired=	07.03.2023 12:17:46
101.054	98
102.338	102
103.621	98
104.904	98
106.187	104
107.471	104
108.753	104
110.036	102
111.317	92
112.599	90
113.881	94
115.162	100
116.443	88
117.724	92
119.005	116
120.285	92
121.566	88
122.846	102
124.126	96
125.405	102
126.685	84
127.964	102
129.243	96
130.522	90
131.801	100
133.079	96
134.357	100
135.635	100
136.911	92
138.189	94
139.466	90
140.744	104
142.021	90
143.297	86
144.574	104
145.85	96
147.126	92
148.401	90
149.676	88
150.952	108
152.227	98
153.502	92
154.777	112
156.05	102
157.325	102
158.599	96
159.873	98
161.147	106
162.419	104
163.693	104
164.966	94
166.239	104
167.51	92
168.783	96
170.055	104
171.327	100
172.598	90
173.869	112
175.141	98
176.411	98
177.682	100
178.953	84
180.222	90
181.493	104
182.763	100
184.032	94
185.302	92
186.571	100
187.839	112
189.109	102
190.378	94
191.645	106
192.914	114
194.181	94
195.449	102
196.716	110
197.983	88
199.251	100
200.517	102
201.784	102
203.05	96
204.317	104
205.582	96
206.848	106
208.113	112
209.379	104
210.643	108
211.909	102
213.173	106
214.438	94
215.701	104
216.966	100
218.229	96
219.493	112
220.756	116
222.019	100
223.282	92
224.544	124
225.808	100
227.069	114
228.331	116
229.594	102
230.855	94
232.117	114
233.378	110
234.638	104
235.9	100
237.16	114
238.419	116
239.68	106
240.94	108
242.199	112
243.46	110
244.718	114
245.977	112
247.235	112
248.495	104
249.753	96
251.011	104
252.268	106
253.527	96
254.784	104
256.041	108
257.298	102
258.556	108
259.812	118
261.068	108
262.324	108
263.58	104
264.837	94
266.092	110
267.348	114
268.603	122
269.857	106
271.112	112
272.366	110
273.622	108
274.876	102
276.129	114
277.383	112
278.636	126
279.889	108
281.142	102
282.395	102
283.647	112
284.9	102
286.152	104
287.404	108
288.655	120
289.907	106
291.158	112
292.409	100
293.66	124
294.911	120
296.161	106
297.411	110
298.661	110
299.911	112
301.161	110
302.41	106
303.66	102
304.909	100
306.158	110
307.406	104
308.655	116
309.903	98
311.151	106
312.397	114
313.645	126
314.893	106
316.14	104
317.387	110
318.634	102
319.88	114
321.125	124
322.372	116
323.618	114
324.864	118
326.109	112
327.353	100
328.598	110
329.844	116
331.088	110
332.333	116
333.576	120
334.82	106
336.064	112
337.308	114
338.55	112
339.794	104
341.037	112
342.279	112
343.521	112
344.764	118
346.005	108
347.247	92
348.489	112
349.73	130
350.971	106
352.213	104
353.453	100
354.694	114
355.935	114
357.174	124
358.414	122
359.653	122
360.893	116
362.133	118
363.371	120
364.611	110
365.848	116
367.087	114
368.325	100
369.564	114
370.801	128
372.039	112
373.275	112
374.513	106
375.75	116
376.987	120
378.223	130
379.46	124
380.695	120
381.932	118
383.167	116
384.403	108
385.638	118
386.872	112
388.108	96
389.342	102
390.577	118
391.811	122
393.044	106
394.279	118
395.512	118
396.747	130
397.979	116
399.212	98
400.445	128
401.677	126
402.909	114
404.142	106
405.374	108
406.605	118
407.836	108
409.069	118
410.299	116
411.53	120
412.762	116
413.992	106
415.221	100
416.451	138
417.681	120
418.911	118
420.141	112
421.369	102
422.598	118
423.827	114
425.057	116
426.285	122
427.513	110
428.74	118
429.968	124
431.195	130
432.424	126
433.651	114
434.878	116
436.104	124
437.33	106
438.557	120
439.783	110
441.008	120
442.234	110
443.459	116
444.685	118
445.91	110
447.136	130
448.36	120
449.585	116
450.809	132
452.033	120
453.257	120
454.48	120
455.704	124
456.927	112
458.15	124
459.372	120
460.594	126
461.817	116
463.039	120
464.261	122
465.483	116
466.705	130
467.926	118
469.147	118
470.369	114
471.589	124
472.809	126
474.029	118
475.25	110
476.47	120
477.69	116
478.909	116
480.129	112
481.347	120
482.566	118
483.785	114
485.004	126
486.221	116
487.439	120
488.657	122
489.875	130
491.093	122
492.309	124
493.527	136
494.744	102
495.96	118
497.176	128
498.393	116
499.61	138
500.824	130
502.04	132
503.256	116
504.471	122
505.686	128
506.901	124
508.115	122
509.33	106
510.543	126
511.758	118
512.972	128
514.185	122
515.399	126
516.611	132
517.825	118
519.038	132
520.25	118
521.463	116
522.674	128
523.887	138
525.097	128
526.31	124
527.52	118
528.732	128
529.942	116
531.154	132
532.364	106
533.575	116
534.784	110
535.995	122
537.204	118
538.413	116
539.623	128
540.831	104
542.041	114
543.249	126
544.458	120
545.666	120
546.874	136
548.082	136
549.289	130
550.496	132
551.705	124
552.911	112
554.118	128
555.325	118
556.531	120
557.737	120
558.944	126
560.149	126
561.355	124
562.56	126
563.766	112
564.971	122
566.175	136
567.379	102
568.585	118
569.789	136
570.992	134
572.196	122
573.401	126
574.604	110
575.807	126
577.01	124
578.212	126
579.414	122
580.618	120
581.82	122
583.022	114
584.224	126
585.425	116
586.626	118
587.827	134
589.028	116
590.229	130
591.429	126
592.631	118
593.831	126
595.031	108
596.231	120
597.43	128
598.63	126
599.829	126
601.028	130
602.226	128
603.425	128
604.623	140
605.822	112
607.02	126
608.217	114
609.415	120
610.613	124
611.808	132
613.005	124
614.202	130
615.399	126
616.596	126
617.792	110
618.988	136
620.184	118
621.38	128
622.574	128
623.769	136
624.964	112
626.159	118
627.354	142
628.549	146
629.742	134
630.936	120
632.13	130
633.324	126
634.518	112
635.71	124
636.903	150
638.096	132
639.289	134
640.481	132
641.673	128
642.866	128
644.058	124
645.248	132
646.44	124
647.632	138
648.822	146
650.013	120
651.204	122
652.394	130
653.584	132
654.773	126
655.964	122
657.154	124
658.342	142
659.532	126
660.722	130
661.91	132
663.099	148
664.286	136
665.475	124
666.663	130
667.851	132
669.038	120
670.226	144
671.412	130
672.6	128
673.786	126
674.974	132
676.159	132
677.346	120
678.532	134
679.718	124
680.903	138
682.089	120
683.274	122
684.46	136
685.644	124
686.828	116
688.014	132
689.197	138
690.382	134
691.565	124
692.749	110
693.933	130
695.116	126
696.298	128
697.482	130
698.664	122
699.846	138
701.03	132
702.211	136
703.393	130
704.574	140
705.757	132
706.938	114
708.118	130
709.299	122
710.481	144
711.661	124
712.841	126
714.021	124
715.202	128
716.381	132
717.56	136
718.739	132
719.918	140
721.097	140
722.277	134
723.455	138
724.633	126
725.811	122
726.989	124
728.167	142
729.344	130
730.521	126
731.698	138
732.877	130
734.053	122
735.23	124
736.406	130
737.582	128
738.758	134
739.934	122
741.11	152
742.285	124
743.46	128
744.635	122
745.81	120
746.985	128
748.159	150
749.334	128
750.508	126
751.682	140
752.854	128
754.028	128
755.201	136
756.374	146
757.547	132
758.72	136
759.893	126
761.065	134
762.237	126
763.408	122
764.58	120
765.752	136
766.923	142
768.095	136
769.266	128
770.436	132
771.606	122
772.777	128
773.948	136
775.116	134
776.287	132
777.456	134
778.626	128
779.794	122
780.964	142
782.133	130
783.301	140
784.469	136
785.638	150
786.806	128
787.973	122
789.141	136
790.309	140
791.476	126
792.643	130
793.809	120
794.977	114
796.143	132
797.309	128
798.476	128
799.641	128
800.807	134
801.973	124
803.138	138
804.303	132
805.468	130
806.633	142
807.797	132
808.962	136
810.125	130
811.29	132
812.453	144
813.617	126
814.78	144
815.944	148
817.106	124
818.268	130
819.432	134
820.594	118
821.757	132
822.918	144
824.081	132
825.242	128
826.403	128
827.565	130
828.726	128
829.886	128
831.048	132
832.208	134
833.368	128
834.529	126
835.688	140
836.847	152
838.008	138
839.167	140
840.326	124
841.484	140
842.644	130
843.802	132
844.96	130
846.118	138
847.277	132
848.435	146
849.592	140
850.749	146
851.906	138
853.065	122
854.221	138
855.378	138
856.534	138
857.69	126
858.846	136
860.002	154
861.159	148
862.314	132
863.469	136
864.624	140
865.779	130
866.934	136
868.088	140
869.242	140
870.396	130
871.55	132
872.704	118
873.858	138
875.011	140
876.164	132
877.318	132
878.47	134
879.623	128
880.776	128
881.928	128
883.08	130
884.232	132
885.384	132
886.536	140
887.687	140
888.838	134
889.988	134
891.139	122
892.29	134
893.44	136
894.591	138
895.741	120
896.891	138
898.039	134
899.189	128
900.339	132
901.488	140
902.637	130
903.785	130
904.933	130
906.082	138
907.231	130
908.377	110
909.526	148
910.673	142
911.821	150
912.967	138
914.115	124
915.262	138
916.408	126
917.554	136
918.701	146
919.846	138
920.993	130
922.139	152
923.283	142
924.429	142
925.575	144
926.719	128
927.864	146
929.008	134
930.153	138
931.297	132
932.441	132
933.585	140
934.728	132
935.872	142
937.014	118
938.158	134
939.3	126
940.444	128
941.585	118
942.728	126
943.87	136
945.012	116
946.154	140
947.296	140
948.437	138
949.577	136
950.719	144
951.859	130
953	134
954.14	124
955.28	146
956.421	142
957.56	134
958.699	128
959.84	140
960.979	146
962.117	132
963.257	146
964.395	122
965.533	130
966.673	142
967.81	138
968.948	124
970.086	138
971.224	132
972.361	137
973.498	142
974.635	136
975.773	134
976.909	128
978.045	138
979.181	146
980.317	152
981.453	138
982.59	132
983.725	132
984.86	146
985.995	132
987.13	142
988.265	144
989.399	130
990.533	142
991.669	144
992.803	142
993.937	146
995.07	136
996.204	138
997.337	132
998.47	132
999.603	130
1000.74	144
1001.87	128
1003	138
1004.13	150
1005.26	138
1006.4	138
1007.53	146
1008.66	136
1009.79	132
1010.92	124
1012.05	132
1013.18	140
1014.31	128
1015.44	142
1016.57	132
1017.7	136
1018.83	140
1019.96	128
1021.09	146
1022.22	142
1023.35	128
1024.48	142
1025.61	148
1026.74	148
1027.87	124
1028.99	138
1030.12	136
1031.25	146
1032.38	134
1033.5	138
1034.63	126
1035.76	136
1036.88	150
1038.01	142
1039.14	116
1040.26	136
1041.39	150
1042.52	150
1043.64	138
1044.77	142
1045.89	132
1047.02	146
1048.14	138
1049.27	146
1050.39	144
1051.52	140
1052.64	140
1053.77	148
1054.89	132
1056.01	148
1057.14	144
1058.26	148
1059.38	136
1060.51	138
1061.63	118
1062.75	148
1063.87	142
1065	140
1066.12	144
1067.24	148
1068.36	130
1069.48	140
1070.6	128
1071.73	142
1072.85	138
1073.97	142
1075.09	144
1076.21	136
1077.33	134
1078.45	138
1079.57	142
1080.69	142
1081.81	144
1082.93	146
1084.05	138
1085.16	140
1086.28	142
1087.4	144
1088.52	138
1089.64	138
1090.76	134
1091.87	128
1092.99	136
1094.11	134
1095.23	146
1096.34	142
1097.46	150
1098.58	134
1099.69	152
1100.81	138
1101.93	148
1103.04	148
1104.16	138
1105.27	136
1106.39	128
1107.51	130
1108.62	144
1109.74	138
1110.85	134
1111.96	148
1113.08	130
1114.19	138
1115.31	132
1116.42	150
1117.53	146
1118.65	136
1119.76	142
1120.87	126
1121.99	142
1123.1	142
1124.21	138
1125.32	144
1126.44	148
1127.55	156
1128.66	132
1129.77	140
1130.88	148
1132	126
1133.11	140
1134.22	136
1135.33	134
1136.44	140
1137.55	154
1138.66	140
1139.77	134
1140.88	146
1141.99	146
1143.1	128
1144.21	136
1145.32	158
1146.43	132
1147.54	156
1148.64	140
1149.75	136
1150.86	122
1151.97	138
1153.08	144
1154.18	140
1155.29	140
1156.4	140
1157.51	134
1158.61	138
1159.72	150
1160.83	138
1161.93	142
1163.04	138
1164.14	142
1165.25	148
1166.36	136
1167.46	152
1168.57	152
1169.67	140
1170.78	142
1171.88	136
1172.99	132
1174.09	162
1175.2	136
1176.3	146
1177.4	152
1178.51	152
1179.61	144
1180.71	138
1181.82	152
1182.92	156
1184.02	144
1185.13	138
1186.23	154
1187.33	148
1188.43	152
1189.53	132
1190.64	158
1191.74	138
1192.84	150
1193.94	144
1195.04	144
1196.14	152
1197.24	136
1198.34	120
1199.45	133.89
1200.54	139.414
1201.64	148.6
1202.75	119.175
1203.84	134.941
1204.94	132.552
1206.04	119.263
1207.14	133.971
1208.24	140.402
1209.34	137.79
1210.44	137.29
1211.54	146.313
1212.64	137.359
1213.73	123.634
1214.83	145.557
1215.93	128.669
1217.03	129.76
1218.12	129.185
1219.22	138.08
1220.32	133.92
1221.41	136.641
1222.51	129.515
1223.61	139.665
1224.7	143.355
1225.8	134.839
1226.9	129.833
1227.99	128.454
1229.09	125.121
1230.18	134.614
1231.28	124.865
1232.37	125.405
1233.47	117.922
1234.56	128.554
1235.66	132.389
1236.75	136.635
1237.84	130.256
1238.94	123.25
1240.03	126.667
1241.13	124.385
1242.22	132.457
1243.31	130.478
1244.41	130.886
1245.5	127.05
1246.59	118.961
1247.68	127.939
1248.78	120.179
1249.87	120.057
1250.96	121.249
1252.05	137.323
1253.14	139.859
1254.24	133.637
1255.33	133.607
1256.42	120.235
1257.51	120.982
1258.6	121.293
1259.69	118.865
1260.78	121.676
1261.87	122.646
1262.96	117.622
1264.05	119.027
1265.14	123.854
1266.23	126.513
1267.32	116.098
1268.41	123.945
1269.5	130.044
1270.59	117.005
1271.67	120.862
1272.76	115.65
1273.85	117.179
1274.94	116.886
1276.03	130.29
1277.12	122.211
1278.2	116.361
1279.29	116.273
1280.38	122.128
1281.47	115.266
1282.55	123.371
1283.64	109.841
1284.72	117.642
1285.81	122.925
1286.9	128.998
1287.98	121.91
1289.07	118.246
1290.16	123.246
1291.24	122.978
1292.33	119.099
1293.41	125.285
1294.5	118.274
1295.58	129.684
1296.67	123.167
1297.75	124.703
1298.83	122.136
1299.92	108.494
1301	127.045
1302.09	126.791
1303.17	125.463
1304.25	123.245
1305.34	133.089
1306.42	134.703
1307.5	136.699
1308.44	140
1309.53	136
1310.61	122
1311.7	128
1312.79	118
1313.88	126
1314.97	124
1316.05	122
1317.14	118
1318.23	122
1319.31	126
1320.4	112
1321.48	122
1322.57	114
1323.66	116
1324.74	132
1325.83	118
1326.91	126
1328	130
1329.08	116
1330.17	120
1331.25	120
1332.34	112
1333.42	106
1334.5	122
1335.59	110
1336.67	116
1337.75	110
1338.84	126
1339.92	120
1341	126
1342.09	108
1343.17	118
1344.25	108
1345.33	102
1346.42	118
1347.5	110
1348.58	112
1349.66	108
1350.74	112
1351.83	116
1352.91	122
1353.99	100
1355.07	116
1356.15	114
1357.23	122
1358.31	102
1359.39	108
1360.47	106
1361.55	110
1362.63	106
1363.71	88
1364.79	104
1365.87	110
1366.94	108
1368.02	102
1369.1	104
1370.18	118
1371.26	96
1372.34	104
1373.41	100
1374.49	106
1375.57	96
1376.65	106
1377.72	112
1378.8	100
1379.88	110
1380.95	118
1382.03	102
1383.11	96
1384.18	106
1385.26	98
1386.33	114
1387.41	110
1388.48	110
1389.56	106
1390.64	104
1391.71	104
1392.79	124
1393.86	102
1394.93	116
1396.01	102
1397.08	106
1398.16	104
1399.23	102
1400.3	100
1401.38	104
1402.45	106
1403.52	108
1404.6	108
1405.67	98
1406.74	100
1407.81	116
1408.89	106
1409.96	112
1411.03	106
1412.1	112
1413.17	108
1414.24	112
1415.32	110
1416.39	104
1417.46	106
1418.53	108
1419.6	106
1420.67	114
1421.74	102
1422.81	104
1423.88	102
1424.95	106
1426.02	104
1427.09	108
1428.16	96
1429.23	102
1430.29	90
1431.36	106
1432.43	110
1433.5	98
1434.57	98
1435.64	102
1436.7	100
1437.77	114
1438.84	100
1439.91	98
1440.97	104
1442.04	116
1443.11	112
1444.17	122
1445.24	98
1446.31	108
1447.37	122
1448.44	112
1449.5	102
1450.57	96
1451.64	106
1452.7	104
1453.77	114
1454.83	104
1455.9	106
1456.96	106
1458.02	112
1459.09	96
1460.15	102
1461.22	112
1462.28	114
1463.34	106
1464.41	100
1465.47	106
1466.53	100
1467.6	114
1468.66	92
1469.72	102
1470.78	112
1471.85	106
1472.91	110
1473.97	116
1475.03	106
1476.09	100
1477.16	100
1478.22	112
1479.28	94
1480.34	102
1481.4	104
1482.46	112
1483.52	102
1484.58	104
1485.64	94
1486.7	120
1487.76	104
1488.82	102
1489.88	98
1490.94	108
1492	116
1493.06	118
1494.11	112
1495.17	110
1496.23	104
1497.29	108
1498.35	106
1499.41	114
1500.46	100
1501.52	100
1502.58	112
1503.64	94
1504.69	112
1505.75	98
1506.81	104
1507.86	114
1508.92	112
1509.98	98
1511.03	108
1512.09	102
1513.14	120
1514.2	96
1515.25	112
1516.31	120
1517.36	112
1518.42	104
1519.47	106
1520.53	104
1521.58	108
1522.64	116
1523.69	112
1524.74	102
1525.8	116
1526.85	110
1527.91	110
1528.96	94
1530.01	110
1531.07	92
1532.12	104
1533.17	114
1534.22	96
1535.27	124
1536.33	104
1537.38	108
1538.43	104
1539.48	116
1540.53	114
1541.58	110
1542.64	102
1543.69	102
1544.74	104
1545.79	110
1546.84	106
1547.89	120
1548.94	108
1549.99	102
1551.04	92
1552.09	112
1553.14	108
1554.19	122
1555.24	106
1556.28	118
1557.33	116
1558.38	106
1559.43	130
1560.48	118
1561.53	126
1562.57	106
1563.62	118
1564.67	112
1565.72	102
1566.76	98
1567.81	108
1568.86	110
1569.91	118
1570.95	116
1572	104
1573.05	104
1574.09	110
1575.14	124
1576.18	112
1577.23	110
1578.27	116
1579.32	116
1580.36	102
1581.41	106
1582.45	116
1583.5	110
1584.54	126
1585.59	110
1586.63	114
1587.68	118
1588.72	112
1589.76	118
1590.81	110
1591.85	94
1592.89	120
1593.94	114
1594.98	110
1596.02	104
1597.06	108
1598.11	106
1599.15	110
1600.19	114
1601.23	104
1602.27	106
1603.32	114
1604.36	118
1605.4	102
1606.44	108
1607.48	112
1608.52	110
1609.56	110
1610.6	112
1611.64	102
1612.68	118
1613.72	100
1614.76	104
1615.8	94
1616.84	116
1617.88	112
1618.92	110
1619.96	108
1621	104
1622.04	114
1623.07	104
1624.11	96
1625.15	100
1626.19	104
1627.23	106
1628.26	98
1629.3	102
1630.34	120
1631.38	110
1632.41	102
1633.45	104
1634.49	98
1635.52	112
1636.56	102
1637.59	102
1638.63	102
1639.67	96
1640.7	94
1641.74	110
1642.77	90
1643.81	116
1644.84	104
1645.88	102
1646.91	114
1647.95	112
1648.98	98
1650.02	98
1651.05	96
1652.08	108
1653.12	98
1654.15	108
1655.18	94
1656.22	112
1657.25	104
1658.28	90
1659.32	104
1660.35	100
1661.38	116
1662.41	120
1663.45	110
1664.48	102
1665.51	96
1666.54	106
1667.57	98
1668.6	96
1669.64	110
1670.67	102
1671.7	80
1672.73	98
1673.76	100
1674.79	98
1675.82	102
1676.85	84
1677.88	94
1678.91	110
1679.94	110
1680.97	106
1682	106
1683.03	98
1684.05	106
1685.08	106
1686.11	102
1687.14	110
1688.17	88
1689.2	102
1690.22	104
1691.25	104
1692.28	92
1693.31	90
1694.33	102
1695.36	96
1696.39	98
1697.42	102
1698.44	94
1699.47	92
1700.49	100
1701.52	96
1702.55	92
1703.57	104
1704.6	86
1705.63	102
1706.65	90
1707.68	86
1708.7	96
1709.72	106
1710.75	114
1711.77	94
1712.8	94
1713.82	100
1714.85	102
1715.87	98
1716.89	104
1717.92	86
1718.94	94
1719.97	92
1720.99	102
1722.01	100
1723.03	98
1724.06	84
1725.08	102
1726.1	102
1727.12	98
1728.15	104
1729.17	100
1730.19	96
1731.21	98
1732.23	96
1733.25	108
1734.27	94
1735.3	78
1736.32	94
1737.34	92
1738.36	96
1739.38	98
1740.4	96
1741.42	102
1742.44	102
1743.46	92
1744.48	112
1745.5	102
1746.51	102
1747.53	100
1748.55	100
1749.57	98
1750.59	92
1751.61	96
1752.63	104
1753.64	98
1754.66	100
1755.68	104
1756.7	92
1757.72	110
1758.73	94
1759.75	94
1760.77	94
1761.78	86
1762.8	102
1763.82	96
1764.83	102
1765.85	86
1766.86	90
1767.88	98
1768.9	102
1769.91	104
1770.93	100
1771.94	100
1772.96	102
1773.97	98
1774.99	90
1776	94
1777.02	100
1778.03	98
1779.04	104
1780.06	94
1781.07	94
1782.09	82
1783.1	98
1784.11	92
1785.13	98
1786.14	98
1787.15	104
1788.16	106
1789.18	90
1790.19	94
1791.2	98
1792.21	88
1793.23	98
1794.24	84
1795.25	104
1796.26	108
1797.27	100
1798.28	88
1799.29	100
1800.3	102
1801.31	110
1802.33	94
1803.34	102
1804.35	92
1805.36	100
1806.37	92
1807.38	94
1808.38	102
1809.39	94
1810.4	92
1811.41	108
1812.42	86
1813.43	98
1814.44	106
1815.45	100
1816.46	94
1817.46	96
1818.47	98
1819.48	106
1820.49	104
1821.49	84
1822.5	90
1823.51	94
1824.52	82
1825.52	92
1826.53	90
1827.54	92
1828.54	96
1829.55	88
1830.56	94
1831.56	96
1832.57	92
1833.57	104
1834.58	94
1835.58	94
1836.59	108
1837.59	86
1838.6	86
1839.6	100
1840.61	94
1841.61	78
1842.62	94
1843.62	96
1844.62	104
1845.63	98
1846.63	90
1847.64	104
1848.64	100
1849.64	88
1850.64	106
1851.65	86
1852.65	88
1853.65	98
1854.66	86
1855.66	90
1856.66	92
1857.66	100
1858.66	96
1859.66	88
1860.67	84
1861.67	88
1862.67	84
1863.67	92
1864.67	102
1865.67	106
1866.67	96
1867.67	82
1868.67	90
1869.67	96
1870.67	88
1871.67	96
1872.67	84
1873.67	90
1874.67	96
1875.67	106
1876.67	94
1877.67	86
1878.67	76
1879.66	88
1880.66	92
1881.66	80
1882.66	96
1883.66	84
1884.65	94
1885.65	98
1886.65	90
1887.65	84
1888.64	90
1889.64	96
1890.64	90
1891.63	82
1892.63	92
1893.63	82
1894.62	90
1895.62	90
1896.62	86
1897.61	88
1898.61	94
1899.6	96
1900.6	86
1901.59	88
1902.59	96
1903.58	86
1904.58	96
1905.57	100
1906.57	88
1907.56	86
1908.55	88
1909.55	94
1910.54	100
1911.53	98
1912.53	90
1913.52	96
1914.52	86
1915.51	94
1916.5	84
1917.49	98
1918.49	84
1919.48	96
1920.47	96
1921.46	88
1922.45	88
1923.45	86
1924.44	88
1925.43	86
1926.42	90
1927.41	98
1928.4	86
1929.39	76
1930.38	94
1931.37	92
1932.36	98
1933.36	96
1934.35	98
1935.33	92
1936.33	80
1937.31	92
1938.3	88
1939.29	80
1940.28	98
1941.27	88
1942.26	90
1943.25	88
1944.24	90
1945.23	88
1946.21	80
1947.2	106
1948.19	86
1949.18	96
1950.17	92
1951.15	100
1952.14	96
1953.13	91
1954.11	86
1955.1	86
1956.09	92
1957.08	94
1958.06	98
1959.05	92
1960.03	88
1961.02	96
1962.01	90
1962.99	82
1963.98	76
1964.96	92
1965.95	90
1966.93	88
1967.92	86
1968.9	82
1969.89	82
1970.87	88
1971.86	106
1972.84	80
1973.82	90
1974.81	88
1975.79	100
1976.77	86
1977.76	100
1978.74	96
1979.72	82
1980.71	80
1981.69	78
1982.67	96
1983.66	92
1984.64	90
1985.62	94
1986.6	80
1987.58	94
1988.57	82
1989.55	92
1990.53	94
1991.51	90
1992.49	80
1993.47	80
1994.45	90
1995.43	84
1996.41	94
1997.39	88
1998.37	82
1999.35	100
