#Acq. time (s)=	10
#Accumulations=	1
#Range (cm-¹)=	200...4000
#Windows=	5
#Autofocus=	Off
#AutoExposure=	Off
#Spike filter=	Off
#Delay time (s)=	0
#Binning=	1
#Readout mode=	Signal
#DeNoise=	Off
#ICS correction=	Off
#Dark correction=	Off
#Inst. Process=	Off
#Instrument=	LabRAM HR Evol
#Detector=	Syncerity OE
#Objective=	x100_VIS
#Grating=	600 (500nm)
#ND Filter=	25%
#Laser=	633nm_Edge
#Hole=	100.021
#Range=	Visible
#Project=	Omar
#Sample=	03-07-23
#Site=	1
#Title=	OR
#Remark=	
#Date=	03.07.2023 13:33
#Acquired=	03.07.2023 13:33:22
200.404	2582
201.671	2638
202.938	2544
204.205	2562
205.472	2550
206.737	2596
208.003	2578
209.269	2550
210.535	2628
211.799	2608
213.064	2596
214.33	2648
215.595	2640
216.858	2666
218.122	2594
219.387	2592
220.649	2576
221.913	2616
223.177	2626
224.439	2576
225.703	2610
226.966	2612
228.227	2696
229.49	2636
230.752	2672
232.013	2670
233.275	2654
234.536	2644
235.798	2668
237.059	2680
238.319	2722
239.58	2698
240.839	2684
242.1	2718
243.361	2666
244.619	2676
245.879	2798
247.138	2670
248.398	2720
249.655	2742
250.915	2676
252.172	2712
253.431	2746
254.688	2706
255.947	2736
257.204	2716
258.462	2658
259.718	2700
260.976	2730
262.232	2666
263.487	2704
264.744	2644
266	2706
267.256	2702
268.511	2678
269.767	2720
271.022	2668
272.276	2722
273.532	2770
274.786	2732
276.04	2718
277.295	2716
278.548	2696
279.801	2716
281.055	2772
282.308	2744
283.561	2738
284.814	2782
286.066	2780
287.318	2790
288.572	2804
289.823	2798
291.074	2778
292.327	2760
293.578	2826
294.828	2828
296.079	2770
297.331	2794
298.581	2844
299.831	2862
301.08	2856
302.33	2748
303.581	2826
304.83	2812
306.079	2828
307.327	2840
308.576	2842
309.825	2800
311.073	2828
312.321	2846
313.569	2848
314.816	2872
316.064	2866
317.311	2850
318.558	2848
319.806	2838
321.052	2886
322.299	2842
323.545	2954
324.79	2914
326.036	2900
327.282	2864
328.527	2838
329.772	2838
331.017	2864
332.261	2834
333.506	2846
334.75	2864
335.994	2904
337.238	2764
338.482	2914
339.725	2860
340.968	2928
342.211	2906
343.454	2920
344.697	2872
345.939	2944
347.182	2876
348.424	2944
349.666	2890
350.907	2964
352.149	2966
353.39	2982
354.631	2826
355.87	2996
357.111	2928
358.352	2936
359.592	2968
360.832	2966
362.072	2918
363.311	2880
364.549	2974
365.789	2938
367.028	2978
368.267	3028
369.505	2982
370.742	2984
371.981	2982
373.219	2980
374.457	2938
375.694	2982
376.93	2994
378.168	3000
379.405	2962
380.642	2956
381.877	2972
383.113	2920
384.35	2960
385.584	2992
386.82	2982
388.056	3034
389.291	2994
390.525	2970
391.76	2982
392.995	2990
394.228	2950
395.463	3006
396.696	3012
397.93	3034
399.164	3026
400.396	3008
401.63	3022
402.863	3002
404.095	3078
405.328	3032
406.559	3052
407.791	3098
409.022	3002
410.254	3010
411.486	3040
412.717	3068
413.948	3072
415.178	3092
416.409	3138
417.639	3102
418.87	3142
420.099	3138
421.329	3144
422.558	3086
423.788	3114
425.016	3124
426.244	3180
427.474	3192
428.701	3054
429.93	3234
431.158	3150
432.386	3124
433.613	3162
434.84	3210
436.068	3202
437.294	3234
438.522	3120
439.748	3220
440.974	3228
442.201	3206
443.426	3226
444.651	3196
445.878	3166
447.103	3162
448.327	3188
449.553	3228
450.777	3220
452.001	3228
453.225	3244
454.45	3230
455.674	3134
456.897	3168
458.121	3176
459.344	3226
460.567	3188
461.789	3172
463.012	3194
464.235	3208
465.457	3232
466.679	3182
467.9	3192
469.122	3212
470.344	3208
471.565	3200
472.786	3176
474.006	3240
475.227	3180
476.447	3184
477.668	3282
478.888	3272
480.107	3264
481.327	3238
482.546	3280
483.765	3314
484.984	3364
486.202	3256
487.421	3286
488.639	3282
489.857	3310
491.075	3288
492.292	3286
493.51	3296
494.727	3322
495.944	3258
497.161	3328
498.377	3262
499.594	3386
500.81	3330
502.026	3294
503.242	3282
504.458	3348
505.673	3348
506.888	3320
508.104	3324
509.318	3304
510.533	3296
511.748	3380
512.962	3264
514.176	3322
515.39	3288
516.602	3320
517.816	3406
519.029	3378
520.242	3304
521.455	3354
522.668	3368
523.881	3358
525.092	3302
526.304	3326
527.516	3310
528.728	3342
529.939	3294
531.149	3288
532.361	3284
533.572	3294
534.783	3352
535.992	3294
537.202	3362
538.413	3334
539.623	3288
540.831	3324
542.041	3382
543.25	3366
544.458	3282
545.667	3288
546.876	3346
548.084	3354
549.292	3350
550.501	3372
551.707	3300
552.915	3320
554.123	3340
555.329	3282
556.537	3326
557.743	3342
558.95	3270
560.156	3386
561.362	3338
562.568	3352
563.773	3406
564.979	3314
566.184	3330
567.389	3382
568.595	3352
569.799	3342
571.004	3372
572.207	3376
573.412	3344
574.615	3364
575.82	3376
577.022	3326
578.226	3352
579.429	3340
580.631	3402
581.834	3348
583.036	3390
584.239	3392
585.44	3362
586.643	3410
587.844	3362
589.045	3394
590.247	3390
591.448	3378
592.649	3336
593.849	3392
595.049	3428
596.25	3412
597.45	3456
598.649	3462
599.85	3482
601.049	3382
602.248	3358
603.448	3484
604.646	3440
605.844	3430
607.042	3514
608.241	3408
609.439	3450
610.637	3498
611.834	3446
613.032	3476
614.229	3460
615.426	3418
616.622	3494
617.819	3522
619.016	3478
620.212	3464
621.408	3530
622.603	3474
623.799	3424
624.994	3544
626.19	3482
627.385	3500
628.58	3536
629.774	3536
630.969	3486
632.163	3630
633.356	3580
634.55	3598
635.744	3532
636.938	3584
638.131	3540
639.324	3610
640.517	3586
641.71	3542
642.902	3554
644.094	3600
645.286	3602
646.478	3648
647.67	3564
648.861	3552
650.052	3582
651.243	3640
652.434	3650
653.625	3484
654.815	3596
656.006	3640
657.196	3564
658.384	3626
659.574	3620
660.764	3702
661.953	3628
663.142	3682
664.331	3612
665.52	3638
666.709	3554
667.897	3596
669.084	3598
670.272	3564
671.46	3580
672.648	3582
673.835	3670
675.021	3568
676.208	3576
677.395	3644
678.582	3592
679.768	3544
680.953	3618
682.14	3626
683.326	3662
684.512	3542
685.696	3620
686.881	3584
688.067	3600
689.252	3630
690.435	3656
691.62	3638
692.804	3584
693.987	3686
695.171	3600
696.355	3620
697.538	3594
698.721	3610
699.905	3642
701.087	3542
702.27	3580
703.451	3630
704.634	3594
705.816	3672
706.997	3624
708.179	3630
709.36	3656
710.542	3624
711.722	3566
712.903	3674
714.083	3692
715.264	3656
716.445	3702
717.624	3624
718.805	3680
719.984	3700
721.162	3728
722.342	3684
723.52	3648
724.7	3652
725.878	3700
727.057	3724
728.235	3752
729.414	3684
730.591	3658
731.768	3730
732.946	3660
734.123	3760
735.301	3718
736.477	3624
737.653	3678
738.83	3756
740.006	3682
741.182	3734
742.358	3778
743.534	3682
744.709	3652
745.885	3778
747.06	3738
748.234	3716
749.41	3700
750.584	3720
751.758	3750
752.931	3778
754.106	3666
755.28	3772
756.453	3594
757.626	3738
758.8	3674
759.973	3706
761.145	3732
762.318	3712
763.49	3740
764.662	3712
765.835	3772
767.006	3706
768.178	3742
769.349	3688
770.52	3708
771.691	3644
772.861	3754
774.033	3754
775.203	3704
776.373	3726
777.543	3708
778.713	3702
779.883	3716
781.052	3706
782.221	3744
783.39	3726
784.559	3758
785.727	3736
786.896	3730
788.064	3712
789.232	3706
790.4	3718
791.568	3810
792.735	3836
793.903	3692
795.07	3728
796.237	3820
797.404	3820
798.57	3794
799.737	3794
800.903	3770
802.068	3838
803.234	3828
804.399	3804
805.565	3822
806.73	3736
807.896	3776
809.061	3760
810.224	3698
811.389	3844
812.553	3744
813.717	3822
814.881	3802
816.045	3808
817.208	3872
818.371	3854
819.535	3862
820.698	3862
821.859	3850
823.022	3870
824.185	3872
825.347	3826
826.508	3834
827.67	3872
828.832	3796
829.993	3822
831.154	3910
832.316	3896
833.476	3882
834.637	3866
835.797	3842
836.957	3844
838.117	3890
839.278	3882
840.436	3928
841.596	3910
842.755	3836
843.914	3828
845.074	3860
846.232	3898
847.391	3898
848.548	3966
849.707	3888
850.864	3874
852.022	3898
853.179	3958
854.337	3898
855.493	3942
856.651	3944
857.807	3904
858.964	4010
860.12	3958
861.277	3952
862.432	3980
863.589	3934
864.744	3864
865.9	3948
867.055	3938
868.209	3968
869.365	4006
870.519	4010
871.674	3930
872.828	3930
873.982	3976
875.136	3874
876.29	3886
877.443	3886
878.597	3924
879.75	3894
880.902	3948
882.056	3880
883.208	3936
884.36	3958
885.512	3970
886.665	3888
887.816	3912
888.967	3888
890.118	3920
891.271	3980
892.421	3990
893.572	3878
894.722	3946
895.874	3934
897.024	3804
898.174	3908
899.323	3918
900.473	3930
901.622	3834
902.771	4046
903.922	3926
905.07	3946
906.219	3902
907.367	3948
908.516	3880
909.664	3862
910.811	3934
911.959	3898
913.107	3866
914.254	3894
915.401	3948
916.55	3956
917.696	4046
918.843	3888
919.99	3956
921.136	4004
922.282	3868
923.428	3950
924.574	3948
925.719	3958
926.863	3986
928.009	3976
929.154	3944
930.299	3996
931.443	3822
932.588	3930
933.732	4014
934.876	3922
936.02	3914
937.164	3876
938.308	4022
939.45	4022
940.593	4016
941.736	4042
942.879	4026
944.022	3950
945.165	3946
946.306	3990
947.448	3998
948.59	4018
949.732	4064
950.874	4018
952.014	3992
953.155	4042
954.296	4014
955.437	4010
956.577	4066
957.718	4064
958.858	4024
959.997	4044
961.137	3994
962.277	4064
963.416	4036
964.555	4092
965.695	4062
966.833	4132
967.972	4078
969.111	4076
970.248	4066
971.387	4090
972.524	3986
973.662	4028
974.8	4084
975.936	4106
977.074	4050
978.21	4038
979.348	4084
980.483	4084
981.62	4158
982.757	4124
983.893	4038
985.029	4036
986.164	4068
987.299	4144
988.435	4106
989.569	4120
990.705	4146
991.839	4126
992.974	4076
994.108	4090
995.243	4092
996.376	4064
997.509	4090
998.644	4104
999.777	4074
1000.91	4026
1002.04	4048
1003.18	4064
1004.31	4102
1005.44	4180
1006.57	4102
1007.71	4132
1008.84	4084
1009.97	4052
1011.1	4108
1012.23	4074
1013.36	4138
1014.49	4058
1015.63	4162
1016.76	4100
1017.89	4116
1019.02	4124
1020.15	4092
1021.28	4080
1022.41	4032
1023.54	4160
1024.66	4112
1025.79	4084
1026.92	4186
1028.05	4168
1029.18	4186
1030.31	4082
1031.44	4108
1032.56	4154
1033.69	4196
1034.82	4150
1035.95	4086
1037.08	4176
1038.2	4116
1039.33	4112
1040.46	4168
1041.58	4176
1042.71	4212
1043.83	4228
1044.96	4242
1046.09	4160
1047.21	4216
1048.34	4228
1049.46	4192
1050.59	4220
1051.71	4188
1052.84	4146
1053.96	4200
1055.09	4218
1056.21	4214
1057.33	4212
1058.46	4243
1059.58	4274
1060.71	4260
1061.83	4216
1062.95	4244
1064.07	4256
1065.2	4142
1066.32	4178
1067.44	4220
1068.56	4238
1069.69	4202
1070.81	4228
1071.93	4224
1073.05	4290
1074.17	4240
1075.29	4192
1076.41	4222
1077.54	4270
1078.66	4250
1079.78	4250
1080.9	4238
1082.02	4154
1083.14	4262
1084.25	4196
1085.37	4252
1086.49	4244
1087.61	4252
1088.73	4242
1089.85	4186
1090.97	4158
1092.09	4194
1093.21	4226
1094.32	4176
1095.44	4254
1096.56	4212
1097.68	4262
1098.79	4188
1099.91	4114
1101.03	4198
1102.14	4186
1103.26	4256
1104.38	4152
1105.49	4260
1106.61	4226
1107.72	4168
1108.84	4178
1109.96	4204
1111.07	4204
1112.19	4190
1113.3	4192
1114.42	4222
1115.53	4190
1116.64	4114
1117.76	4188
1118.87	4238
1119.99	4134
1121.1	4226
1122.21	4192
1123.33	4258
1124.44	4268
1125.55	4218
1126.66	4234
1127.78	4222
1128.89	4228
1130	4204
1131.11	4238
1132.23	4262
1133.34	4228
1134.45	4294
1135.56	4190
1136.67	4284
1137.78	4266
1138.89	4294
1140	4294
1141.11	4274
1142.22	4274
1143.33	4330
1144.44	4236
1145.55	4312
1146.66	4364
1147.77	4274
1148.88	4338
1149.99	4244
1151.1	4312
1152.21	4370
1153.32	4296
1154.42	4350
1155.53	4388
1156.64	4410
1157.75	4370
1158.85	4252
1159.96	4418
1161.07	4378
1162.17	4368
1163.28	4380
1164.39	4348
1165.49	4326
1166.6	4392
1167.71	4362
1168.81	4340
1169.92	4412
1171.02	4332
1172.13	4428
1173.23	4470
1174.34	4464
1175.44	4306
1176.55	4470
1177.65	4436
1178.76	4386
1179.86	4420
1180.97	4324
1182.07	4432
1183.17	4428
1184.28	4382
1185.38	4284
1186.48	4408
1187.58	4376
1188.69	4372
1189.79	4374
1190.89	4292
1191.99	4394
1193.1	4368
1194.2	4252
1195.3	4314
1196.4	4388
1197.5	4282
1198.6	4240
1199.7	4334
1200.8	4294
1201.9	4370
1203	4348
1204.1	4296
1205.2	4310
1206.3	4322
1207.4	4322
1208.5	4430
1209.6	4270
1210.7	4330
1211.8	4304
1212.9	4272
1214	4362
1215.1	4340
1216.19	4304
1217.29	4336
1218.39	4338
1219.49	4252
1220.58	4288
1221.68	4250
1222.78	4288
1223.88	4294
1224.97	4284
1226.07	4310
1227.17	4366
1228.26	4262
1229.36	4344
1230.45	4334
1231.55	4318
1232.65	4346
1233.74	4322
1234.84	4340
1235.93	4266
1237.02	4324
1238.12	4328
1239.21	4388
1240.31	4300
1241.4	4312
1242.5	4374
1243.59	4344
1244.68	4360
1245.78	4288
1246.87	4326
1247.96	4382
1249.06	4370
1250.15	4316
1251.24	4372
1252.33	4378
1253.43	4398
1254.52	4398
1255.61	4392
1256.7	4392
1257.79	4378
1258.88	4398
1259.98	4342
1261.07	4352
1262.16	4366
1263.25	4310
1264.34	4484
1265.43	4414
1266.52	4410
1267.61	4462
1268.7	4468
1269.79	4426
1270.88	4412
1271.96	4440
1273.05	4414
1274.14	4318
1275.23	4310
1276.32	4412
1277.41	4346
1278.5	4460
1279.58	4492
1280.67	4383.28
1281.76	4391.17
1282.85	4497.74
1283.93	4370.44
1285.02	4358.47
1286.11	4435.2
1287.19	4485.8
1288.28	4476.5
1289.37	4454.83
1290.45	4434.63
1291.54	4520.55
1292.63	4496.17
1293.71	4489.58
1294.8	4455.92
1295.88	4512.13
1296.97	4484.96
1298.05	4557.73
1299.14	4525.58
1300.22	4517.91
1301.31	4522.4
1302.39	4572.26
1303.47	4551.29
1304.56	4572.86
1305.64	4561.65
1306.72	4560.15
1307.81	4541.41
1308.89	4522.38
1309.97	4562.39
1311.06	4523.7
1312.14	4520.13
1313.22	4500.95
1314.3	4558.41
1315.39	4543.27
1316.47	4592.41
1317.55	4555.1
1318.63	4541.62
1319.71	4546.87
1320.79	4578.65
1321.88	4584.41
1322.96	4633.1
1324.04	4570.38
1325.12	4624.9
1326.2	4610.7
1327.28	4604.58
1328.36	4607.71
1329.44	4587.21
1330.52	4593.04
1331.6	4608.35
1332.68	4628.17
1333.76	4634.12
1334.84	4597.62
1335.91	4625.47
1336.99	4660.75
1338.07	4652.03
1339.15	4647.09
1340.23	4663.65
1341.31	4661.63
1342.38	4650.76
1343.46	4642.16
1344.54	4651.16
1345.62	4685.87
1346.69	4648.33
1347.77	4653.27
1348.85	4658.75
1349.92	4659.91
1351	4683.77
1352.08	4680.06
1353.15	4705.05
1354.23	4662.04
1355.3	4623.69
1356.38	4638.58
1357.46	4663.1
1358.53	4668.52
1359.6	4683.11
1360.68	4707.67
1361.75	4744
1362.83	4709.41
1363.9	4720.59
1364.98	4698.88
1366.05	4720.21
1367.13	4684.94
1368.2	4687.77
1369.27	4721.86
1370.35	4688.77
1371.42	4653.69
1372.49	4701.3
1373.56	4702.01
1374.64	4719.6
1375.71	4719.17
1376.78	4679.09
1377.85	4717.63
1378.93	4747.27
1380	4685.71
1381.07	4719.09
1382.14	4757.77
1383.21	4790.8
1384.28	4799.76
1385.35	4774.74
1386.43	4735.58
1387.5	4685.56
1388.57	4672.67
1389.64	4699.8
1390.13	4720
1391.2	4678
1392.28	4690
1393.35	4678
1394.43	4686
1395.5	4698
1396.57	4668
1397.65	4774
1398.72	4722
1399.8	4678
1400.87	4716
1401.94	4692
1403.02	4658
1404.09	4704
1405.17	4686
1406.24	4742
1407.31	4680
1408.38	4712
1409.46	4742
1410.53	4728
1411.6	4666
1412.67	4702
1413.74	4702
1414.82	4700
1415.89	4772
1416.96	4630
1418.03	4634
1419.1	4656
1420.17	4680
1421.24	4650
1422.31	4716
1423.38	4636
1424.45	4602
1425.52	4704
1426.59	4670
1427.66	4640
1428.73	4650
1429.8	4706
1430.87	4706
1431.94	4636
1433.01	4762
1434.08	4714
1435.14	4684
1436.21	4678
1437.28	4686
1438.35	4708
1439.42	4620
1440.48	4628
1441.55	4720
1442.62	4658
1443.68	4620
1444.75	4702
1445.82	4706
1446.89	4712
1447.95	4742
1449.02	4780
1450.08	4672
1451.15	4650
1452.22	4688
1453.28	4736
1454.35	4738
1455.41	4672
1456.48	4722
1457.54	4678
1458.61	4654
1459.67	4774
1460.73	4762
1461.8	4704
1462.86	4752
1463.93	4698
1464.99	4704
1466.05	4718
1467.12	4722
1468.18	4800
1469.24	4710
1470.31	4710
1471.37	4764
1472.43	4700
1473.49	4722
1474.56	4682
1475.62	4802
1476.68	4702
1477.74	4796
1478.8	4776
1479.86	4758
1480.93	4734
1481.99	4744
1483.05	4726
1484.11	4770
1485.17	4626
1486.23	4648
1487.29	4718
1488.35	4778
1489.41	4734
1490.47	4714
1491.53	4728
1492.59	4692
1493.65	4774
1494.71	4806
1495.76	4674
1496.82	4758
1497.88	4704
1498.94	4676
1500	4730
1501.06	4752
1502.11	4730
1503.17	4756
1504.23	4750
1505.29	4634
1506.34	4692
1507.4	4668
1508.46	4674
1509.51	4688
1510.57	4690
1511.63	4672
1512.68	4730
1513.74	4688
1514.8	4670
1515.85	4736
1516.91	4758
1517.96	4658
1519.02	4742
1520.07	4752
1521.13	4750
1522.18	4788
1523.24	4740
1524.29	4672
1525.34	4716
1526.4	4754
1527.45	4666
1528.51	4696
1529.56	4736
1530.61	4772
1531.67	4754
1532.72	4710
1533.77	4654
1534.82	4698
1535.88	4736
1536.93	4660
1537.98	4750
1539.03	4644
1540.08	4644
1541.14	4658
1542.19	4714
1543.24	4706
1544.29	4716
1545.34	4744
1546.39	4766
1547.44	4666
1548.49	4722
1549.54	4736
1550.59	4726
1551.64	4688
1552.69	4696
1553.74	4648
1554.79	4668
1555.84	4692
1556.89	4740
1557.94	4680
1558.99	4776
1560.04	4754
1561.09	4820
1562.14	4628
1563.18	4678
1564.23	4728
1565.28	4776
1566.33	4664
1567.37	4770
1568.42	4722
1569.47	4788
1570.52	4722
1571.56	4690
1572.61	4784
1573.66	4634
1574.7	4736
1575.75	4724
1576.79	4646
1577.84	4670
1578.89	4678
1579.93	4704
1580.98	4714
1582.02	4742
1583.07	4580
1584.11	4678
1585.16	4644
1586.2	4746
1587.25	4714
1588.29	4656
1589.34	4626
1590.38	4678
1591.42	4642
1592.47	4750
1593.51	4656
1594.55	4712
1595.6	4740
1596.64	4770
1597.68	4718
1598.72	4688
1599.77	4786
1600.81	4676
1601.85	4752
1602.89	4728
1603.94	4626
1604.98	4688
1606.02	4668
1607.06	4720
1608.1	4716
1609.14	4606
1610.18	4668
1611.22	4676
1612.26	4732
1613.3	4742
1614.34	4694
1615.38	4682
1616.42	4698
1617.46	4748
1618.5	4646
1619.54	4732
1620.58	4736
1621.62	4718
1622.66	4728
1623.7	4666
1624.74	4722
1625.78	4736
1626.81	4760
1627.85	4672
1628.89	4732
1629.93	4728
1630.97	4678
1632	4792
1633.04	4634
1634.08	4726
1635.11	4664
1636.15	4650
1637.19	4644
1638.22	4612
1639.26	4682
1640.3	4670
1641.33	4634
1642.37	4588
1643.4	4594
1644.44	4580
1645.47	4564
1646.51	4572
1647.55	4530
1648.58	4508
1649.61	4556
1650.65	4522
1651.68	4476
1652.72	4584
1653.75	4544
1654.79	4638
1655.82	4524
1656.85	4554
1657.89	4536
1658.92	4538
1659.95	4460
1660.98	4464
1662.02	4450
1663.05	4422
1664.08	4466
1665.12	4432
1666.15	4508
1667.18	4500
1668.21	4456
1669.24	4434
1670.27	4408
1671.3	4424
1672.34	4358
1673.37	4458
1674.4	4486
1675.43	4376
1676.46	4496
1677.49	4384
1678.52	4426
1679.55	4422
1680.58	4350
1681.61	4390
1682.64	4424
1683.67	4340
1684.7	4380
1685.73	4414
1686.75	4324
1687.78	4320
1688.81	4380
1689.84	4318
1690.87	4424
1691.9	4386
1692.93	4392
1693.95	4264
1694.98	4318
1696.01	4364
1697.03	4330
1698.06	4242
1699.09	4312
1700.12	4330
1701.14	4350
1702.17	4314
1703.2	4298
1704.22	4294
1705.25	4300
1706.27	4284
1707.3	4392
1708.32	4358
1709.35	4346
1710.37	4378
1711.4	4306
1712.42	4244
1713.45	4370
1714.47	4234
1715.5	4318
1716.52	4230
1717.55	4254
1718.57	4264
1719.59	4188
1720.62	4356
1721.64	4290
1722.67	4288
1723.69	4288
1724.71	4234
1725.73	4286
1726.76	4234
1727.78	4300
1728.8	4258
1729.82	4308
1730.84	4298
1731.87	4314
1732.89	4296
1733.91	4300
1734.93	4206
1735.95	4306
1736.97	4204
1737.99	4240
1739.01	4270
1740.04	4208
1741.06	4302
1742.08	4294
1743.1	4252
1744.12	4196
1745.14	4300
1746.16	4354
1747.18	4262
1748.19	4256
1749.21	4270
1750.23	4228
1751.25	4248
1752.27	4274
1753.29	4224
1754.31	4270
1755.33	4218
1756.34	4266
1757.36	4246
1758.38	4170
1759.4	4184
1760.41	4284
1761.43	4256
1762.45	4286
1763.47	4270
1764.48	4230
1765.5	4244
1766.51	4320
1767.53	4280
1768.55	4286
1769.56	4294
1770.58	4244
1771.6	4270
1772.61	4238
1773.63	4342
1774.64	4180
1775.66	4302
1776.67	4188
1777.69	4340
1778.7	4302
1779.71	4246
1780.73	4334
1781.74	4290
1782.76	4228
1783.77	4208
1784.78	4276
1785.8	4336
1786.81	4224
1787.82	4262
1788.84	4262
1789.85	4234
1790.86	4282
1791.88	4238
1792.89	4238
1793.9	4294
1794.91	4202
1795.92	4280
1796.94	4230
1797.95	4244
1798.96	4214
1799.97	4280
1800.98	4322
1801.99	4290
1803	4222
1804.01	4192
1805.02	4276
1806.03	4202
1807.04	4208
1808.05	4232
1809.06	4204
1810.07	4202
1811.08	4212
1812.09	4262
1813.1	4166
1814.11	4226
1815.12	4312
1816.13	4270
1817.14	4166
1818.14	4158
1819.15	4226
1820.16	4188
1821.17	4152
1822.18	4174
1823.18	4170
1824.19	4146
1825.2	4164
1826.21	4140
1827.21	4194
1828.22	4214
1829.23	4210
1830.23	4140
1831.24	4172
1832.25	4072
1833.25	4206
1834.26	4228
1835.27	4102
1836.27	4142
1837.28	4210
1838.28	4232
1839.29	4130
1840.29	4138
1841.3	4078
1842.3	4210
1843.31	4150
1844.31	4170
1845.31	4134
1846.32	4150
1847.32	4200
1848.33	4178
1849.33	4162
1850.33	4132
1851.34	4150
1852.34	4112
1853.34	4172
1854.35	4066
1855.35	4102
1856.35	4112
1857.35	4040
1858.36	4158
1859.36	4048
1860.36	4064
1861.36	4106
1862.36	4108
1863.36	4188
1864.36	4096
1865.37	3994
1866.37	4050
1867.37	4064
1868.37	4140
1869.37	4004
1870.37	4120
1871.37	4100
1872.37	4022
1873.37	4054
1874.37	4156
1875.37	4098
1876.37	4108
1877.37	4074
1878.37	3998
1879.37	4024
1880.36	4132
1881.36	4068
1882.36	4068
1883.36	4046
1884.36	4134
1885.36	4084
1886.35	4018
1887.35	4048
1888.35	4094
1889.35	4058
1890.34	3996
1891.34	4062
1892.34	4078
1893.34	4056
1894.33	4050
1895.33	4072
1896.33	4040
1897.32	4094
1898.32	3998
1899.31	4080
1900.31	4066
1901.3	4060
1902.3	4074
1903.3	4042
1904.29	4114
1905.29	3984
1906.28	4032
1907.27	4072
1908.27	4028
1909.26	4098
1910.26	4078
1911.25	4008
1912.25	4058
1913.24	4084
1914.23	4198
1915.23	4024
1916.22	4078
1917.21	4116
1918.21	4126
1919.2	4080
1920.19	3970
1921.18	4084
1922.18	3992
1923.17	4040
1924.16	4102
1925.15	4082
1926.14	4098
1927.14	4038
1928.13	4090
1929.12	4034
1930.11	4072
1931.1	4116
1932.09	4070
1933.08	4026
1934.07	4014
1935.06	4044
1936.05	4016
1937.04	4068
1938.03	4024
1939.02	4008
1940.01	4046
1941	4032
1941.99	4032
1942.98	4010
1943.97	4050
1944.96	4028
1945.95	3998
1946.94	3990
1947.92	4054
1948.91	4116
1949.9	3988
1950.89	4038
1951.88	4048
1952.86	3976
1953.85	4026
1954.84	3974
1955.83	3930
1956.81	3964
1957.8	3964
1958.79	4032
1959.77	3924
1960.76	4008
1961.75	4032
1962.73	3962
1963.72	3958
1964.7	4016
1965.69	3942
1966.68	3988
1967.66	4016
1968.65	3924
1969.63	3984
1970.62	3918
1971.6	3900
1972.59	3974
1973.57	4006
1974.55	4032
1975.54	3892
1976.52	3898
1977.51	3904
1978.49	3988
1979.47	3952
1980.46	3948
1981.44	3922
1982.42	3968
1983.41	3930
1984.39	3904
1985.37	3962
1986.35	3964
1987.34	3922
1988.32	3940
1989.3	3882
1990.28	3938
1991.27	3914
1992.25	3942
1993.23	3952
1994.21	3990
1995.19	3886
1996.17	3834
1997.15	3842
1998.13	3866
1999.11	3880
2000.09	3914
2001.07	3892
2002.05	3962
2003.03	3906
2004.01	3928
2004.99	3878
2005.97	3852
2006.95	3960
2007.93	3872
2008.91	3918
2009.89	3898
2010.87	3912
2011.85	3914
2012.82	3888
2013.8	3966
2014.78	3870
2015.76	3920
2016.74	3930
2017.72	3814
2018.69	3944
2019.67	3938
2020.65	3890
2021.62	3884
2022.6	3906
2023.58	3894
2024.55	3894
2025.53	3891
2026.51	3888
2027.48	3884
2028.46	3832
2029.44	3814
2030.41	3924
2031.39	3944
2032.36	3942
2033.34	3876
2034.31	3932
2035.29	3840
2036.26	3932
2037.24	3816
2038.21	3842
2039.19	3862
2040.16	3794
2041.14	3862
2042.11	3856
2043.08	3876
2044.06	3876
2045.03	3902
2046	3892
2046.98	3878
2047.95	3860
2048.92	3840
2049.9	3808
2050.87	3850
2051.84	3848
2052.81	3772
2053.79	3814
2054.76	3772
2055.73	3920
2056.7	3862
2057.67	3772
2058.64	3816
2059.61	3844
2060.59	3890
2061.56	3820
2062.53	3772
2063.5	3810
2064.47	3778
2065.44	3762
2066.41	3860
2067.38	3790
2068.35	3786
2069.32	3842
2070.29	3780
2071.26	3810
2072.23	3810
2073.2	3784
2074.17	3746
2075.14	3838
2076.1	3744
2077.07	3886
2078.04	3776
2079.01	3718
2079.98	3782
2080.95	3736
2081.91	3756
2082.88	3688
2083.85	3776
2084.82	3762
2085.78	3784
2086.75	3788
2087.72	3752
2088.68	3676
2089.65	3786
2090.62	3770
2091.58	3792
2092.55	3750
2093.52	3726
2094.48	3656
2095.45	3772
2096.41	3716
2097.38	3794
2098.35	3712
2099.31	3706
2100.28	3728
2101.24	3742
2102.21	3694
2103.17	3678
2104.14	3754
2105.1	3744
2106.06	3734
2107.03	3698
2107.99	3662
2108.96	3686
2109.92	3766
2110.88	3682
2111.85	3700
2112.81	3770
2113.77	3704
2114.73	3796
2115.7	3698
2116.66	3704
2117.62	3708
2118.58	3648
2119.55	3692
2120.51	3698
2121.47	3732
2122.43	3694
2123.39	3702
2124.36	3664
2125.32	3690
2126.28	3684
2127.24	3662
2128.2	3696
2129.16	3646
2130.12	3624
2131.08	3686
2132.04	3600
2133	3618
2133.96	3724
2134.92	3708
2135.88	3684
2136.84	3674
2137.8	3706
2138.76	3704
2139.72	3702
2140.68	3656
2141.64	3678
2142.59	3526
2143.55	3630
2144.51	3658
2145.47	3578
2146.43	3616
2147.39	3660
2148.34	3578
2149.3	3668
2150.26	3580
2151.22	3644
2152.17	3624
2153.13	3606
2154.09	3572
2155.04	3566
2156	3620
2156.96	3550
2157.91	3598
2158.87	3580
2159.82	3564
2160.78	3606
2161.74	3582
2162.69	3586
2163.65	3590
2164.6	3570
2165.56	3566
2166.51	3580
2167.47	3528
2168.42	3656
2169.38	3546
2170.33	3606
2171.29	3632
2172.24	3568
2173.19	3566
2174.15	3464
2175.1	3528
2176.05	3552
2177.01	3552
2177.96	3440
2178.91	3518
2179.87	3528
2180.82	3494
2181.77	3516
2182.73	3514
2183.68	3594
2184.63	3500
2185.58	3486
2186.53	3452
2187.49	3496
2188.44	3436
2189.39	3474
2190.34	3530
2191.29	3494
2192.24	3492
2193.19	3498
2194.14	3500
2195.09	3426
2196.05	3516
2197	3504
2197.95	3518
2198.9	3482
2199.85	3486
2200.8	3432
2201.75	3446
2202.7	3488
2203.64	3456
2204.59	3458
2205.54	3460
2206.49	3462
2207.44	3426
2208.39	3508
2209.34	3444
2210.29	3476
2211.23	3386
2212.18	3396
2213.13	3468
2214.08	3456
2215.03	3364
2215.97	3386
2216.92	3422
2217.87	3434
2218.81	3448
2219.76	3464.59
2220.71	3397.58
2221.66	3446.57
2222.6	3398.48
2223.55	3410.42
2224.49	3443.2
2225.44	3377.58
2226.39	3439.67
2227.33	3389.66
2228.28	3454.69
2229.22	3393.74
2230.17	3438.87
2231.11	3412.2
2232.06	3406.75
2233	3397.45
2233.95	3404.96
2234.89	3430.08
2235.84	3468.07
2236.78	3465.63
2237.73	3437.06
2238.67	3402.81
2239.61	3393.65
2240.56	3434.42
2241.5	3422.79
2242.45	3408.2
2243.39	3473.86
2244.33	3438.43
2245.28	3410.3
2246.22	3409.42
2247.16	3433.16
2248.1	3453.1
2249.05	3471.89
2249.99	3434.6
2250.93	3506.96
2251.87	3413.38
2252.81	3480.45
2253.76	3455.72
2254.7	3469.64
2255.64	3433.26
2256.58	3417.17
2257.52	3390.73
2258.46	3480.64
2259.4	3451.93
2260.34	3439.37
2261.28	3475.53
2262.23	3437.15
2263.17	3524.59
2264.11	3522.46
2265.05	3468.69
2265.99	3438.08
2266.93	3470
2267.87	3459.22
2268.8	3424.57
2269.74	3472.6
2270.68	3455.73
2271.62	3494.42
2272.56	3479.7
2273.5	3502.09
2274.44	3434.41
2275.38	3442.96
2276.32	3444.74
2277.25	3497.5
2278.19	3455.8
2279.13	3437.2
2280.07	3448.3
2281.01	3445.91
2281.94	3481.5
2282.88	3475.29
2283.82	3456.27
2284.76	3466.86
2285.69	3485.23
2286.63	3459.73
2287.57	3443.91
2288.5	3465.89
2289.44	3427.14
2290.37	3457.4
2291.31	3460.42
2292.25	3483.4
2293.18	3439.09
2294.12	3445.03
2295.05	3412.99
2295.99	3479.91
2296.92	3477.66
2297.86	3459.75
2298.79	3461.47
2299.73	3408.54
2300.66	3438.43
2301.6	3488.01
2302.53	3402.34
2303.47	3403.3
2304.4	3425.57
2305.34	3462.66
2306.27	3462.22
2307.2	3509.57
2308.14	3487.29
2309.07	3463.83
2310	3458.03
2310.94	3447.23
2311.87	3446.51
2312.8	3496.73
2313.74	3496.72
2313.98	3490
2314.92	3456
2315.86	3454
2316.79	3428
2317.73	3448
2318.67	3452
2319.6	3442
2320.54	3416
2321.48	3396
2322.41	3436
2323.35	3442
2324.29	3476
2325.22	3454
2326.16	3402
2327.09	3462
2328.03	3468
2328.96	3400
2329.9	3412
2330.83	3338
2331.77	3362
2332.7	3378
2333.64	3458
2334.57	3412
2335.51	3462
2336.44	3400
2337.38	3410
2338.31	3424
2339.24	3412
2340.18	3482
2341.11	3452
2342.04	3434
2342.98	3348
2343.91	3424
2344.84	3408
2345.78	3400
2346.71	3424
2347.64	3330
2348.57	3352
2349.51	3416
2350.44	3358
2351.37	3464
2352.3	3414
2353.24	3378
2354.17	3362
2355.1	3424
2356.03	3392
2356.96	3396
2357.89	3358
2358.82	3352
2359.75	3390
2360.68	3386
2361.62	3400
2362.55	3398
2363.48	3422
2364.41	3392
2365.34	3418
2366.27	3370
2367.2	3424
2368.13	3304
2369.05	3388
2369.98	3382
2370.91	3400
2371.84	3356
2372.77	3406
2373.7	3472
2374.63	3352
2375.56	3432
2376.49	3300
2377.41	3372
2378.34	3346
2379.27	3378
2380.2	3378
2381.12	3296
2382.05	3356
2382.98	3352
2383.91	3386
2384.83	3340
2385.76	3350
2386.69	3350
2387.61	3362
2388.54	3326
2389.47	3344
2390.39	3360
2391.32	3360
2392.25	3280
2393.17	3318
2394.1	3342
2395.02	3336
2395.95	3284
2396.87	3368
2397.8	3354
2398.72	3322
2399.65	3292
2400.57	3354
2401.5	3346
2402.42	3340
2403.35	3310
2404.27	3356
2405.2	3332
2406.12	3278
2407.04	3290
2407.97	3314
2408.89	3338
2409.81	3320
2410.74	3320
2411.66	3322
2412.58	3252
2413.51	3332
2414.43	3272
2415.35	3302
2416.27	3306
2417.2	3306
2418.12	3290
2419.04	3316
2419.96	3336
2420.88	3306
2421.81	3254
2422.73	3288
2423.65	3218
2424.57	3288
2425.49	3244
2426.41	3270
2427.33	3292
2428.25	3256
2429.17	3260
2430.1	3234
2431.02	3236
2431.94	3322
2432.85	3232
2433.77	3314
2434.7	3274
2435.61	3272
2436.53	3238
2437.45	3312
2438.37	3316
2439.29	3216
2440.21	3326
2441.13	3244
2442.05	3230
2442.97	3180
2443.88	3322
2444.8	3260
2445.72	3244
2446.64	3220
2447.56	3206
2448.47	3240
2449.39	3208
2450.31	3268
2451.23	3226
2452.14	3306
2453.06	3230
2453.98	3150
2454.89	3212
2455.81	3268
2456.73	3224
2457.64	3276
2458.56	3168
2459.48	3322
2460.39	3196
2461.31	3300
2462.22	3212
2463.14	3250
2464.05	3268
2464.97	3180
2465.88	3204
2466.8	3232
2467.71	3136
2468.63	3234
2469.54	3176
2470.46	3282
2471.37	3200
2472.29	3208
2473.2	3220
2474.11	3240
2475.03	3208
2475.94	3162
2476.86	3158
2477.77	3186
2478.68	3208
2479.59	3244
2480.51	3278
2481.42	3178
2482.33	3198
2483.25	3262
2484.16	3170
2485.07	3258
2485.98	3164
2486.9	3220
2487.81	3178
2488.72	3190
2489.63	3126
2490.54	3154
2491.45	3158
2492.36	3134
2493.28	3198
2494.19	3122
2495.1	3208
2496.01	3172
2496.92	3218
2497.83	3146
2498.74	3150
2499.65	3124
2500.56	3154
2501.47	3180
2502.38	3050
2503.29	3160
2504.2	3118
2505.11	3192
2506.02	3182
2506.93	3134
2507.83	3044
2508.74	3144
2509.65	3168
2510.56	3146
2511.47	3150
2512.38	3166
2513.29	3208
2514.19	3132
2515.1	3156
2516.01	3084
2516.92	3164
2517.82	3180
2518.73	3136
2519.64	3114
2520.55	3166
2521.45	3196
2522.36	3056
2523.27	3096
2524.17	3122
2525.08	3048
2525.99	3076
2526.89	3112
2527.8	3144
2528.7	3078
2529.61	3116
2530.51	3122
2531.42	3078
2532.33	3134
2533.23	3042
2534.14	3100
2535.04	3078
2535.95	3110
2536.85	3098
2537.75	3064
2538.66	3184
2539.56	3090
2540.47	3124
2541.37	3036
2542.28	3102
2543.18	3078
2544.08	3114
2544.99	3044
2545.89	3078
2546.79	3068
2547.7	3058
2548.6	3096
2549.5	3006
2550.4	3048
2551.31	3072
2552.21	3034
2553.11	3028
2554.01	3064
2554.92	3012
2555.82	3088
2556.72	3026
2557.62	3072
2558.52	3078
2559.42	3038
2560.32	3036
2561.23	3088
2562.13	3032
2563.03	3044
2563.93	3046
2564.83	3018
2565.73	3022
2566.63	3104
2567.53	3044
2568.43	2990
2569.33	3082
2570.23	3084
2571.13	3038
2572.03	3050
2572.93	2978
2573.83	3010
2574.73	3048
2575.63	3006
2576.52	3006
2577.42	3068
2578.32	3018
2579.22	3032
2580.12	3068
2581.02	2948
2581.91	3068
2582.81	3020
2583.71	2996
2584.61	2968
2585.51	3026
2586.4	2988
2587.3	3022
2588.2	2920
2589.09	3036
2589.99	2976
2590.89	2934
2591.78	2954
2592.68	3020
2593.58	2940
2594.47	2954
2595.37	2950
2596.26	2912
2597.16	2998
2598.06	2902
2598.95	2920
2599.85	2956
2600.74	2956
2601.64	2990
2602.53	2994
2603.43	2962
2604.32	2996
2605.22	2934
2606.11	2962
2607.01	2958
2607.9	2982
2608.79	3000
2609.69	3008
2610.58	2936
2611.48	3006
2612.37	3006
2613.26	2940
2614.16	2954
2615.05	2934
2615.94	2958
2616.84	2946
2617.73	2932
2618.62	2938
2619.51	2956
2620.41	2886
2621.3	2936
2622.19	2920
2623.08	2886
2623.97	2938
2624.87	2894
2625.76	2912
2626.65	2966
2627.54	2924
2628.43	2904
2629.32	2942
2630.21	2920
2631.1	2974
2631.99	2886
2632.89	2910
2633.78	2916
2634.67	2930
2635.56	2908
2636.45	2910
2637.34	2856
2638.23	2868
2639.12	2912
2640.01	2914
2640.9	2910
2641.78	2908
2642.67	2952
2643.56	2860
2644.45	2932
2645.34	2880
2646.23	2946
2647.12	2828
2648.01	2858
2648.89	2878
2649.78	2948
2650.67	2798
2651.56	2862
2652.45	2804
2653.33	2894
2654.22	2880
2655.11	2810
2656	2882
2656.88	2824
2657.77	2840
2658.66	2846
2659.54	2858
2660.43	2850
2661.32	2910
2662.2	2798
2663.09	2876
2663.97	2856
2664.86	2874
2665.75	2864
2666.63	2774
2667.52	2886
2668.4	2838
2669.29	2858
2670.17	2856
2671.06	2782
2671.94	2800
2672.83	2778
2673.71	2858
2674.6	2850
2675.48	2868
2676.37	2870
2677.25	2840
2678.13	2772
2679.02	2808
2679.9	2838
2680.78	2812
2681.67	2760
2682.55	2894
2683.43	2914
2684.32	2846
2685.2	2840
2686.08	2886
2686.97	2892
2687.85	2798
2688.73	2830
2689.61	2838
2690.5	2834
2691.38	2828
2692.26	2770
2693.14	2822
2694.02	2796
2694.9	2794
2695.79	2774
2696.67	2798
2697.55	2772
2698.43	2756
2699.31	2816
2700.19	2696
2701.07	2724
2701.95	2802
2702.83	2790
2703.71	2784
2704.59	2828
2705.47	2752
2706.35	2832
2707.23	2728
2708.11	2754
2708.99	2790
2709.87	2744
2710.75	2748
2711.63	2762
2712.51	2766
2713.39	2762
2714.27	2810
2715.14	2770
2716.02	2780
2716.9	2742
2717.78	2738
2718.66	2738
2719.54	2774
2720.41	2746
2721.29	2718
2722.17	2728
2723.05	2696
2723.92	2764
2724.8	2722
2725.68	2696
2726.55	2776
2727.43	2760
2728.31	2774
2729.18	2700
2730.06	2752
2730.94	2746
2731.81	2728
2732.69	2720
2733.57	2678
2734.44	2714
2735.32	2686
2736.19	2698
2737.07	2732
2737.94	2652
2738.82	2694
2739.69	2760
2740.57	2740
2741.44	2728
2742.32	2698
2743.19	2764
2744.07	2662
2744.94	2728
2745.81	2652
2746.69	2638
2747.56	2606
2748.44	2596
2749.31	2740
2750.18	2636
2751.06	2668
2751.93	2698
2752.8	2634
2753.68	2646
2754.55	2726
2755.42	2678
2756.29	2720
2757.17	2662
2758.04	2688
2758.91	2730
2759.78	2644
2760.65	2654
2761.53	2664
2762.4	2682
2763.27	2678
2764.14	2672
2765.01	2622
2765.88	2654
2766.76	2674
2767.63	2598
2768.5	2626
2769.37	2658
2770.24	2582
2771.11	2620
2771.98	2640
2772.85	2602
2773.72	2626
2774.59	2640
2775.46	2626
2776.33	2694
2777.2	2546
2778.07	2652
2778.94	2622
2779.81	2662
2780.67	2580
2781.54	2588
2782.41	2618
2783.28	2618
2784.15	2648
2785.02	2648
2785.89	2646
2786.75	2570
2787.62	2608
2788.49	2618
2789.36	2620
2790.23	2610
2791.09	2634
2791.96	2554
2792.83	2658
2793.7	2558
2794.56	2540
2795.43	2604
2796.3	2630
2797.16	2616
2798.03	2632
2798.9	2586
2799.76	2588
2800.63	2648
2801.49	2532
2802.36	2562
2803.23	2580
2804.09	2584
2804.96	2596
2805.82	2552
2806.69	2574
2807.55	2540
2808.42	2486
2809.28	2526
2810.15	2588
2811.01	2552
2811.88	2550
2812.74	2584
2813.61	2498
2814.47	2558
2815.33	2548
2816.2	2572
2817.06	2564
2817.93	2564
2818.79	2572
2819.65	2568
2820.52	2582
2821.38	2548
2822.24	2602
2823.11	2540
2823.97	2504
2824.83	2526
2825.69	2542
2826.55	2470
2827.42	2514
2828.28	2556
2829.14	2472
2830	2472
2830.87	2502
2831.73	2454
2832.59	2518
2833.45	2520
2834.31	2470
2835.17	2538
2836.03	2502
2836.89	2514
2837.76	2514
2838.62	2472
2839.48	2492
2840.34	2458
2841.2	2460
2842.06	2538
2842.92	2444
2843.78	2508
2844.64	2528
2845.5	2476
2846.36	2530
2847.22	2536
2848.07	2456
2848.93	2420
2849.79	2474
2850.65	2476
2851.51	2488
2852.37	2446
2853.23	2462
2854.09	2446
2854.95	2446
2855.8	2484
2856.66	2410
2857.52	2506
2858.38	2432
2859.24	2472
2860.09	2406
2860.95	2444
2861.81	2486
2862.66	2436
2863.52	2446
2864.38	2392
2865.24	2414
2866.09	2380
2866.95	2366
2867.81	2402
2868.66	2394
2869.52	2348
2870.37	2367
2871.23	2386
2872.09	2428
2872.94	2448
2873.8	2472
2874.65	2392
2875.51	2426
2876.36	2426
2877.22	2394
2878.07	2452
2878.93	2398
2879.78	2324
2880.64	2408
2881.49	2318
2882.35	2392
2883.2	2320
2884.05	2346
2884.91	2388
2885.76	2342
2886.62	2394
2887.47	2394
2888.32	2354
2889.18	2372
2890.03	2350
2890.88	2396
2891.74	2364
2892.59	2392
2893.44	2350
2894.29	2324
2895.15	2302
2896	2372
2896.85	2366
2897.7	2354
2898.55	2374
2899.41	2392
2900.26	2350
2901.11	2350
2901.96	2370
2902.81	2392
2903.66	2364
2904.52	2376
2905.37	2382
2906.22	2348
2907.07	2362
2907.92	2334
2908.77	2302
2909.62	2340
2910.47	2372
2911.32	2320
2912.17	2324
2913.02	2316
2913.87	2298
2914.72	2392
2915.57	2336
2916.42	2328
2917.27	2360
2918.12	2306
2918.97	2318
2919.82	2302
2920.66	2320
2921.51	2288
2922.36	2310
2923.21	2332
2924.06	2264
2924.91	2378
2925.75	2362
2926.6	2318
2927.45	2370
2928.3	2338
2929.15	2314
2929.99	2344
2930.84	2312
2931.69	2322
2932.54	2318
2933.38	2332
2934.23	2394
2935.08	2262
2935.92	2308
2936.77	2262
2937.62	2302
2938.46	2266
2939.31	2296
2940.15	2314
2941	2242
2941.85	2278
2942.69	2250
2943.54	2282
2944.38	2316
2945.23	2352
2946.07	2282
2946.92	2294
2947.76	2312
2948.61	2242
2949.45	2222
2950.3	2264
2951.14	2264
2951.99	2262
2952.83	2266
2953.67	2308
2954.52	2326
2955.36	2326
2956.21	2314
2957.05	2224
2957.89	2264
2958.74	2298
2959.58	2298
2960.42	2280
2961.27	2298
2962.11	2252
2962.95	2230
2963.79	2258
2964.64	2248
2965.48	2214
2966.32	2240
2967.16	2226
2968.01	2266
2968.85	2226
2969.69	2268
2970.53	2264
2971.37	2154
2972.21	2232
2973.05	2254
2973.9	2216
2974.74	2194
2975.58	2200
2976.42	2236
2977.26	2226
2978.1	2214
2978.94	2162
2979.78	2194
2980.62	2244
2981.46	2154
2982.3	2202
2983.14	2230
2983.98	2186
2984.82	2198
2985.66	2226
2986.5	2216
2987.34	2182
2988.18	2160
2989.02	2200
2989.86	2164
2990.69	2132
2991.53	2206
2992.37	2176
2993.21	2180
2994.05	2212
2994.89	2166
2995.72	2150
2996.56	2146
2997.4	2156
2998.24	2132
2999.08	2150
2999.91	2124
3000.75	2130
3001.59	2212
3002.43	2148
3003.26	2174
3004.1	2098
3004.94	2158
3005.77	2176
3006.61	2102
3007.45	2168
3008.28	2156
3009.12	2186
3009.95	2140
3010.79	2142
3011.63	2144
3012.46	2148
3013.3	2098
3014.13	2158
3014.97	2154
3015.8	2116
3016.64	2162
3017.47	2092
3018.31	2170
3019.14	2156
3019.98	2102
3020.81	2062
3021.65	2120
3022.48	2072
3023.31	2048
3024.15	2096
3024.98	2100
3025.82	2128
3026.65	2096
3027.48	2110
3028.32	2076
3029.15	2124
3029.98	2090
3030.82	2060
3031.65	2140
3032.48	2074
3033.31	2034
3034.15	2092
3034.98	2032
3035.81	2122
3036.64	2032
3037.48	2082
3038.31	2082
3039.14	2110
3039.97	2106
3040.8	2055.69
3041.63	2077.07
3042.47	2090.75
3043.3	2075.2
3044.13	1966.14
3044.96	2057.29
3045.79	2083.32
3046.62	2087.98
3047.45	2057.2
3048.28	2097.53
3049.11	1994.5
3049.94	2051.7
3050.77	2061.51
3051.6	2085.68
3052.43	2065.51
3053.26	1998.48
3054.09	2025.8
3054.92	2037.95
3055.75	2053.47
3056.58	2046.91
3057.41	2019.76
3058.24	2051.65
3059.07	1993.96
3059.9	2033.07
3060.73	2026.01
3061.55	2066.97
3062.38	2047.66
3063.21	2040.97
3064.04	2002.77
3064.87	2031.54
3065.7	2042.83
3066.52	2024.22
3067.35	2007.64
3068.18	2013.59
3069.01	1981.36
3069.83	2007.8
3070.66	1987.26
3071.49	2013.34
3072.32	1963.91
3073.14	2025.42
3073.97	1994.06
3074.8	2024.48
3075.62	2019.16
3076.45	2004.79
3077.28	1971.27
3078.1	1980.16
3078.93	1940.89
3079.75	1990.95
3080.58	1965.37
3081.41	1930.15
3082.23	2006.89
3083.06	1974.92
3083.88	1995.85
3084.71	1989.04
3085.53	1967.95
3086.36	1946.38
3087.18	1962.58
3088.01	1969.26
3088.83	1982.75
3089.66	1967.68
3090.48	1956.5
3091.31	1952.63
3092.13	1931.01
3092.96	1912.84
3093.78	1925.11
3094.6	1932.81
3095.43	1916.63
3096.25	1912.33
3097.07	1939.47
3097.9	1899.07
3098.72	1912.97
3099.54	1907.99
3100.37	1911.91
3101.19	1948.34
3102.01	1937.66
3102.84	1903.85
3103.66	1900.8
3104.48	1925.8
3105.3	1891.64
3106.13	1832.46
3106.95	1887.08
3107.77	1897.74
3108.59	1919.36
3109.41	1902.63
3110.24	1879.11
3111.06	1860.56
3111.88	1905.26
3112.7	1905.87
3113.52	1887.74
3114.34	1883.38
3115.16	1866.22
3115.98	1876.23
3116.81	1861.21
3117.63	1866.88
3118.45	1851.38
3119.27	1871.53
3120.09	1846.29
3120.91	1849.15
3121.73	1849.4
3122.55	1834.3
3123.37	1853.44
3123.73	1864
3124.56	1828
3125.38	1834
3126.21	1790
3127.03	1790
3127.85	1820
3128.68	1836
3129.5	1796
3130.32	1844
3131.15	1822
3131.97	1840
3132.79	1828
3133.62	1846
3134.44	1798
3135.26	1846
3136.08	1834
3136.91	1798
3137.73	1816
3138.55	1872
3139.37	1818
3140.19	1816
3141.02	1800
3141.84	1786
3142.66	1820
3143.48	1790
3144.3	1770
3145.13	1786
3145.95	1780
3146.77	1736
3147.59	1834
3148.41	1822
3149.23	1790
3150.05	1820
3150.87	1796
3151.69	1854
3152.51	1740
3153.33	1814
3154.15	1730
3154.97	1796
3155.79	1780
3156.61	1780
3157.43	1778
3158.25	1766
3159.07	1816
3159.89	1796
3160.71	1766
3161.53	1806
3162.35	1758
3163.17	1768
3163.98	1736
3164.8	1762
3165.62	1788
3166.44	1768
3167.26	1774
3168.08	1752
3168.89	1762
3169.71	1732
3170.53	1784
3171.35	1716
3172.17	1764
3172.98	1764
3173.8	1750
3174.62	1796
3175.43	1736
3176.25	1732
3177.07	1798
3177.89	1774
3178.7	1714
3179.52	1750
3180.33	1704
3181.15	1752
3181.97	1738
3182.78	1734
3183.6	1728
3184.41	1728
3185.23	1704
3186.05	1760
3186.86	1746
3187.68	1686
3188.49	1826
3189.31	1734
3190.12	1760
3190.94	1748
3191.75	1754
3192.57	1740
3193.38	1790
3194.2	1738
3195.01	1722
3195.82	1688
3196.64	1724
3197.45	1768
3198.27	1740
3199.08	1694
3199.89	1728
3200.71	1730
3201.52	1748
3202.33	1728
3203.15	1730
3203.96	1674
3204.77	1682
3205.59	1698
3206.4	1742
3207.21	1728
3208.02	1724
3208.84	1748
3209.65	1690
3210.46	1714
3211.27	1676
3212.09	1726
3212.9	1652
3213.71	1658
3214.52	1700
3215.33	1730
3216.14	1702
3216.96	1712
3217.77	1728
3218.58	1710
3219.39	1704
3220.2	1700
3221.01	1718
3221.82	1698
3222.63	1734
3223.44	1678
3224.25	1680
3225.06	1708
3225.87	1694
3226.68	1694
3227.49	1668
3228.3	1682
3229.11	1686
3229.92	1716
3230.73	1644
3231.54	1704
3232.35	1644
3233.16	1640
3233.97	1704
3234.77	1698
3235.58	1618
3236.39	1664
3237.2	1672
3238.01	1644
3238.82	1686
3239.63	1660
3240.43	1656
3241.24	1660
3242.05	1662
3242.86	1650
3243.66	1688
3244.47	1668
3245.28	1630
3246.09	1642
3246.89	1704
3247.7	1678
3248.51	1656
3249.31	1680
3250.12	1658
3250.93	1630
3251.73	1656
3252.54	1660
3253.35	1646
3254.15	1656
3254.96	1632
3255.76	1648
3256.57	1680
3257.38	1642
3258.18	1638
3258.99	1676
3259.79	1654
3260.6	1612
3261.4	1652
3262.21	1616
3263.01	1622
3263.82	1598
3264.62	1612
3265.43	1632
3266.23	1602
3267.04	1594
3267.84	1592
3268.64	1592
3269.45	1638
3270.25	1614
3271.06	1588
3271.86	1610
3272.66	1580
3273.47	1584
3274.27	1578
3275.07	1600
3275.88	1616
3276.68	1576
3277.48	1616
3278.28	1580
3279.09	1606
3279.89	1528
3280.69	1616
3281.49	1598
3282.3	1564
3283.1	1596
3283.9	1644
3284.7	1528
3285.5	1580
3286.31	1570
3287.11	1532
3287.91	1542
3288.71	1566
3289.51	1586
3290.31	1532
3291.11	1580
3291.91	1572
3292.71	1542
3293.51	1544
3294.31	1586
3295.12	1556
3295.92	1590
3296.72	1606
3297.52	1564
3298.32	1584
3299.12	1580
3299.92	1578
3300.72	1562
3301.51	1508
3302.31	1568
3303.11	1506
3303.91	1528
3304.71	1596
3305.51	1544
3306.31	1556
3307.11	1570
3307.91	1550
3308.71	1556
3309.5	1522
3310.3	1538
3311.1	1530
3311.9	1510
3312.7	1522
3313.49	1480
3314.29	1522
3315.09	1518
3315.89	1564
3316.69	1528
3317.48	1568
3318.28	1508
3319.08	1514
3319.87	1556
3320.67	1566
3321.47	1484
3322.26	1592
3323.06	1502
3323.86	1554
3324.65	1476
3325.45	1506
3326.25	1532
3327.04	1546
3327.84	1528
3328.63	1492
3329.43	1492
3330.22	1560
3331.02	1520
3331.81	1522
3332.61	1552
3333.4	1518
3334.2	1510
3334.99	1476
3335.79	1536
3336.58	1518
3337.38	1526
3338.17	1530
3338.97	1506
3339.76	1502
3340.56	1534
3341.35	1536
3342.14	1474
3342.94	1468
3343.73	1484
3344.52	1464
3345.32	1510
3346.11	1518
3346.9	1524
3347.7	1494
3348.49	1532
3349.28	1514
3350.08	1508
3350.87	1518
3351.66	1530
3352.45	1502
3353.25	1518
3354.04	1508
3354.83	1534
3355.62	1462
3356.41	1478
3357.21	1482
3358	1526
3358.79	1460
3359.58	1496
3360.37	1508
3361.16	1518
3361.95	1478
3362.75	1488
3363.54	1514
3364.33	1502
3365.12	1488
3365.91	1486
3366.7	1492
3367.49	1456
3368.28	1472
3369.07	1488
3369.86	1486
3370.65	1532
3371.44	1514
3372.23	1440
3373.02	1506
3373.81	1418
3374.6	1466
3375.39	1490
3376.18	1494
3376.97	1424
3377.75	1472
3378.54	1462
3379.33	1462
3380.12	1432
3380.91	1454
3381.7	1452
3382.49	1458
3383.27	1480
3384.06	1520
3384.85	1450
3385.64	1460
3386.43	1502
3387.21	1506
3388	1454
3388.79	1454
3389.58	1420
3390.36	1468
3391.15	1396
3391.94	1462
3392.72	1468
3393.51	1446
3394.3	1438
3395.08	1420
3395.87	1430
3396.66	1468
3397.44	1456
3398.23	1472
3399.01	1454
3399.8	1416
3400.59	1430
3401.37	1392
3402.16	1412
3402.94	1360
3403.73	1428
3404.51	1400
3405.3	1440
3406.08	1404
3406.87	1456
3407.65	1398
3408.44	1388
3409.22	1420
3410.01	1432
3410.79	1408
3411.58	1458
3412.36	1390
3413.14	1388
3413.93	1406
3414.71	1424
3415.5	1374
3416.28	1444
3417.06	1386
3417.85	1440
3418.63	1400
3419.41	1448
3420.2	1402
3420.98	1358
3421.76	1374
3422.54	1370
3423.33	1372
3424.11	1370
3424.89	1384
3425.67	1378
3426.46	1388
3427.24	1378
3428.02	1400
3428.8	1384
3429.58	1394
3430.36	1404
3431.15	1390
3431.93	1392
3432.71	1358
3433.49	1396
3434.27	1378
3435.05	1356
3435.83	1398
3436.61	1354
3437.4	1392
3438.18	1342
3438.96	1346
3439.74	1354
3440.52	1398
3441.3	1380
3442.08	1382
3442.86	1380
3443.64	1402
3444.42	1378
3445.2	1344
3445.98	1362
3446.76	1386
3447.53	1394
3448.31	1340
3449.09	1412
3449.87	1412
3450.65	1336
3451.43	1418
3452.21	1392
3452.99	1376
3453.77	1320
3454.54	1370
3455.32	1362
3456.1	1382
3456.88	1306
3457.66	1310
3458.43	1368
3459.21	1392
3459.99	1374
3460.77	1378
3461.54	1342
3462.32	1376
3463.1	1398
3463.88	1374
3464.65	1340
3465.43	1370
3466.21	1342
3466.98	1344
3467.76	1330
3468.53	1344
3469.31	1352
3470.09	1360
3470.86	1328
3471.64	1322
3472.42	1352
3473.19	1332
3473.97	1358
3474.74	1328
3475.52	1306
3476.29	1334
3477.07	1328
3477.84	1326
3478.62	1316
3479.39	1338
3480.17	1290
3480.94	1324
3481.72	1362
3482.49	1294
3483.27	1304
3484.04	1322
3484.82	1320
3485.59	1326
3486.36	1304
3487.14	1326
3487.91	1358
3488.68	1326
3489.46	1280
3490.23	1282
3491	1322
3491.78	1306
3492.55	1300
3493.32	1320
3494.1	1322
3494.87	1330
3495.64	1304
3496.42	1298
3497.19	1314
3497.96	1308
3498.73	1314
3499.5	1318
3500.28	1282
3501.05	1314
3501.82	1320
3502.59	1308
3503.36	1280
3504.14	1312
3504.91	1306
3505.68	1332
3506.45	1304
3507.22	1266
3507.99	1302
3508.76	1268
3509.53	1290
3510.3	1292
3511.07	1280
3511.84	1314
3512.61	1302
3513.38	1318
3514.16	1316
3514.92	1266
3515.7	1300
3516.46	1250
3517.23	1298
3518	1270
3518.77	1266
3519.54	1278
3520.31	1276
3521.08	1290
3521.85	1286
3522.62	1284
3523.39	1270
3524.16	1264
3524.93	1272
3525.69	1300
3526.46	1292
3527.23	1242
3528	1272
3528.77	1262
3529.53	1278
3530.3	1254
3531.07	1266
3531.84	1286
3532.61	1300
3533.37	1312
3534.14	1266
3534.91	1292
3535.68	1234
3536.44	1308
3537.21	1230
3537.98	1268
3538.74	1296
3539.51	1240
3540.28	1282
3541.04	1294
3541.81	1242
3542.58	1220
3543.34	1244
3544.11	1226
3544.87	1262
3545.64	1310
3546.4	1276
3547.17	1288
3547.94	1272
3548.7	1288
3549.47	1258
3550.23	1284
3551	1250
3551.76	1262
3552.53	1266
3553.29	1240
3554.06	1236
3554.82	1234
3555.59	1236
3556.35	1228
3557.11	1234
3557.88	1250
3558.64	1196
3559.41	1194
3560.17	1250
3560.93	1224
3561.7	1256
3562.46	1244
3563.22	1222
3563.99	1252
3564.75	1238
3565.51	1272
3566.28	1272
3567.04	1264
3567.8	1242
3568.56	1244
3569.33	1222
3570.09	1222
3570.85	1230
3571.61	1184
3572.38	1218
3573.14	1232
3573.9	1242
3574.66	1248
3575.42	1196
3576.19	1236
3576.95	1206
3577.71	1224
3578.47	1248
3579.23	1230
3579.99	1218
3580.75	1250
3581.51	1218
3582.28	1214
3583.04	1192
3583.8	1252
3584.56	1238
3585.32	1182
3586.08	1196
3586.84	1188
3587.6	1226
3588.36	1240
3589.12	1204
3589.88	1214
3590.64	1226
3591.4	1222
3592.16	1172
3592.92	1230
3593.67	1208
3594.43	1196
3595.19	1240
3595.95	1186
3596.71	1180
3597.47	1228
3598.23	1162
3598.99	1236
3599.75	1218
3600.5	1200
3601.26	1200
3602.02	1200
3602.78	1198
3603.54	1220
3604.29	1192
3605.05	1186
3605.81	1224
3606.57	1186
3607.32	1180
3608.08	1212
3608.84	1196
3609.59	1218
3610.35	1168
3611.11	1206
3611.87	1196
3612.62	1214
3613.38	1206
3614.13	1193
3614.89	1180
3615.65	1178
3616.4	1214
3617.16	1138
3617.92	1156
3618.67	1174
3619.43	1218
3620.18	1170
3620.94	1148
3621.69	1160
3622.45	1166
3623.2	1150
3623.96	1180
3624.71	1188
3625.47	1154
3626.22	1194
3626.98	1174
3627.73	1172
3628.49	1184
3629.24	1178
3630	1156
3630.75	1140
3631.5	1168
3632.26	1132
3633.01	1166
3633.77	1150
3634.52	1150
3635.27	1138
3636.03	1118
3636.78	1178
3637.53	1152
3638.29	1156
3639.04	1148
3639.79	1178
3640.55	1156
3641.3	1166
3642.05	1084
3642.8	1172
3643.56	1134
3644.31	1168
3645.06	1168
3645.81	1112
3646.56	1124
3647.32	1128
3648.07	1150
3648.82	1090
3649.57	1132
3650.32	1114
3651.07	1154
3651.83	1108
3652.58	1158
3653.33	1148
3654.08	1156
3654.83	1146
3655.58	1130
3656.33	1130
3657.08	1176
3657.83	1090
3658.58	1140
3659.33	1134
3660.08	1132
3660.83	1114
3661.58	1196
3662.33	1138
3663.08	1142
3663.83	1136
3664.58	1132
3665.33	1090
3666.08	1100
3666.83	1078
3667.58	1102
3668.33	1130
3669.08	1104
3669.83	1132
3670.57	1166
3671.32	1104
3672.07	1106
3672.82	1154
3673.57	1096
3674.32	1156
3675.07	1124
3675.81	1136
3676.56	1120
3677.31	1138
3678.06	1110
3678.8	1118
3679.55	1098
3680.3	1112
3681.05	1178
3681.79	1120
3682.54	1108
3683.29	1076
3684.04	1120
3684.78	1102
3685.53	1118
3686.28	1120
3687.02	1100
3687.77	1126
3688.51	1100
3689.26	1084
3690.01	1104
3690.75	1104
3691.5	1094
3692.24	1128
3692.99	1086
3693.74	1076
3694.48	1102
3695.23	1130
3695.97	1092
3696.72	1080
3697.46	1098
3698.21	1098
3698.95	1106
3699.7	1132
3700.44	1126
3701.19	1124
3701.93	1096
3702.68	1148
3703.42	1126
3704.16	1112
3704.91	1090
3705.65	1088
3706.4	1084
3707.14	1048
3707.88	1066
3708.63	1056
3709.37	1040
3710.11	1086
3710.86	1076
3711.6	1116
3712.34	1108
3713.09	1092
3713.83	1094
3714.57	1028
3715.31	1092
3716.06	1038
3716.8	1090
3717.54	1074
3718.28	1022
3719.03	1090
3719.77	1124
3720.51	1094
3721.25	1068
3721.99	1134
3722.74	1070
3723.48	1140
3724.22	1046
3724.96	1056
3725.7	1108
3726.44	1022
3727.18	1084
3727.92	1078
3728.67	1082
3729.41	1078
3730.15	1078
3730.89	1064
3731.63	1080
3732.37	1028
3733.11	1082
3733.85	1040
3734.59	1068
3735.33	1052
3736.07	1018
3736.81	1050
3737.55	1032
3738.29	1080
3739.03	996
3739.77	1100
3740.51	1090
3741.24	1038
3741.98	1062
3742.72	1014
3743.46	1056
3744.2	1084
3744.94	1096
3745.68	1090
3746.42	1066
3747.15	1076
3747.89	1026
3748.63	1032
3749.37	1026
3750.11	1060
3750.84	1030
3751.58	1078
3752.32	1006
3753.06	1062
3753.79	1044
3754.53	1034
3755.27	1040
3756.01	1042
3756.74	1038
3757.48	1052
3758.22	1092
3758.95	1046
3759.69	1058
3760.43	1036
3761.16	1028
3761.9	1062
3762.64	998
3763.37	1066.06
3764.11	1024.56
3764.84	1009.29
3765.58	1023
3766.32	1042.46
3767.05	1040.51
3767.79	1002.75
3768.52	1034.06
3769.26	1009.13
3769.99	1013.59
3770.73	1027.41
3771.46	1058.03
3772.2	984.796
3772.93	1078.14
3773.67	1045.5
3774.4	1032.04
3775.14	1047.66
3775.87	1033.27
3776.61	1061.77
3777.34	1015.32
3778.07	1001.06
3778.81	1026.77
3779.54	1034.83
3780.28	996.08
3781.01	1007.73
3781.74	1014.82
3782.48	1031.51
3783.21	1038.26
3783.94	1017.79
3784.68	1007.83
3785.41	1025.63
3786.14	1012.11
3786.88	1036.13
3787.61	1028.78
3788.34	1015.54
3789.07	1037.93
3789.81	1018.51
3790.54	1013.29
3791.27	1025.56
3792	1016.29
3792.74	1005.09
3793.47	1006.19
3794.2	1039.1
3794.93	990.078
3795.66	1022.74
3796.4	1016.28
3797.13	1010.81
3797.86	1032.93
3798.59	1022.74
3799.32	1015.7
3800.05	1015.52
3800.78	1018.96
3801.52	1012.25
3802.25	1019.86
3802.98	1007.27
3803.71	1017.08
3804.44	999.473
3805.17	1015.16
3805.9	1005.49
3806.63	993.084
3807.36	978.804
3808.09	999.993
3808.82	997.754
3809.55	998.806
3810.28	992.352
3811.01	1018.47
3811.74	999.442
3812.47	1006.2
3813.2	1003.78
3813.93	984.701
3814.66	992.108
3815.38	1006.35
3816.11	984.712
3816.84	985.412
3817.57	998.703
3818.3	982.205
3819.03	975.775
3819.76	998.903
3820.49	1006.7
3821.21	999.275
3821.94	1007.59
3822.67	999.551
3823.4	995.323
3824.13	1004.74
3824.85	981.034
3825.58	997.51
3826.31	1009.34
3827.04	992.176
3827.77	998.454
3828.49	959.504
3829.22	995.94
3829.95	1003.88
3830.67	979.207
3831.4	983.159
3832.13	979.396
3832.85	994.762
3833.58	998.496
3834.31	979.212
3835.03	986.602
3835.76	972.222
3836.49	972.448
3837.21	989.045
3837.94	959.714
3838.52	950
3839.25	994
3839.98	952
3840.71	932
3841.44	1004
3842.17	968
3842.9	952
3843.63	988
3844.36	944
3845.09	992
3845.82	1020
3846.55	950
3847.28	966
3848	930
3848.73	968
3849.46	982
3850.19	956
3850.92	920
3851.65	970
3852.38	970
3853.1	980
3853.83	948
3854.56	928
3855.29	938
3856.02	984
3856.74	970
3857.47	998
3858.2	982
3858.93	944
3859.65	960
3860.38	972
3861.11	978
3861.84	966
3862.56	966
3863.29	978
3864.02	968
3864.74	904
3865.47	1016
3866.2	952
3866.92	954
3867.65	966
3868.38	968
3869.1	934
3869.83	934
3870.55	978
3871.28	954
3872.01	970
3872.73	954
3873.46	962
3874.18	930
3874.91	980
3875.63	984
3876.36	930
3877.08	960
3877.81	952
3878.53	960
3879.26	948
3879.98	894
3880.71	950
3881.43	944
3882.16	940
3882.88	940
3883.6	934
3884.33	940
3885.05	914
3885.78	970
3886.5	922
3887.22	930
3887.95	930
3888.67	942
3889.4	940
3890.12	942
3890.84	946
3891.57	916
3892.29	950
3893.01	968
3893.73	970
3894.46	932
3895.18	930
3895.9	948
3896.63	946
3897.35	942
3898.07	920
3898.79	930
3899.51	908
3900.24	930
3900.96	926
3901.68	918
3902.4	936
3903.12	924
3903.84	948
3904.57	912
3905.29	956
3906.01	924
3906.73	916
3907.45	934
3908.17	928
3908.89	946
3909.61	938
3910.33	924
3911.06	946
3911.78	908
3912.5	926
3913.22	914
3913.94	918
3914.66	950
3915.38	924
3916.1	916
3916.82	914
3917.54	936
3918.26	934
3918.98	912
3919.69	910
3920.41	924
3921.13	928
3921.85	940
3922.57	916
3923.29	938
3924.01	960
3924.73	884
3925.45	910
3926.17	932
3926.88	900
3927.6	906
3928.32	876
3929.04	920
3929.76	908
3930.47	938
3931.19	934
3931.91	916
3932.63	896
3933.35	912
3934.06	910
3934.78	894
3935.5	876
3936.22	920
3936.93	920
3937.65	902
3938.37	912
3939.08	936
3939.8	888
3940.52	918
3941.23	920
3941.95	932
3942.67	920
3943.38	916
3944.1	864
3944.82	884
3945.53	950
3946.25	880
3946.96	920
3947.68	906
3948.4	900
3949.11	888
3949.83	904
3950.54	922
3951.26	906
3951.97	892
3952.69	892
3953.4	882
3954.12	896
3954.83	884
3955.55	894
3956.26	928
3956.98	856
3957.69	918
3958.4	876
3959.12	888
3959.83	900
3960.55	862
3961.26	906
3961.97	898
3962.69	890
3963.4	900
3964.12	944
3964.83	906
3965.54	896
3966.26	892
3966.97	902
3967.68	904
3968.4	878
3969.11	882
3969.82	890
3970.53	846
3971.25	894
3971.96	890
3972.67	868
3973.38	866
3974.1	862
3974.81	878
3975.52	828
3976.23	892
3976.94	864
3977.66	870
3978.37	884
3979.08	876
3979.79	878
3980.5	884
3981.21	892
3981.92	858
3982.64	840
3983.35	866
3984.06	860
3984.77	870
3985.48	890
3986.19	912
3986.9	862
3987.61	888
3988.32	870
3989.03	876
3989.74	850
3990.45	898
3991.16	870
3991.87	892
3992.58	848
3993.29	878
3994	896
3994.71	842
3995.42	852
3996.13	860
3996.84	850
3997.55	888
3998.26	840
3998.97	872
3999.67	818
