#Acq. time (s)=	10
#Accumulations=	1
#Range (cm-¹)=	200...4000
#Windows=	5
#Autofocus=	Off
#AutoExposure=	Off
#Spike filter=	Off
#Delay time (s)=	0
#Binning=	1
#Readout mode=	Signal
#DeNoise=	Off
#ICS correction=	Off
#Dark correction=	Off
#Inst. Process=	Off
#Instrument=	LabRAM HR Evol
#Detector=	Syncerity OE
#Objective=	x100_VIS
#Grating=	600 (500nm)
#ND Filter=	25%
#Laser=	633nm_Edge
#Hole=	100.021
#Range=	Visible
#Project=	Omar
#Sample=	03-07-23
#Site=	1
#Title=	OR
#Remark=	
#Date=	03.07.2023 13:35
#Acquired=	03.07.2023 13:35:01
200.404	2484
201.671	2382
202.938	2424
204.205	2460
205.472	2470
206.737	2444
208.003	2376
209.269	2420
210.535	2404
211.799	2424
213.064	2446
214.33	2390
215.595	2486
216.858	2480
218.122	2434
219.387	2508
220.649	2420
221.913	2486
223.177	2454
224.439	2480
225.703	2498
226.966	2494
228.227	2500
229.49	2558
230.752	2548
232.013	2518
233.275	2522
234.536	2496
235.798	2518
237.059	2498
238.319	2526
239.58	2520
240.839	2558
242.1	2552
243.361	2526
244.619	2536
245.879	2530
247.138	2542
248.398	2530
249.655	2502
250.915	2574
252.172	2588
253.431	2530
254.688	2562
255.947	2568
257.204	2582
258.462	2558
259.718	2554
260.976	2542
262.232	2554
263.487	2504
264.744	2558
266	2532
267.256	2524
268.511	2512
269.767	2622
271.022	2512
272.276	2560
273.532	2608
274.786	2580
276.04	2516
277.295	2578
278.548	2552
279.801	2518
281.055	2586
282.308	2628
283.561	2596
284.814	2592
286.066	2510
287.318	2666
288.572	2590
289.823	2624
291.074	2576
292.327	2588
293.578	2626
294.828	2656
296.079	2698
297.331	2628
298.581	2714
299.831	2620
301.08	2684
302.33	2726
303.581	2628
304.83	2664
306.079	2696
307.327	2658
308.576	2668
309.825	2718
311.073	2664
312.321	2700
313.569	2646
314.816	2652
316.064	2702
317.311	2680
318.558	2734
319.806	2754
321.052	2690
322.299	2674
323.545	2742
324.79	2674
326.036	2656
327.282	2744
328.527	2708
329.772	2748
331.017	2692
332.261	2678
333.506	2708
334.75	2670
335.994	2708
337.238	2730
338.482	2708
339.725	2658
340.968	2740
342.211	2716
343.454	2718
344.697	2724
345.939	2744
347.182	2764
348.424	2736
349.666	2746
350.907	2720
352.149	2742
353.39	2796
354.631	2756
355.87	2728
357.111	2802
358.352	2742
359.592	2768
360.832	2778
362.072	2818
363.311	2788
364.549	2810
365.789	2788
367.028	2826
368.267	2810
369.505	2762
370.742	2738
371.981	2774
373.219	2742
374.457	2746
375.694	2776
376.93	2804
378.168	2764
379.405	2834
380.642	2862
381.877	2800
383.113	2802
384.35	2834
385.584	2768
386.82	2712
388.056	2778
389.291	2800
390.525	2764
391.76	2818
392.995	2786
394.228	2822
395.463	2762
396.696	2796
397.93	2794
399.164	2850
400.396	2912
401.63	2788
402.863	2884
404.095	2886
405.328	2870
406.559	2870
407.791	2902
409.022	2920
410.254	2922
411.486	2870
412.717	2896
413.948	2922
415.178	2888
416.409	2896
417.639	2884
418.87	2868
420.099	2918
421.329	2942
422.558	2976
423.788	2930
425.016	2990
426.244	2990
427.474	3014
428.701	2982
429.93	2958
431.158	2990
432.386	2962
433.613	2906
434.84	3018
436.068	3078
437.294	3028
438.522	3014
439.748	3046
440.974	3014
442.201	2994
443.426	3004
444.651	2928
445.878	3038
447.103	3004
448.327	3002
449.553	3052
450.777	3064
452.001	3016
453.225	2976
454.45	3010
455.674	2990
456.897	3066
458.121	3000
459.344	3076
460.567	3026
461.789	3036
463.012	3058
464.235	2964
465.457	3048
466.679	3052
467.9	2994
469.122	3016
470.344	3070
471.565	2990
472.786	3062
474.006	3052
475.227	3090
476.447	2974
477.668	3050
478.888	3074
480.107	3048
481.327	3006
482.546	3012
483.765	3072
484.984	3026
486.202	3086
487.421	3076
488.639	3146
489.857	3104
491.075	3024
492.292	3092
493.51	3076
494.727	3082
495.944	3096
497.161	3124
498.377	3136
499.594	3124
500.81	3170
502.026	3092
503.242	3088
504.458	3094
505.673	3064
506.888	3212
508.104	3070
509.318	3076
510.533	3118
511.748	3138
512.962	3070
514.176	3150
515.39	3118
516.602	3196
517.816	3202
519.029	3084
520.242	3146
521.455	3132
522.668	3130
523.881	3156
525.092	3150
526.304	3084
527.516	3136
528.728	3124
529.939	3138
531.149	3118
532.361	3120
533.572	3180
534.783	3172
535.992	3122
537.202	3140
538.413	3148
539.623	3132
540.831	3130
542.041	3130
543.25	3120
544.458	3118
545.667	3072
546.876	3098
548.084	3136
549.292	3142
550.501	3104
551.707	3140
552.915	3162
554.123	3190
555.329	3158
556.537	3128
557.743	3182
558.95	3148
560.156	3112
561.362	3166
562.568	3142
563.773	3160
564.979	3162
566.184	3134
567.389	3204
568.595	3138
569.799	3182
571.004	3116
572.207	3150
573.412	3184
574.615	3222
575.82	3152
577.022	3146
578.226	3210
579.429	3190
580.631	3146
581.834	3252
583.036	3198
584.239	3200
585.44	3208
586.643	3250
587.844	3192
589.045	3182
590.247	3200
591.448	3212
592.649	3148
593.849	3180
595.049	3284
596.25	3208
597.45	3224
598.649	3286
599.85	3272
601.049	3190
602.248	3250
603.448	3258
604.646	3214
605.844	3218
607.042	3254
608.241	3282
609.439	3224
610.637	3270
611.834	3348
613.032	3250
614.229	3274
615.426	3330
616.622	3248
617.819	3288
619.016	3320
620.212	3372
621.408	3272
622.603	3304
623.799	3270
624.994	3344
626.19	3314
627.385	3352
628.58	3294
629.774	3358
630.969	3328
632.163	3312
633.356	3342
634.55	3324
635.744	3388
636.938	3462
638.131	3452
639.324	3346
640.517	3358
641.71	3404
642.902	3418
644.094	3336
645.286	3372
646.478	3342
647.67	3346
648.861	3402
650.052	3310
651.243	3450
652.434	3360
653.625	3466
654.815	3378
656.006	3372
657.196	3366
658.384	3386
659.574	3394
660.764	3292
661.953	3414
663.142	3412
664.331	3446
665.52	3340
666.709	3414
667.897	3336
669.084	3404
670.272	3358
671.46	3372
672.648	3398
673.835	3448
675.021	3446
676.208	3386
677.395	3364
678.582	3372
679.768	3278
680.953	3456
682.14	3356
683.326	3442
684.512	3316
685.696	3384
686.881	3424
688.067	3478
689.252	3386
690.435	3390
691.62	3432
692.804	3388
693.987	3448
695.171	3356
696.355	3424
697.538	3416
698.721	3414
699.905	3430
701.087	3476
702.27	3414
703.451	3380
704.634	3476
705.816	3480
706.997	3428
708.179	3470
709.36	3454
710.542	3402
711.722	3486
712.903	3472
714.083	3498
715.264	3400
716.445	3544
717.624	3444
718.805	3462
719.984	3464
721.162	3466
722.342	3488
723.52	3476
724.7	3508
725.878	3448
727.057	3438
728.235	3446
729.414	3436
730.591	3496
731.768	3514
732.946	3482
734.123	3562
735.301	3500
736.477	3446
737.653	3500
738.83	3522
740.006	3506
741.182	3544
742.358	3546
743.534	3470
744.709	3540
745.885	3406
747.06	3528
748.234	3458
749.41	3534
750.584	3462
751.758	3502
752.931	3526
754.106	3486
755.28	3508
756.453	3466
757.626	3430
758.8	3490
759.973	3560
761.145	3456
762.318	3480
763.49	3522
764.662	3484
765.835	3534
767.006	3564
768.178	3532
769.349	3446
770.52	3502
771.691	3518
772.861	3482
774.033	3458
775.203	3596
776.373	3498
777.543	3570
778.713	3548
779.883	3586
781.052	3592
782.221	3558
783.39	3550
784.559	3566
785.727	3500
786.896	3566
788.064	3556
789.232	3526
790.4	3524
791.568	3600
792.735	3634
793.903	3520
795.07	3592
796.237	3502
797.404	3556
798.57	3514
799.737	3558
800.903	3526
802.068	3556
803.234	3526
804.399	3506
805.565	3630
806.73	3610
807.896	3512
809.061	3586
810.224	3566
811.389	3574
812.553	3548
813.717	3558
814.881	3528
816.045	3612
817.208	3594
818.371	3608
819.535	3574
820.698	3628
821.859	3590
823.022	3616
824.185	3558
825.347	3620
826.508	3670
827.67	3648
828.832	3704
829.993	3632
831.154	3606
832.316	3614
833.476	3568
834.637	3618
835.797	3650
836.957	3634
838.117	3646
839.278	3738
840.436	3632
841.596	3704
842.755	3664
843.914	3688
845.074	3644
846.232	3602
847.391	3662
848.548	3662
849.707	3726
850.864	3734
852.022	3680
853.179	3746
854.337	3658
855.493	3594
856.651	3716
857.807	3706
858.964	3686
860.12	3670
861.277	3694
862.432	3686
863.589	3724
864.744	3602
865.9	3704
867.055	3630
868.209	3682
869.365	3670
870.519	3752
871.674	3686
872.828	3764
873.982	3714
875.136	3642
876.29	3678
877.443	3714
878.597	3756
879.75	3722
880.902	3716
882.056	3736
883.208	3658
884.36	3714
885.512	3668
886.665	3768
887.816	3692
888.967	3674
890.118	3628
891.271	3734
892.421	3674
893.572	3672
894.722	3746
895.874	3694
897.024	3642
898.174	3730
899.323	3714
900.473	3708
901.622	3632
902.771	3626
903.922	3758
905.07	3676
906.219	3688
907.367	3664
908.516	3678
909.664	3646
910.811	3680
911.959	3726
913.107	3604
914.254	3732
915.401	3746
916.55	3670
917.696	3746
918.843	3734
919.99	3678
921.136	3698
922.282	3744
923.428	3710
924.574	3726
925.719	3754
926.863	3730
928.009	3684
929.154	3692
930.299	3750
931.443	3808
932.588	3732
933.732	3732
934.876	3710
936.02	3724
937.164	3712
938.308	3736
939.45	3720
940.593	3716
941.736	3742
942.879	3718
944.022	3768
945.165	3752
946.306	3678
947.448	3772
948.59	3706
949.732	3768
950.874	3792
952.014	3776
953.155	3858
954.296	3802
955.437	3764
956.577	3824
957.718	3784
958.858	3790
959.997	3752
961.137	3866
962.277	3776
963.416	3790
964.555	3788
965.695	3724
966.833	3824
967.972	3806
969.111	3832
970.248	3810
971.387	3866
972.524	3762
973.662	3802
974.8	3722
975.936	3826
977.074	3824
978.21	3764
979.348	3862
980.483	3870
981.62	3826
982.757	3816
983.893	3818
985.029	3920
986.164	3744
987.299	3820
988.435	3824
989.569	3816
990.705	3918
991.839	3794
992.974	3854
994.108	3866
995.243	3828
996.376	3796
997.509	3790
998.644	3856
999.777	3870
1000.91	3806
1002.04	3812
1003.18	3864
1004.31	3766
1005.44	3868
1006.57	3844
1007.71	3818
1008.84	3900
1009.97	3870
1011.1	3770
1012.23	3892
1013.36	3910
1014.49	3844
1015.63	3826
1016.76	3840
1017.89	3862
1019.02	3948
1020.15	3862
1021.28	3884
1022.41	3894
1023.54	3868
1024.66	3908
1025.79	3848
1026.92	3910
1028.05	3934
1029.18	3858
1030.31	3904
1031.44	3952
1032.56	3906
1033.69	3936
1034.82	3982
1035.95	3934
1037.08	3920
1038.2	3946
1039.33	3936
1040.46	3908
1041.58	3954
1042.71	4004
1043.83	3964
1044.96	3974
1046.09	3956
1047.21	3934
1048.34	3952
1049.46	3960
1050.59	3982
1051.71	4018
1052.84	3976
1053.96	4076
1055.09	4078
1056.21	4058
1057.33	4028
1058.46	3974
1059.58	3920
1060.71	4032
1061.83	3956
1062.95	4030
1064.07	3998
1065.2	4000
1066.32	3998
1067.44	3988
1068.56	3928
1069.69	3976
1070.81	4058
1071.93	4064
1073.05	3964
1074.17	3980
1075.29	3960
1076.41	4004
1077.54	3948
1078.66	3930
1079.78	4006
1080.9	3994
1082.02	3998
1083.14	3938
1084.25	4002
1085.37	3992
1086.49	3986
1087.61	3970
1088.73	4022
1089.85	4014
1090.97	3958
1092.09	3946
1093.21	3964
1094.32	4012
1095.44	3946
1096.56	3940
1097.68	4052
1098.79	3958
1099.91	3900
1101.03	3920
1102.14	3974
1103.26	3930
1104.38	4034
1105.49	3926
1106.61	4006
1107.72	4002
1108.84	3970
1109.96	3964
1111.07	3918
1112.19	3988
1113.3	3886
1114.42	3958
1115.53	4006
1116.64	4042
1117.76	3922
1118.87	3956
1119.99	3972
1121.1	3954
1122.21	4000
1123.33	3976
1124.44	4038
1125.55	4002
1126.66	4086
1127.78	3960
1128.89	4038
1130	3978
1131.11	4012
1132.23	4032
1133.34	3996
1134.45	4004
1135.56	4046
1136.67	4032
1137.78	3966
1138.89	4072
1140	4022
1141.11	4046
1142.22	4008
1143.33	4122
1144.44	4082
1145.55	4072
1146.66	4088
1147.77	4010
1148.88	4058
1149.99	4014
1151.1	3992
1152.21	4086
1153.32	4034
1154.42	4148
1155.53	4090
1156.64	4036
1157.75	4026
1158.85	4104
1159.96	4090
1161.07	4176
1162.17	4108
1163.28	4108
1164.39	4132
1165.49	4148
1166.6	4100
1167.71	4122
1168.81	4120
1169.92	4104
1171.02	4118
1172.13	4138
1173.23	4158
1174.34	4164
1175.44	4128
1176.55	4094
1177.65	4200
1178.76	4098
1179.86	4186
1180.97	4202
1182.07	4172
1183.17	4136
1184.28	4174
1185.38	4114
1186.48	4096
1187.58	4088
1188.69	4178
1189.79	4108
1190.89	4060
1191.99	4120
1193.1	4138
1194.2	4118
1195.3	4130
1196.4	4216
1197.5	4148
1198.6	4014
1199.7	4138
1200.8	4076
1201.9	4028
1203	4096
1204.1	4030
1205.2	4036
1206.3	4090
1207.4	4102
1208.5	4076
1209.6	4194
1210.7	4060
1211.8	4016
1212.9	4154
1214	4074
1215.1	4082
1216.19	4046
1217.29	4060
1218.39	4082
1219.49	4116
1220.58	4008
1221.68	4056
1222.78	4064
1223.88	4096
1224.97	4154
1226.07	4058
1227.17	4090
1228.26	4028
1229.36	4146
1230.45	4022
1231.55	4136
1232.65	4080
1233.74	4106
1234.84	4126
1235.93	4068
1237.02	4086
1238.12	4184
1239.21	4104
1240.31	4068
1241.4	4066
1242.5	4130
1243.59	4122
1244.68	4022
1245.78	4100
1246.87	4116
1247.96	4112
1249.06	4148
1250.15	4168
1251.24	4114
1252.33	4280
1253.43	4106
1254.52	4174
1255.61	4152
1256.7	4064
1257.79	4086
1258.88	4226
1259.98	4128
1261.07	4140
1262.16	4246
1263.25	4158
1264.34	4174
1265.43	4162
1266.52	4158
1267.61	4150
1268.7	4196
1269.79	4174
1270.88	4098
1271.96	4210
1273.05	4268
1274.14	4226
1275.23	4164
1276.32	4172
1277.41	4074
1278.5	4238
1279.58	4194
1280.67	4216.98
1281.76	4211.56
1282.85	4206.8
1283.93	4160.32
1285.02	4168.8
1286.11	4263.89
1287.19	4251.96
1288.28	4258.12
1289.37	4220.5
1290.45	4256.18
1291.54	4217.65
1292.63	4274.5
1293.71	4281.07
1294.8	4253.73
1295.88	4288.21
1296.97	4256.69
1298.05	4233.73
1299.14	4295.08
1300.22	4322.54
1301.31	4243.94
1302.39	4247.39
1303.47	4305.17
1304.56	4271.94
1305.64	4332.6
1306.72	4329.69
1307.81	4320.99
1308.89	4338.66
1309.97	4288.81
1311.06	4333.23
1312.14	4282.16
1313.22	4253.57
1314.3	4376.21
1315.39	4323.38
1316.47	4338.48
1317.55	4320.51
1318.63	4327.24
1319.71	4302.73
1320.79	4332
1321.88	4305.1
1322.96	4359.48
1324.04	4300.38
1325.12	4336.73
1326.2	4375.76
1327.28	4430.41
1328.36	4346.44
1329.44	4415.1
1330.52	4354.93
1331.6	4326.76
1332.68	4373.6
1333.76	4370.59
1334.84	4361.11
1335.91	4389.13
1336.99	4382
1338.07	4407.53
1339.15	4409.19
1340.23	4360.5
1341.31	4371.62
1342.38	4390.76
1343.46	4399.87
1344.54	4473.39
1345.62	4427.01
1346.69	4389.63
1347.77	4404.66
1348.85	4420.89
1349.92	4386.46
1351	4403.87
1352.08	4422.8
1353.15	4403.19
1354.23	4417.14
1355.3	4430.55
1356.38	4395.28
1357.46	4396.22
1358.53	4395.42
1359.6	4419.08
1360.68	4403.33
1361.75	4478.92
1362.83	4457.93
1363.9	4474.13
1364.98	4495.92
1366.05	4488.97
1367.13	4427.59
1368.2	4432.58
1369.27	4449.86
1370.35	4452.19
1371.42	4449.96
1372.49	4469.23
1373.56	4433.23
1374.64	4431.23
1375.71	4446.93
1376.78	4497.75
1377.85	4506.4
1378.93	4461.97
1380	4484.8
1381.07	4476.47
1382.14	4421.58
1383.21	4474.79
1384.28	4539.35
1385.35	4505.85
1386.43	4481.04
1387.5	4491.27
1388.57	4516.1
1389.64	4484.45
1390.13	4440
1391.2	4448
1392.28	4492
1393.35	4432
1394.43	4490
1395.5	4468
1396.57	4422
1397.65	4470
1398.72	4460
1399.8	4434
1400.87	4506
1401.94	4422
1403.02	4434
1404.09	4432
1405.17	4488
1406.24	4542
1407.31	4490
1408.38	4472
1409.46	4558
1410.53	4442
1411.6	4432
1412.67	4432
1413.74	4424
1414.82	4562
1415.89	4540
1416.96	4410
1418.03	4448
1419.1	4440
1420.17	4454
1421.24	4386
1422.31	4494
1423.38	4366
1424.45	4408
1425.52	4474
1426.59	4392
1427.66	4470
1428.73	4420
1429.8	4440
1430.87	4366
1431.94	4538
1433.01	4374
1434.08	4428
1435.14	4424
1436.21	4420
1437.28	4418
1438.35	4430
1439.42	4460
1440.48	4418
1441.55	4536
1442.62	4484
1443.68	4370
1444.75	4432
1445.82	4456
1446.89	4446
1447.95	4442
1449.02	4484
1450.08	4446
1451.15	4444
1452.22	4484
1453.28	4482
1454.35	4388
1455.41	4506
1456.48	4470
1457.54	4436
1458.61	4466
1459.67	4424
1460.73	4448
1461.8	4430
1462.86	4540
1463.93	4418
1464.99	4380
1466.05	4468
1467.12	4432
1468.18	4462
1469.24	4412
1470.31	4520
1471.37	4432
1472.43	4442
1473.49	4448
1474.56	4414
1475.62	4464
1476.68	4458
1477.74	4466
1478.8	4504
1479.86	4482
1480.93	4556
1481.99	4460
1483.05	4450
1484.11	4570
1485.17	4552
1486.23	4434
1487.29	4478
1488.35	4496
1489.41	4492
1490.47	4498
1491.53	4472
1492.59	4434
1493.65	4494
1494.71	4566
1495.76	4410
1496.82	4524
1497.88	4460
1498.94	4556
1500	4574
1501.06	4452
1502.11	4540
1503.17	4462
1504.23	4446
1505.29	4522
1506.34	4560
1507.4	4508
1508.46	4464
1509.51	4498
1510.57	4558
1511.63	4458
1512.68	4490
1513.74	4516
1514.8	4458
1515.85	4488
1516.91	4468
1517.96	4448
1519.02	4482
1520.07	4496
1521.13	4422
1522.18	4446
1523.24	4424
1524.29	4472
1525.34	4446
1526.4	4576
1527.45	4476
1528.51	4544
1529.56	4484
1530.61	4462
1531.67	4462
1532.72	4422
1533.77	4364
1534.82	4484
1535.88	4502
1536.93	4474
1537.98	4462
1539.03	4500
1540.08	4356
1541.14	4444
1542.19	4478
1543.24	4504
1544.29	4462
1545.34	4490
1546.39	4498
1547.44	4412
1548.49	4476
1549.54	4476
1550.59	4454
1551.64	4404
1552.69	4560
1553.74	4496
1554.79	4440
1555.84	4476
1556.89	4524
1557.94	4506
1558.99	4460
1560.04	4496
1561.09	4520
1562.14	4496
1563.18	4546
1564.23	4438
1565.28	4506
1566.33	4422
1567.37	4494
1568.42	4416
1569.47	4428
1570.52	4502
1571.56	4462
1572.61	4534
1573.66	4452
1574.7	4404
1575.75	4456
1576.79	4380
1577.84	4434
1578.89	4492
1579.93	4450
1580.98	4424
1582.02	4514
1583.07	4414
1584.11	4460
1585.16	4480
1586.2	4478
1587.25	4412
1588.29	4414
1589.34	4486
1590.38	4454
1591.42	4482
1592.47	4476
1593.51	4416
1594.55	4464
1595.6	4486
1596.64	4460
1597.68	4418
1598.72	4460
1599.77	4464
1600.81	4464
1601.85	4462
1602.89	4482
1603.94	4546
1604.98	4418
1606.02	4464
1607.06	4470
1608.1	4468
1609.14	4494
1610.18	4454
1611.22	4440
1612.26	4458
1613.3	4540
1614.34	4440
1615.38	4422
1616.42	4480
1617.46	4446
1618.5	4458
1619.54	4572
1620.58	4424
1621.62	4440
1622.66	4472
1623.7	4440
1624.74	4466
1625.78	4526
1626.81	4468
1627.85	4412
1628.89	4464
1629.93	4404
1630.97	4490
1632	4396
1633.04	4482
1634.08	4470
1635.11	4500
1636.15	4474
1637.19	4424
1638.22	4400
1639.26	4390
1640.3	4432
1641.33	4356
1642.37	4404
1643.4	4364
1644.44	4470
1645.47	4430
1646.51	4436
1647.55	4340
1648.58	4366
1649.61	4304
1650.65	4380
1651.68	4316
1652.72	4276
1653.75	4386
1654.79	4326
1655.82	4274
1656.85	4338
1657.89	4318
1658.92	4278
1659.95	4294
1660.98	4192
1662.02	4248
1663.05	4320
1664.08	4206
1665.12	4190
1666.15	4210
1667.18	4242
1668.21	4202
1669.24	4232
1670.27	4138
1671.3	4182
1672.34	4184
1673.37	4142
1674.4	4172
1675.43	4220
1676.46	4096
1677.49	4230
1678.52	4176
1679.55	4122
1680.58	4212
1681.61	4138
1682.64	4142
1683.67	4128
1684.7	4140
1685.73	4192
1686.75	4198
1687.78	4144
1688.81	4102
1689.84	4076
1690.87	4124
1691.9	4134
1692.93	4114
1693.95	4096
1694.98	4122
1696.01	4144
1697.03	4164
1698.06	4120
1699.09	4128
1700.12	4142
1701.14	4038
1702.17	4102
1703.2	4140
1704.22	4092
1705.25	4160
1706.27	4098
1707.3	4054
1708.32	4050
1709.35	4092
1710.37	4060
1711.4	4136
1712.42	4060
1713.45	4092
1714.47	4102
1715.5	4122
1716.52	4136
1717.55	4092
1718.57	4010
1719.59	4074
1720.62	4070
1721.64	4074
1722.67	4042
1723.69	4034
1724.71	4000
1725.73	4060
1726.76	4056
1727.78	4072
1728.8	4114
1729.82	3978
1730.84	4064
1731.87	4034
1732.89	4054
1733.91	3986
1734.93	3984
1735.95	4018
1736.97	4082
1737.99	4060
1739.01	4036
1740.04	4082
1741.06	4034
1742.08	4020
1743.1	4060
1744.12	3994
1745.14	4008
1746.16	4042
1747.18	4028
1748.19	4022
1749.21	4056
1750.23	4096
1751.25	4056
1752.27	4106
1753.29	3946
1754.31	4034
1755.33	4098
1756.34	4086
1757.36	4010
1758.38	3992
1759.4	3958
1760.41	4084
1761.43	4104
1762.45	4026
1763.47	4080
1764.48	4082
1765.5	4042
1766.51	4108
1767.53	3962
1768.55	3992
1769.56	3994
1770.58	3998
1771.6	3982
1772.61	4078
1773.63	4032
1774.64	4034
1775.66	4092
1776.67	3956
1777.69	4092
1778.7	4066
1779.71	4050
1780.73	3948
1781.74	4046
1782.76	4030
1783.77	4008
1784.78	4080
1785.8	4104
1786.81	3966
1787.82	4010
1788.84	4104
1789.85	4006
1790.86	4078
1791.88	4024
1792.89	3984
1793.9	4080
1794.91	4026
1795.92	4016
1796.94	4016
1797.95	4024
1798.96	4064
1799.97	4072
1800.98	3982
1801.99	4034
1803	4038
1804.01	4050
1805.02	4114
1806.03	4078
1807.04	4054
1808.05	4008
1809.06	4070
1810.07	4020
1811.08	4020
1812.09	4052
1813.1	3992
1814.11	4000
1815.12	3958
1816.13	3974
1817.14	4052
1818.14	4034
1819.15	4000
1820.16	4012
1821.17	4006
1822.18	3976
1823.18	3968
1824.19	3950
1825.2	4008
1826.21	4010
1827.21	4010
1828.22	3950
1829.23	4020
1830.23	3978
1831.24	3900
1832.25	3908
1833.25	3962
1834.26	3996
1835.27	3964
1836.27	3970
1837.28	3880
1838.28	3916
1839.29	3918
1840.29	4040
1841.3	3948
1842.3	3994
1843.31	3960
1844.31	3972
1845.31	3934
1846.32	3908
1847.32	3938
1848.33	3904
1849.33	3956
1850.33	3932
1851.34	3950
1852.34	3866
1853.34	3948
1854.35	3840
1855.35	3930
1856.35	3878
1857.35	3974
1858.36	3906
1859.36	3862
1860.36	3868
1861.36	3912
1862.36	3870
1863.36	3948
1864.36	3926
1865.37	3850
1866.37	3938
1867.37	3872
1868.37	3890
1869.37	3826
1870.37	3872
1871.37	3870
1872.37	3892
1873.37	3930
1874.37	3942
1875.37	3898
1876.37	3852
1877.37	3864
1878.37	3906
1879.37	3884
1880.36	3872
1881.36	3848
1882.36	3942
1883.36	3856
1884.36	3890
1885.36	3862
1886.35	3874
1887.35	3848
1888.35	3842
1889.35	3878
1890.34	3836
1891.34	3882
1892.34	3858
1893.34	3924
1894.33	3900
1895.33	3920
1896.33	3858
1897.32	3882
1898.32	3940
1899.31	3902
1900.31	3854
1901.3	3882
1902.3	3836
1903.3	3888
1904.29	3830
1905.29	3796
1906.28	3868
1907.27	3892
1908.27	3914
1909.26	3850
1910.26	3798
1911.25	3784
1912.25	3872
1913.24	3830
1914.23	3778
1915.23	3882
1916.22	3896
1917.21	3868
1918.21	3848
1919.2	3854
1920.19	3906
1921.18	3824
1922.18	3898
1923.17	3842
1924.16	3842
1925.15	3866
1926.14	3836
1927.14	3860
1928.13	3858
1929.12	3828
1930.11	3828
1931.1	3800
1932.09	3842
1933.08	3798
1934.07	3920
1935.06	3830
1936.05	3768
1937.04	3826
1938.03	3874
1939.02	3792
1940.01	3842
1941	3910
1941.99	3842
1942.98	3864
1943.97	3804
1944.96	3722
1945.95	3770
1946.94	3790
1947.92	3840
1948.91	3800
1949.9	3826
1950.89	3814
1951.88	3838
1952.86	3794
1953.85	3778
1954.84	3874
1955.83	3778
1956.81	3850
1957.8	3822
1958.79	3854
1959.77	3808
1960.76	3732
1961.75	3782
1962.73	3800
1963.72	3764
1964.7	3776
1965.69	3764
1966.68	3810
1967.66	3702
1968.65	3764
1969.63	3724
1970.62	3692
1971.6	3740
1972.59	3822
1973.57	3704
1974.55	3712
1975.54	3766
1976.52	3792
1977.51	3832
1978.49	3802
1979.47	3726
1980.46	3754
1981.44	3756
1982.42	3670
1983.41	3676
1984.39	3746
1985.37	3772
1986.35	3712
1987.34	3742
1988.32	3730
1989.3	3694
1990.28	3784
1991.27	3714
1992.25	3796
1993.23	3776
1994.21	3744
1995.19	3738
1996.17	3752
1997.15	3664
1998.13	3702
1999.11	3676
2000.09	3764
2001.07	3786
2002.05	3784
2003.03	3720
2004.01	3686
2004.99	3722
2005.97	3756
2006.95	3708
2007.93	3652
2008.91	3716
2009.89	3716
2010.87	3738
2011.85	3738
2012.82	3808
2013.8	3686
2014.78	3796
2015.76	3704
2016.74	3744
2017.72	3710
2018.69	3638
2019.67	3756
2020.65	3716
2021.62	3744
2022.6	3724
2023.58	3668
2024.55	3652
2025.53	3664
2026.51	3676
2027.48	3688
2028.46	3734
2029.44	3672
2030.41	3614
2031.39	3726
2032.36	3656
2033.34	3642
2034.31	3670
2035.29	3684
2036.26	3552
2037.24	3586
2038.21	3734
2039.19	3622
2040.16	3674
2041.14	3604
2042.11	3646
2043.08	3676
2044.06	3618
2045.03	3646
2046	3648
2046.98	3678
2047.95	3712
2048.92	3712
2049.9	3680
2050.87	3660
2051.84	3690
2052.81	3542
2053.79	3622
2054.76	3638
2055.73	3640
2056.7	3644
2057.67	3634
2058.64	3692
2059.61	3662
2060.59	3636
2061.56	3632
2062.53	3632
2063.5	3624
2064.47	3610
2065.44	3630
2066.41	3570
2067.38	3592
2068.35	3604
2069.32	3598
2070.29	3560
2071.26	3564
2072.23	3594
2073.2	3658
2074.17	3612
2075.14	3602
2076.1	3620
2077.07	3598
2078.04	3634
2079.01	3662
2079.98	3528
2080.95	3618
2081.91	3526
2082.88	3548
2083.85	3586
2084.82	3610
2085.78	3582
2086.75	3576
2087.72	3584
2088.68	3568
2089.65	3540
2090.62	3532
2091.58	3562
2092.55	3572
2093.52	3592
2094.48	3572
2095.45	3612
2096.41	3564
2097.38	3528
2098.35	3524
2099.31	3548
2100.28	3540
2101.24	3500
2102.21	3514
2103.17	3542
2104.14	3526
2105.1	3578
2106.06	3520
2107.03	3612
2107.99	3526
2108.96	3498
2109.92	3544
2110.88	3506
2111.85	3554
2112.81	3550
2113.77	3548
2114.73	3526
2115.7	3560
2116.66	3464
2117.62	3618
2118.58	3532
2119.55	3494
2120.51	3544
2121.47	3488
2122.43	3584
2123.39	3514
2124.36	3472
2125.32	3496
2126.28	3528
2127.24	3482
2128.2	3510
2129.16	3480
2130.12	3528
2131.08	3484
2132.04	3504
2133	3526
2133.96	3532
2134.92	3456
2135.88	3468
2136.84	3478
2137.8	3504
2138.76	3452
2139.72	3498
2140.68	3558
2141.64	3488
2142.59	3446
2143.55	3440
2144.51	3428
2145.47	3482
2146.43	3530
2147.39	3406
2148.34	3448
2149.3	3412
2150.26	3496
2151.22	3452
2152.17	3462
2153.13	3406
2154.09	3450
2155.04	3446
2156	3406
2156.96	3480
2157.91	3430
2158.87	3396
2159.82	3430
2160.78	3372
2161.74	3436
2162.69	3406
2163.65	3444
2164.6	3400
2165.56	3404
2166.51	3430
2167.47	3372
2168.42	3416
2169.38	3338
2170.33	3414
2171.29	3466
2172.24	3392
2173.19	3352
2174.15	3358
2175.1	3398
2176.05	3388
2177.01	3378
2177.96	3336
2178.91	3374
2179.87	3388
2180.82	3356
2181.77	3322
2182.73	3370
2183.68	3426
2184.63	3354
2185.58	3302
2186.53	3348
2187.49	3386
2188.44	3324
2189.39	3310
2190.34	3344
2191.29	3420
2192.24	3314
2193.19	3254
2194.14	3342
2195.09	3266
2196.05	3234
2197	3320
2197.95	3284
2198.9	3334
2199.85	3332
2200.8	3306
2201.75	3278
2202.7	3314
2203.64	3422
2204.59	3254
2205.54	3310
2206.49	3232
2207.44	3312
2208.39	3300
2209.34	3202
2210.29	3318
2211.23	3258
2212.18	3314
2213.13	3280
2214.08	3308
2215.03	3296
2215.97	3234
2216.92	3314
2217.87	3222
2218.81	3312
2219.76	3334.4
2220.71	3301.15
2221.66	3241.55
2222.6	3258.27
2223.55	3247.48
2224.49	3217.58
2225.44	3257.06
2226.39	3251.83
2227.33	3260.72
2228.28	3285.36
2229.22	3284.6
2230.17	3317.05
2231.11	3229.24
2232.06	3264.31
2233	3300.84
2233.95	3313.58
2234.89	3320.17
2235.84	3248.49
2236.78	3265.28
2237.73	3247.57
2238.67	3324.6
2239.61	3348.88
2240.56	3247.61
2241.5	3293.4
2242.45	3309.36
2243.39	3278.13
2244.33	3266.77
2245.28	3267.45
2246.22	3341.58
2247.16	3311
2248.1	3265.15
2249.05	3295.33
2249.99	3267.6
2250.93	3232.43
2251.87	3317.37
2252.81	3270.83
2253.76	3337.31
2254.7	3313.53
2255.64	3333.26
2256.58	3287.92
2257.52	3348.03
2258.46	3300.35
2259.4	3246.75
2260.34	3260.82
2261.28	3270.12
2262.23	3265.36
2263.17	3299.55
2264.11	3285.11
2265.05	3277.85
2265.99	3322.38
2266.93	3316
2267.87	3305.3
2268.8	3355.41
2269.74	3270.64
2270.68	3302.06
2271.62	3293.34
2272.56	3276.49
2273.5	3247.67
2274.44	3294.55
2275.38	3277.02
2276.32	3322.39
2277.25	3300.27
2278.19	3291.31
2279.13	3267
2280.07	3322.3
2281.01	3264.38
2281.94	3291.74
2282.88	3308.84
2283.82	3281.44
2284.76	3290.05
2285.69	3315.3
2286.63	3273.97
2287.57	3286.11
2288.5	3300.24
2289.44	3299.17
2290.37	3327.68
2291.31	3282.71
2292.25	3283.84
2293.18	3292.82
2294.12	3306.81
2295.05	3318.5
2295.99	3310.02
2296.92	3302.06
2297.86	3312.34
2298.79	3276.73
2299.73	3328.65
2300.66	3294.87
2301.6	3273.71
2302.53	3311.96
2303.47	3329.84
2304.4	3271.83
2305.34	3246.76
2306.27	3317.16
2307.2	3267.63
2308.14	3252.35
2309.07	3290.79
2310	3283.56
2310.94	3277.2
2311.87	3290.19
2312.8	3258.58
2313.74	3291.12
2313.98	3308
2314.92	3324
2315.86	3282
2316.79	3302
2317.73	3280
2318.67	3342
2319.6	3260
2320.54	3294
2321.48	3278
2322.41	3224
2323.35	3290
2324.29	3306
2325.22	3252
2326.16	3294
2327.09	3248
2328.03	3296
2328.96	3234
2329.9	3302
2330.83	3262
2331.77	3260
2332.7	3324
2333.64	3312
2334.57	3262
2335.51	3244
2336.44	3258
2337.38	3242
2338.31	3220
2339.24	3182
2340.18	3280
2341.11	3282
2342.04	3250
2342.98	3262
2343.91	3258
2344.84	3246
2345.78	3244
2346.71	3250
2347.64	3250
2348.57	3276
2349.51	3244
2350.44	3228
2351.37	3226
2352.3	3254
2353.24	3314
2354.17	3208
2355.1	3214
2356.03	3248
2356.96	3240
2357.89	3246
2358.82	3234
2359.75	3276
2360.68	3308
2361.62	3262
2362.55	3192
2363.48	3270
2364.41	3290
2365.34	3256
2366.27	3290
2367.2	3166
2368.13	3204
2369.05	3240
2369.98	3206
2370.91	3280
2371.84	3208
2372.77	3220
2373.7	3198
2374.63	3194
2375.56	3206
2376.49	3202
2377.41	3188
2378.34	3186
2379.27	3220
2380.2	3240
2381.12	3228
2382.05	3276
2382.98	3176
2383.91	3202
2384.83	3164
2385.76	3234
2386.69	3248
2387.61	3158
2388.54	3144
2389.47	3176
2390.39	3144
2391.32	3166
2392.25	3192
2393.17	3158
2394.1	3190
2395.02	3206
2395.95	3270
2396.87	3180
2397.8	3222
2398.72	3198
2399.65	3210
2400.57	3162
2401.5	3216
2402.42	3182
2403.35	3194
2404.27	3152
2405.2	3208
2406.12	3160
2407.04	3194
2407.97	3240
2408.89	3162
2409.81	3190
2410.74	3124
2411.66	3142
2412.58	3156
2413.51	3148
2414.43	3182
2415.35	3216
2416.27	3172
2417.2	3190
2418.12	3194
2419.04	3170
2419.96	3110
2420.88	3148
2421.81	3138
2422.73	3092
2423.65	3124
2424.57	3158
2425.49	3122
2426.41	3150
2427.33	3112
2428.25	3130
2429.17	3182
2430.1	3116
2431.02	3112
2431.94	3162
2432.85	3116
2433.77	3150
2434.7	3142
2435.61	3140
2436.53	3090
2437.45	3172
2438.37	3146
2439.29	3124
2440.21	3148
2441.13	3118
2442.05	3102
2442.97	3150
2443.88	3162
2444.8	3140
2445.72	3126
2446.64	3216
2447.56	3124
2448.47	3114
2449.39	3108
2450.31	3120
2451.23	3154
2452.14	3108
2453.06	3116
2453.98	3096
2454.89	3070
2455.81	3106
2456.73	3094
2457.64	3116
2458.56	3100
2459.48	3108
2460.39	3058
2461.31	3056
2462.22	3060
2463.14	3168
2464.05	3128
2464.97	3134
2465.88	3048
2466.8	3136
2467.71	3160
2468.63	3074
2469.54	3096
2470.46	3100
2471.37	3080
2472.29	3018
2473.2	3086
2474.11	3078
2475.03	3100
2475.94	3114
2476.86	3074
2477.77	3048
2478.68	3098
2479.59	3166
2480.51	3126
2481.42	3058
2482.33	3034
2483.25	3096
2484.16	3152
2485.07	3058
2485.98	3050
2486.9	3018
2487.81	3060
2488.72	3004
2489.63	3026
2490.54	3022
2491.45	3078
2492.36	3038
2493.28	3034
2494.19	3034
2495.1	3060
2496.01	3068
2496.92	2974
2497.83	3058
2498.74	3078
2499.65	3026
2500.56	2986
2501.47	3068
2502.38	3030
2503.29	2984
2504.2	2952
2505.11	3002
2506.02	2932
2506.93	3052
2507.83	2954
2508.74	3030
2509.65	3018
2510.56	3070
2511.47	3040
2512.38	3008
2513.29	3018
2514.19	3014
2515.1	3018
2516.01	2990
2516.92	3026
2517.82	2978
2518.73	2930
2519.64	2934
2520.55	2974
2521.45	3068
2522.36	3040
2523.27	3026
2524.17	3042
2525.08	3028
2525.99	2988
2526.89	2986
2527.8	2960
2528.7	2938
2529.61	3040
2530.51	2922
2531.42	2972
2532.33	3002
2533.23	2960
2534.14	2978
2535.04	2872
2535.95	2978
2536.85	2962
2537.75	2914
2538.66	2978
2539.56	2986
2540.47	3024
2541.37	2982
2542.28	3034
2543.18	2920
2544.08	2980
2544.99	2940
2545.89	2950
2546.79	2892
2547.7	2972
2548.6	2950
2549.5	2936
2550.4	2920
2551.31	2976
2552.21	2992
2553.11	2986
2554.01	2920
2554.92	2930
2555.82	2884
2556.72	2926
2557.62	2944
2558.52	2928
2559.42	2954
2560.32	2918
2561.23	2894
2562.13	2890
2563.03	2896
2563.93	2872
2564.83	2894
2565.73	2988
2566.63	2962
2567.53	2896
2568.43	2886
2569.33	2908
2570.23	2882
2571.13	2922
2572.03	2912
2572.93	2888
2573.83	2954
2574.73	2926
2575.63	2914
2576.52	2948
2577.42	2888
2578.32	2924
2579.22	2828
2580.12	2914
2581.02	2842
2581.91	2896
2582.81	2948
2583.71	2910
2584.61	2838
2585.51	2832
2586.4	2876
2587.3	2896
2588.2	2810
2589.09	2832
2589.99	2860
2590.89	2888
2591.78	2890
2592.68	2872
2593.58	2890
2594.47	2876
2595.37	2890
2596.26	2874
2597.16	2822
2598.06	2798
2598.95	2882
2599.85	2828
2600.74	2842
2601.64	2864
2602.53	2864
2603.43	2916
2604.32	2856
2605.22	2878
2606.11	2788
2607.01	2796
2607.9	2822
2608.79	2844
2609.69	2842
2610.58	2822
2611.48	2868
2612.37	2782
2613.26	2826
2614.16	2836
2615.05	2796
2615.94	2860
2616.84	2814
2617.73	2782
2618.62	2854
2619.51	2778
2620.41	2806
2621.3	2804
2622.19	2788
2623.08	2838
2623.97	2754
2624.87	2816
2625.76	2786
2626.65	2886
2627.54	2798
2628.43	2754
2629.32	2800
2630.21	2784
2631.1	2854
2631.99	2810
2632.89	2838
2633.78	2746
2634.67	2786
2635.56	2836
2636.45	2838
2637.34	2852
2638.23	2802
2639.12	2780
2640.01	2716
2640.9	2774
2641.78	2770
2642.67	2758
2643.56	2764
2644.45	2762
2645.34	2742
2646.23	2804
2647.12	2754
2648.01	2758
2648.89	2722
2649.78	2704
2650.67	2708
2651.56	2758
2652.45	2716
2653.33	2746
2654.22	2724
2655.11	2734
2656	2756
2656.88	2740
2657.77	2740
2658.66	2698
2659.54	2786
2660.43	2734
2661.32	2728
2662.2	2740
2663.09	2752
2663.97	2782
2664.86	2746
2665.75	2774
2666.63	2742
2667.52	2638
2668.4	2708
2669.29	2742
2670.17	2738
2671.06	2784
2671.94	2728
2672.83	2738
2673.71	2704
2674.6	2748
2675.48	2792
2676.37	2732
2677.25	2734
2678.13	2732
2679.02	2778
2679.9	2680
2680.78	2726
2681.67	2760
2682.55	2742
2683.43	2724
2684.32	2678
2685.2	2624
2686.08	2734
2686.97	2778
2687.85	2738
2688.73	2716
2689.61	2714
2690.5	2670
2691.38	2710
2692.26	2656
2693.14	2680
2694.02	2682
2694.9	2714
2695.79	2636
2696.67	2706
2697.55	2706
2698.43	2688
2699.31	2678
2700.19	2706
2701.07	2690
2701.95	2674
2702.83	2650
2703.71	2660
2704.59	2664
2705.47	2608
2706.35	2634
2707.23	2632
2708.11	2658
2708.99	2694
2709.87	2592
2710.75	2660
2711.63	2668
2712.51	2676
2713.39	2636
2714.27	2590
2715.14	2570
2716.02	2624
2716.9	2620
2717.78	2638
2718.66	2602
2719.54	2664
2720.41	2614
2721.29	2592
2722.17	2684
2723.05	2580
2723.92	2644
2724.8	2608
2725.68	2634
2726.55	2616
2727.43	2616
2728.31	2606
2729.18	2600
2730.06	2592
2730.94	2558
2731.81	2634
2732.69	2644
2733.57	2528
2734.44	2578
2735.32	2614
2736.19	2606
2737.07	2594
2737.94	2612
2738.82	2586
2739.69	2596
2740.57	2628
2741.44	2542
2742.32	2596
2743.19	2598
2744.07	2616
2744.94	2538
2745.81	2644
2746.69	2534
2747.56	2612
2748.44	2614
2749.31	2590
2750.18	2592
2751.06	2568
2751.93	2592
2752.8	2594
2753.68	2590
2754.55	2582
2755.42	2574
2756.29	2610
2757.17	2564
2758.04	2604
2758.91	2594
2759.78	2494
2760.65	2550
2761.53	2566
2762.4	2580
2763.27	2498
2764.14	2560
2765.01	2554
2765.88	2616
2766.76	2548
2767.63	2526
2768.5	2568
2769.37	2628
2770.24	2530
2771.11	2520
2771.98	2580
2772.85	2612
2773.72	2516
2774.59	2522
2775.46	2558
2776.33	2504
2777.2	2480
2778.07	2512
2778.94	2568
2779.81	2548
2780.67	2478
2781.54	2454
2782.41	2528
2783.28	2538
2784.15	2540
2785.02	2564
2785.89	2508
2786.75	2556
2787.62	2474
2788.49	2520
2789.36	2534
2790.23	2528
2791.09	2536
2791.96	2462
2792.83	2522
2793.7	2478
2794.56	2524
2795.43	2498
2796.3	2482
2797.16	2556
2798.03	2490
2798.9	2488
2799.76	2500
2800.63	2474
2801.49	2530
2802.36	2494
2803.23	2480
2804.09	2582
2804.96	2536
2805.82	2454
2806.69	2504
2807.55	2452
2808.42	2508
2809.28	2454
2810.15	2468
2811.01	2494
2811.88	2468
2812.74	2490
2813.61	2486
2814.47	2454
2815.33	2460
2816.2	2396
2817.06	2416
2817.93	2468
2818.79	2456
2819.65	2466
2820.52	2362
2821.38	2404
2822.24	2418
2823.11	2448
2823.97	2502
2824.83	2398
2825.69	2364
2826.55	2374
2827.42	2480
2828.28	2432
2829.14	2436
2830	2442
2830.87	2442
2831.73	2448
2832.59	2388
2833.45	2444
2834.31	2358
2835.17	2372
2836.03	2470
2836.89	2380
2837.76	2426
2838.62	2406
2839.48	2374
2840.34	2372
2841.2	2458
2842.06	2408
2842.92	2370
2843.78	2392
2844.64	2360
2845.5	2454
2846.36	2368
2847.22	2410
2848.07	2350
2848.93	2394
2849.79	2382
2850.65	2392
2851.51	2378
2852.37	2356
2853.23	2322
2854.09	2326
2854.95	2374
2855.8	2402
2856.66	2330
2857.52	2328
2858.38	2300
2859.24	2334
2860.09	2376
2860.95	2324
2861.81	2380
2862.66	2294
2863.52	2406
2864.38	2354
2865.24	2316
2866.09	2334
2866.95	2334
2867.81	2350
2868.66	2356
2869.52	2290
2870.37	2264
2871.23	2238
2872.09	2386
2872.94	2350
2873.8	2304
2874.65	2300
2875.51	2342
2876.36	2286
2877.22	2292
2878.07	2350
2878.93	2274
2879.78	2394
2880.64	2286
2881.49	2322
2882.35	2282
2883.2	2324
2884.05	2328
2884.91	2264
2885.76	2286
2886.62	2316
2887.47	2324
2888.32	2314
2889.18	2262
2890.03	2244
2890.88	2296
2891.74	2244
2892.59	2242
2893.44	2260
2894.29	2260
2895.15	2314
2896	2278
2896.85	2310
2897.7	2270
2898.55	2282
2899.41	2216
2900.26	2310
2901.11	2290
2901.96	2228
2902.81	2308
2903.66	2298
2904.52	2264
2905.37	2316
2906.22	2232
2907.07	2252
2907.92	2248
2908.77	2296
2909.62	2230
2910.47	2254
2911.32	2280
2912.17	2266
2913.02	2282
2913.87	2274
2914.72	2264
2915.57	2252
2916.42	2210
2917.27	2260
2918.12	2266
2918.97	2284
2919.82	2224
2920.66	2256
2921.51	2242
2922.36	2246
2923.21	2248
2924.06	2282
2924.91	2276
2925.75	2242
2926.6	2262
2927.45	2296
2928.3	2212
2929.15	2260
2929.99	2236
2930.84	2290
2931.69	2262
2932.54	2250
2933.38	2236
2934.23	2192
2935.08	2266
2935.92	2204
2936.77	2278
2937.62	2206
2938.46	2292
2939.31	2178
2940.15	2240
2941	2170
2941.85	2252
2942.69	2170
2943.54	2184
2944.38	2212
2945.23	2236
2946.07	2232
2946.92	2188
2947.76	2228
2948.61	2214
2949.45	2198
2950.3	2164
2951.14	2190
2951.99	2192
2952.83	2206
2953.67	2218
2954.52	2156
2955.36	2166
2956.21	2130
2957.05	2228
2957.89	2170
2958.74	2218
2959.58	2158
2960.42	2162
2961.27	2210
2962.11	2186
2962.95	2164
2963.79	2134
2964.64	2216
2965.48	2182
2966.32	2108
2967.16	2128
2968.01	2174
2968.85	2130
2969.69	2080
2970.53	2146
2971.37	2120
2972.21	2126
2973.05	2152
2973.9	2160
2974.74	2166
2975.58	2114
2976.42	2130
2977.26	2126
2978.1	2126
2978.94	2164
2979.78	2118
2980.62	2110
2981.46	2144
2982.3	2128
2983.14	2092
2983.98	2160
2984.82	2104
2985.66	2082
2986.5	2218
2987.34	2100
2988.18	2096
2989.02	2098
2989.86	2056
2990.69	2084
2991.53	2052
2992.37	2064
2993.21	2102
2994.05	2072
2994.89	2048
2995.72	2112
2996.56	2100
2997.4	2114
2998.24	2120
2999.08	2050
2999.91	2082
3000.75	2090
3001.59	2074
3002.43	2052
3003.26	2068
3004.1	2062
3004.94	2104
3005.77	2088
3006.61	2044
3007.45	2052
3008.28	2050
3009.12	2076
3009.95	2060
3010.79	2048
3011.63	1992
3012.46	2138
3013.3	2040
3014.13	2022
3014.97	1970
3015.8	2076
3016.64	2106
3017.47	2008
3018.31	2022
3019.14	2058
3019.98	2030
3020.81	2036
3021.65	2036
3022.48	2050
3023.31	2000
3024.15	2026
3024.98	2004
3025.82	2076
3026.65	1976
3027.48	2004
3028.32	2074
3029.15	2014
3029.98	1928
3030.82	1978
3031.65	2044
3032.48	1972
3033.31	2012
3034.15	1984
3034.98	2044
3035.81	1990
3036.64	2020
3037.48	1984
3038.31	2006
3039.14	2052
3039.97	2064
3040.8	2011.46
3041.63	2027.87
3042.47	1984.7
3043.3	1971.29
3044.13	2006.19
3044.96	2016.37
3045.79	1989.82
3046.62	2006.73
3047.45	1970.65
3048.28	1954.59
3049.11	1978.9
3049.94	1937.81
3050.77	1989.62
3051.6	1971.44
3052.43	1981.14
3053.26	1989.44
3054.09	1976.72
3054.92	1943.77
3055.75	1949.26
3056.58	1998.18
3057.41	1959.32
3058.24	1928.07
3059.07	1951.87
3059.9	1949.14
3060.73	1936.07
3061.55	1969.78
3062.38	1949.34
3063.21	1957.57
3064.04	1944.3
3064.87	1959.73
3065.7	1925.94
3066.52	1925.14
3067.35	1910.99
3068.18	1962.94
3069.01	1953.62
3069.83	1917.42
3070.66	1924.41
3071.49	1927.48
3072.32	1974.95
3073.14	1931.66
3073.97	1917.19
3074.8	1881.25
3075.62	1939.3
3076.45	1876.56
3077.28	1948.81
3078.1	1927.44
3078.93	1890.23
3079.75	1917.69
3080.58	1896.4
3081.41	1900.08
3082.23	1911.04
3083.06	1910
3083.88	1896.92
3084.71	1905.24
3085.53	1907.64
3086.36	1923.17
3087.18	1915.24
3088.01	1883.74
3088.83	1843.03
3089.66	1869.47
3090.48	1895.24
3091.31	1868.78
3092.13	1882.66
3092.96	1881.94
3093.78	1888.45
3094.6	1856.13
3095.43	1845.32
3096.25	1870.62
3097.07	1872.28
3097.9	1854.2
3098.72	1861.3
3099.54	1854.42
3100.37	1848.66
3101.19	1841.5
3102.01	1846.32
3102.84	1789.74
3103.66	1821.47
3104.48	1849.42
3105.3	1812.91
3106.13	1805.66
3106.95	1839.11
3107.77	1841.66
3108.59	1823.74
3109.41	1852.82
3110.24	1836.86
3111.06	1824.2
3111.88	1837.65
3112.7	1845.17
3113.52	1817.66
3114.34	1806.4
3115.16	1781.2
3115.98	1790.64
3116.81	1801.69
3117.63	1817.93
3118.45	1821.28
3119.27	1770.26
3120.09	1808.23
3120.91	1806.43
3121.73	1759.1
3122.55	1779.65
3123.37	1822.33
3123.73	1838
3124.56	1814
3125.38	1812
3126.21	1836
3127.03	1830
3127.85	1782
3128.68	1786
3129.5	1784
3130.32	1768
3131.15	1790
3131.97	1746
3132.79	1766
3133.62	1746
3134.44	1734
3135.26	1784
3136.08	1776
3136.91	1766
3137.73	1756
3138.55	1778
3139.37	1732
3140.19	1740
3141.02	1746
3141.84	1710
3142.66	1746
3143.48	1770
3144.3	1724
3145.13	1758
3145.95	1738
3146.77	1732
3147.59	1756
3148.41	1724
3149.23	1738
3150.05	1778
3150.87	1748
3151.69	1716
3152.51	1694
3153.33	1706
3154.15	1758
3154.97	1734
3155.79	1726
3156.61	1716
3157.43	1716
3158.25	1650
3159.07	1690
3159.89	1712
3160.71	1656
3161.53	1746
3162.35	1704
3163.17	1694
3163.98	1768
3164.8	1680
3165.62	1698
3166.44	1734
3167.26	1740
3168.08	1690
3168.89	1682
3169.71	1704
3170.53	1706
3171.35	1652
3172.17	1698
3172.98	1690
3173.8	1702
3174.62	1686
3175.43	1724
3176.25	1688
3177.07	1698
3177.89	1706
3178.7	1704
3179.52	1666
3180.33	1680
3181.15	1678
3181.97	1668
3182.78	1626
3183.6	1672
3184.41	1698
3185.23	1694
3186.05	1662
3186.86	1632
3187.68	1714
3188.49	1702
3189.31	1682
3190.12	1664
3190.94	1666
3191.75	1750
3192.57	1694
3193.38	1730
3194.2	1692
3195.01	1670
3195.82	1646
3196.64	1708
3197.45	1704
3198.27	1648
3199.08	1662
3199.89	1734
3200.71	1652
3201.52	1694
3202.33	1682
3203.15	1662
3203.96	1656
3204.77	1690
3205.59	1684
3206.4	1630
3207.21	1692
3208.02	1646
3208.84	1650
3209.65	1666
3210.46	1660
3211.27	1690
3212.09	1636
3212.9	1662
3213.71	1668
3214.52	1666
3215.33	1604
3216.14	1670
3216.96	1690
3217.77	1612
3218.58	1708
3219.39	1684
3220.2	1640
3221.01	1636
3221.82	1636
3222.63	1612
3223.44	1642
3224.25	1668
3225.06	1608
3225.87	1660
3226.68	1614
3227.49	1630
3228.3	1696
3229.11	1616
3229.92	1644
3230.73	1620
3231.54	1632
3232.35	1620
3233.16	1606
3233.97	1608
3234.77	1658
3235.58	1642
3236.39	1632
3237.2	1624
3238.01	1640
3238.82	1614
3239.63	1610
3240.43	1632
3241.24	1626
3242.05	1606
3242.86	1552
3243.66	1618
3244.47	1620
3245.28	1600
3246.09	1626
3246.89	1608
3247.7	1558
3248.51	1592
3249.31	1598
3250.12	1586
3250.93	1592
3251.73	1584
3252.54	1586
3253.35	1562
3254.15	1592
3254.96	1570
3255.76	1598
3256.57	1598
3257.38	1614
3258.18	1626
3258.99	1648
3259.79	1586
3260.6	1600
3261.4	1570
3262.21	1564
3263.01	1594
3263.82	1576
3264.62	1492
3265.43	1562
3266.23	1582
3267.04	1556
3267.84	1552
3268.64	1582
3269.45	1552
3270.25	1608
3271.06	1590
3271.86	1514
3272.66	1546
3273.47	1556
3274.27	1578
3275.07	1606
3275.88	1570
3276.68	1560
3277.48	1552
3278.28	1524
3279.09	1516
3279.89	1540
3280.69	1586
3281.49	1518
3282.3	1524
3283.1	1548
3283.9	1544
3284.7	1588
3285.5	1504
3286.31	1532
3287.11	1506
3287.91	1560
3288.71	1498
3289.51	1532
3290.31	1506
3291.11	1548
3291.91	1584
3292.71	1504
3293.51	1506
3294.31	1526
3295.12	1522
3295.92	1560
3296.72	1532
3297.52	1554
3298.32	1502
3299.12	1516
3299.92	1512
3300.72	1548
3301.51	1512
3302.31	1480
3303.11	1476
3303.91	1486
3304.71	1502
3305.51	1486
3306.31	1488
3307.11	1510
3307.91	1528
3308.71	1482
3309.5	1518
3310.3	1496
3311.1	1472
3311.9	1488
3312.7	1500
3313.49	1514
3314.29	1514
3315.09	1446
3315.89	1502
3316.69	1462
3317.48	1440
3318.28	1464
3319.08	1494
3319.87	1468
3320.67	1558
3321.47	1538
3322.26	1496
3323.06	1480
3323.86	1510
3324.65	1518
3325.45	1458
3326.25	1452
3327.04	1474
3327.84	1458
3328.63	1472
3329.43	1492
3330.22	1512
3331.02	1492
3331.81	1446
3332.61	1530
3333.4	1460
3334.2	1458
3334.99	1422
3335.79	1478
3336.58	1504
3337.38	1504
3338.17	1434
3338.97	1458
3339.76	1476
3340.56	1470
3341.35	1454
3342.14	1464
3342.94	1486
3343.73	1486
3344.52	1472
3345.32	1472
3346.11	1458
3346.9	1458
3347.7	1460
3348.49	1470
3349.28	1480
3350.08	1418
3350.87	1452
3351.66	1448
3352.45	1426
3353.25	1472
3354.04	1460
3354.83	1454
3355.62	1502
3356.41	1460
3357.21	1480
3358	1414
3358.79	1472
3359.58	1450
3360.37	1460
3361.16	1470
3361.95	1426
3362.75	1442
3363.54	1452
3364.33	1440
3365.12	1362
3365.91	1420
3366.7	1428
3367.49	1440
3368.28	1426
3369.07	1468
3369.86	1428
3370.65	1472
3371.44	1400
3372.23	1430
3373.02	1412
3373.81	1446
3374.6	1416
3375.39	1408
3376.18	1400
3376.97	1448
3377.75	1420
3378.54	1446
3379.33	1394
3380.12	1456
3380.91	1434
3381.7	1402
3382.49	1416
3383.27	1454
3384.06	1404
3384.85	1442
3385.64	1412
3386.43	1384
3387.21	1394
3388	1406
3388.79	1430
3389.58	1366
3390.36	1452
3391.15	1392
3391.94	1396
3392.72	1366
3393.51	1426
3394.3	1404
3395.08	1400
3395.87	1382
3396.66	1384
3397.44	1330
3398.23	1380
3399.01	1390
3399.8	1398
3400.59	1342
3401.37	1406
3402.16	1402
3402.94	1300
3403.73	1402
3404.51	1378
3405.3	1398
3406.08	1430
3406.87	1392
3407.65	1362
3408.44	1350
3409.22	1344
3410.01	1392
3410.79	1364
3411.58	1342
3412.36	1368
3413.14	1424
3413.93	1354
3414.71	1380
3415.5	1382
3416.28	1326
3417.06	1384
3417.85	1400
3418.63	1346
3419.41	1360
3420.2	1406
3420.98	1390
3421.76	1342
3422.54	1370
3423.33	1406
3424.11	1356
3424.89	1344
3425.67	1362
3426.46	1326
3427.24	1378
3428.02	1334
3428.8	1352
3429.58	1374
3430.36	1322
3431.15	1348
3431.93	1364
3432.71	1334
3433.49	1316
3434.27	1316
3435.05	1332
3435.83	1348
3436.61	1316
3437.4	1352
3438.18	1328
3438.96	1318
3439.74	1286
3440.52	1320
3441.3	1352
3442.08	1334
3442.86	1356
3443.64	1340
3444.42	1342
3445.2	1316
3445.98	1322
3446.76	1324
3447.53	1366
3448.31	1330
3449.09	1336
3449.87	1326
3450.65	1332
3451.43	1328
3452.21	1260
3452.99	1314
3453.77	1298
3454.54	1314
3455.32	1376
3456.1	1308
3456.88	1282
3457.66	1312
3458.43	1298
3459.21	1322
3459.99	1342
3460.77	1316
3461.54	1312
3462.32	1284
3463.1	1304
3463.88	1308
3464.65	1282
3465.43	1284
3466.21	1252
3466.98	1288
3467.76	1258
3468.53	1264
3469.31	1286
3470.09	1290
3470.86	1298
3471.64	1264
3472.42	1284
3473.19	1296
3473.97	1332
3474.74	1292
3475.52	1300
3476.29	1300
3477.07	1284
3477.84	1310
3478.62	1290
3479.39	1280
3480.17	1240
3480.94	1274
3481.72	1284
3482.49	1314
3483.27	1300
3484.04	1260
3484.82	1272
3485.59	1316
3486.36	1264
3487.14	1306
3487.91	1320
3488.68	1286
3489.46	1320
3490.23	1248
3491	1256
3491.78	1278
3492.55	1230
3493.32	1246
3494.1	1242
3494.87	1262
3495.64	1264
3496.42	1262
3497.19	1260
3497.96	1306
3498.73	1286
3499.5	1262
3500.28	1264
3501.05	1282
3501.82	1256
3502.59	1278
3503.36	1282
3504.14	1300
3504.91	1302
3505.68	1280
3506.45	1288
3507.22	1256
3507.99	1238
3508.76	1262
3509.53	1286
3510.3	1240
3511.07	1292
3511.84	1264
3512.61	1272
3513.38	1266
3514.16	1262
3514.92	1210
3515.7	1300
3516.46	1240
3517.23	1262
3518	1288
3518.77	1236
3519.54	1232
3520.31	1314
3521.08	1230
3521.85	1264
3522.62	1266
3523.39	1246
3524.16	1246
3524.93	1236
3525.69	1260
3526.46	1240
3527.23	1228
3528	1222
3528.77	1230
3529.53	1230
3530.3	1256
3531.07	1252
3531.84	1204
3532.61	1246
3533.37	1232
3534.14	1222
3534.91	1206
3535.68	1216
3536.44	1228
3537.21	1214
3537.98	1230
3538.74	1232
3539.51	1220
3540.28	1228
3541.04	1250
3541.81	1226
3542.58	1240
3543.34	1266
3544.11	1236
3544.87	1238
3545.64	1224
3546.4	1230
3547.17	1256
3547.94	1206
3548.7	1252
3549.47	1178
3550.23	1208
3551	1200
3551.76	1250
3552.53	1192
3553.29	1224
3554.06	1204
3554.82	1230
3555.59	1240
3556.35	1186
3557.11	1216
3557.88	1228
3558.64	1234
3559.41	1184
3560.17	1200
3560.93	1210
3561.7	1218
3562.46	1220
3563.22	1240
3563.99	1274
3564.75	1198
3565.51	1182
3566.28	1204
3567.04	1204
3567.8	1204
3568.56	1186
3569.33	1232
3570.09	1206
3570.85	1174
3571.61	1186
3572.38	1236
3573.14	1172
3573.9	1184
3574.66	1212
3575.42	1216
3576.19	1166
3576.95	1202
3577.71	1192
3578.47	1164
3579.23	1192
3579.99	1216
3580.75	1208
3581.51	1162
3582.28	1170
3583.04	1202
3583.8	1140
3584.56	1182
3585.32	1152
3586.08	1150
3586.84	1200
3587.6	1180
3588.36	1176
3589.12	1176
3589.88	1170
3590.64	1186
3591.4	1174
3592.16	1162
3592.92	1152
3593.67	1162
3594.43	1188
3595.19	1186
3595.95	1138
3596.71	1140
3597.47	1122
3598.23	1156
3598.99	1184
3599.75	1162
3600.5	1136
3601.26	1214
3602.02	1162
3602.78	1114
3603.54	1160
3604.29	1126
3605.05	1170
3605.81	1098
3606.57	1142
3607.32	1128
3608.08	1134
3608.84	1156
3609.59	1158
3610.35	1190
3611.11	1146
3611.87	1158
3612.62	1152
3613.38	1140
3614.13	1141
3614.89	1142
3615.65	1120
3616.4	1152
3617.16	1146
3617.92	1150
3618.67	1166
3619.43	1128
3620.18	1138
3620.94	1134
3621.69	1146
3622.45	1118
3623.2	1144
3623.96	1118
3624.71	1138
3625.47	1182
3626.22	1112
3626.98	1132
3627.73	1180
3628.49	1126
3629.24	1134
3630	1122
3630.75	1144
3631.5	1126
3632.26	1136
3633.01	1156
3633.77	1100
3634.52	1120
3635.27	1148
3636.03	1072
3636.78	1140
3637.53	1148
3638.29	1096
3639.04	1106
3639.79	1116
3640.55	1092
3641.3	1130
3642.05	1140
3642.8	1100
3643.56	1108
3644.31	1110
3645.06	1104
3645.81	1118
3646.56	1138
3647.32	1088
3648.07	1102
3648.82	1106
3649.57	1154
3650.32	1104
3651.07	1122
3651.83	1078
3652.58	1136
3653.33	1096
3654.08	1108
3654.83	1090
3655.58	1118
3656.33	1126
3657.08	1124
3657.83	1116
3658.58	1088
3659.33	1112
3660.08	1090
3660.83	1110
3661.58	1120
3662.33	1108
3663.08	1096
3663.83	1084
3664.58	1120
3665.33	1090
3666.08	1096
3666.83	1088
3667.58	1074
3668.33	1130
3669.08	1094
3669.83	1118
3670.57	1102
3671.32	1048
3672.07	1100
3672.82	1086
3673.57	1064
3674.32	1082
3675.07	1086
3675.81	1086
3676.56	1132
3677.31	1120
3678.06	1110
3678.8	1084
3679.55	1078
3680.3	1098
3681.05	1076
3681.79	1132
3682.54	1038
3683.29	1100
3684.04	1060
3684.78	1076
3685.53	1052
3686.28	1084
3687.02	1040
3687.77	1080
3688.51	1050
3689.26	1076
3690.01	1106
3690.75	1106
3691.5	1094
3692.24	1092
3692.99	1072
3693.74	1056
3694.48	1094
3695.23	1050
3695.97	1054
3696.72	1074
3697.46	1056
3698.21	1070
3698.95	1078
3699.7	1044
3700.44	1068
3701.19	1094
3701.93	1098
3702.68	1072
3703.42	1068
3704.16	1084
3704.91	1066
3705.65	1066
3706.4	1106
3707.14	1054
3707.88	1020
3708.63	1062
3709.37	1076
3710.11	1036
3710.86	1072
3711.6	1100
3712.34	1070
3713.09	1010
3713.83	1064
3714.57	1024
3715.31	1080
3716.06	1090
3716.8	1058
3717.54	1058
3718.28	1036
3719.03	1038
3719.77	1062
3720.51	1072
3721.25	1082
3721.99	1036
3722.74	1014
3723.48	1044
3724.22	1026
3724.96	1032
3725.7	1056
3726.44	1006
3727.18	1032
3727.92	996
3728.67	1056
3729.41	1026
3730.15	1052
3730.89	1028
3731.63	1036
3732.37	1046
3733.11	1060
3733.85	1008
3734.59	1052
3735.33	1008
3736.07	1016
3736.81	1048
3737.55	996
3738.29	1066
3739.03	1040
3739.77	1000
3740.51	1060
3741.24	1008
3741.98	974
3742.72	1060
3743.46	1000
3744.2	1000
3744.94	1042
3745.68	1056
3746.42	1012
3747.15	1014
3747.89	1024
3748.63	1004
3749.37	992
3750.11	1040
3750.84	1038
3751.58	1032
3752.32	1004
3753.06	1028
3753.79	1018
3754.53	1004
3755.27	1014
3756.01	1010
3756.74	1004
3757.48	1028
3758.22	994
3758.95	1000
3759.69	1004
3760.43	972
3761.16	1000
3761.9	998
3762.64	992
3763.37	1000.06
3764.11	984.521
3764.84	1010.18
3765.58	1014.07
3766.32	1023.92
3767.05	999.993
3767.79	981.419
3768.52	990.732
3769.26	1000.8
3769.99	1000.43
3770.73	992.395
3771.46	1007.64
3772.2	993.57
3772.93	1003.83
3773.67	1033.71
3774.4	1009.76
3775.14	1003.81
3775.87	1007.28
3776.61	985.88
3777.34	997.081
3778.07	994.371
3778.81	974.761
3779.54	990.428
3780.28	994.372
3781.01	979.904
3781.74	989.361
3782.48	975.772
3783.21	1003.3
3783.94	990.126
3784.68	1004.89
3785.41	1028.66
3786.14	989.411
3786.88	1002.58
3787.61	1003.29
3788.34	977.707
3789.07	991.604
3789.81	1005.71
3790.54	1004.58
3791.27	1025.43
3792	995.253
3792.74	991.92
3793.47	963.86
3794.2	993.591
3794.93	984.993
3795.66	988.662
3796.4	986.537
3797.13	997.125
3797.86	981.584
3798.59	981.593
3799.32	979.174
3800.05	982.595
3800.78	974
3801.52	984.422
3802.25	987.144
3802.98	988.68
3803.71	983.021
3804.44	976.442
3805.17	992.626
3805.9	988.807
3806.63	973.566
3807.36	981.096
3808.09	982.144
3808.82	975.002
3809.55	960.487
3810.28	967.007
3811.01	970.408
3811.74	983.552
3812.47	982.082
3813.2	971.848
3813.93	983.029
3814.66	963.069
3815.38	945.991
3816.11	958.937
3816.84	968.733
3817.57	985.784
3818.3	967.448
3819.03	967.549
3819.76	961.409
3820.49	972.424
3821.21	959.189
3821.94	971.685
3822.67	968.433
3823.4	967.686
3824.13	936.932
3824.85	959.155
3825.58	986.078
3826.31	975.772
3827.04	958.526
3827.77	962.887
3828.49	944.321
3829.22	952.458
3829.95	960.079
3830.67	969.615
3831.4	970.747
3832.13	966.294
3832.85	973.294
3833.58	943.534
3834.31	937.703
3835.03	949.218
3835.76	958.936
3836.49	937.899
3837.21	953.782
3837.94	943.602
3838.52	974
3839.25	922
3839.98	974
3840.71	960
3841.44	946
3842.17	958
3842.9	954
3843.63	944
3844.36	954
3845.09	960
3845.82	940
3846.55	894
3847.28	974
3848	960
3848.73	908
3849.46	926
3850.19	930
3850.92	938
3851.65	940
3852.38	928
3853.1	912
3853.83	970
3854.56	958
3855.29	918
3856.02	942
3856.74	954
3857.47	938
3858.2	926
3858.93	902
3859.65	938
3860.38	912
3861.11	940
3861.84	926
3862.56	934
3863.29	934
3864.02	884
3864.74	934
3865.47	902
3866.2	894
3866.92	894
3867.65	896
3868.38	908
3869.1	928
3869.83	940
3870.55	930
3871.28	918
3872.01	922
3872.73	904
3873.46	936
3874.18	896
3874.91	920
3875.63	934
3876.36	886
3877.08	964
3877.81	900
3878.53	884
3879.26	924
3879.98	950
3880.71	930
3881.43	916
3882.16	948
3882.88	910
3883.6	940
3884.33	904
3885.05	902
3885.78	938
3886.5	932
3887.22	946
3887.95	938
3888.67	920
3889.4	904
3890.12	948
3890.84	882
3891.57	916
3892.29	924
3893.01	872
3893.73	894
3894.46	918
3895.18	918
3895.9	914
3896.63	898
3897.35	930
3898.07	916
3898.79	912
3899.51	906
3900.24	940
3900.96	910
3901.68	888
3902.4	922
3903.12	910
3903.84	920
3904.57	932
3905.29	892
3906.01	924
3906.73	938
3907.45	920
3908.17	896
3908.89	920
3909.61	906
3910.33	894
3911.06	920
3911.78	878
3912.5	870
3913.22	908
3913.94	898
3914.66	882
3915.38	920
3916.1	884
3916.82	902
3917.54	906
3918.26	896
3918.98	886
3919.69	904
3920.41	884
3921.13	892
3921.85	882
3922.57	912
3923.29	892
3924.01	880
3924.73	914
3925.45	868
3926.17	878
3926.88	932
3927.6	908
3928.32	880
3929.04	882
3929.76	902
3930.47	890
3931.19	920
3931.91	886
3932.63	886
3933.35	880
3934.06	888
3934.78	870
3935.5	900
3936.22	850
3936.93	866
3937.65	878
3938.37	894
3939.08	900
3939.8	880
3940.52	878
3941.23	880
3941.95	886
3942.67	880
3943.38	892
3944.1	878
3944.82	846
3945.53	934
3946.25	866
3946.96	868
3947.68	878
3948.4	910
3949.11	838
3949.83	864
3950.54	864
3951.26	828
3951.97	842
3952.69	896
3953.4	894
3954.12	868
3954.83	866
3955.55	886
3956.26	846
3956.98	858
3957.69	876
3958.4	858
3959.12	874
3959.83	908
3960.55	814
3961.26	876
3961.97	878
3962.69	878
3963.4	868
3964.12	894
3964.83	852
3965.54	870
3966.26	864
3966.97	854
3967.68	844
3968.4	854
3969.11	886
3969.82	858
3970.53	836
3971.25	860
3971.96	854
3972.67	856
3973.38	836
3974.1	822
3974.81	820
3975.52	836
3976.23	866
3976.94	836
3977.66	824
3978.37	866
3979.08	848
3979.79	828
3980.5	840
3981.21	836
3981.92	864
3982.64	824
3983.35	836
3984.06	846
3984.77	854
3985.48	872
3986.19	844
3986.9	844
3987.61	822
3988.32	842
3989.03	870
3989.74	814
3990.45	830
3991.16	830
3991.87	826
3992.58	838
3993.29	856
3994	820
3994.71	858
3995.42	816
3996.13	832
3996.84	826
3997.55	826
3998.26	850
3998.97	838
3999.67	844
