#Acq. time (s)=	10
#Accumulations=	1
#Range (cm-¹)=	200...4000
#Windows=	5
#Autofocus=	Off
#AutoExposure=	Off
#Spike filter=	Off
#Delay time (s)=	0
#Binning=	1
#Readout mode=	Signal
#DeNoise=	Off
#ICS correction=	Off
#Dark correction=	Off
#Inst. Process=	Off
#Instrument=	LabRAM HR Evol
#Detector=	Syncerity OE
#Objective=	x100_VIS
#Grating=	600 (500nm)
#ND Filter=	25%
#Laser=	633nm_Edge
#Hole=	100.021
#Range=	Visible
#Project=	Omar
#Sample=	03-07-23
#Site=	1
#Title=	OR
#Remark=	
#Date=	03.07.2023 13:27
#Acquired=	03.07.2023 13:27:24
200.404	5146
201.671	5016
202.938	5134
204.205	5198
205.472	5126
206.737	5094
208.003	5136
209.269	5178
210.535	5146
211.799	5168
213.064	5104
214.33	5234
215.595	5158
216.858	5194
218.122	5198
219.387	5170
220.649	5214
221.913	5240
223.177	5184
224.439	5234
225.703	5302
226.966	5242
228.227	5204
229.49	5260
230.752	5322
232.013	5294
233.275	5276
234.536	5274
235.798	5272
237.059	5368
238.319	5386
239.58	5284
240.839	5414
242.1	5388
243.361	5338
244.619	5322
245.879	5368
247.138	5410
248.398	5350
249.655	5486
250.915	5506
252.172	5372
253.431	5442
254.688	5484
255.947	5394
257.204	5390
258.462	5420
259.718	5510
260.976	5386
262.232	5472
263.487	5440
264.744	5338
266	5522
267.256	5448
268.511	5440
269.767	5436
271.022	5372
272.276	5490
273.532	5378
274.786	5454
276.04	5478
277.295	5372
278.548	5428
279.801	5430
281.055	5498
282.308	5378
283.561	5476
284.814	5484
286.066	5556
287.318	5514
288.572	5496
289.823	5512
291.074	5608
292.327	5558
293.578	5612
294.828	5596
296.079	5624
297.331	5626
298.581	5596
299.831	5614
301.08	5644
302.33	5706
303.581	5688
304.83	5722
306.079	5662
307.327	5740
308.576	5684
309.825	5652
311.073	5700
312.321	5768
313.569	5744
314.816	5720
316.064	5680
317.311	5832
318.558	5844
319.806	5764
321.052	5760
322.299	5826
323.545	5684
324.79	5796
326.036	5770
327.282	5742
328.527	5850
329.772	5752
331.017	5774
332.261	5754
333.506	5778
334.75	5844
335.994	5908
337.238	5768
338.482	5856
339.725	5782
340.968	5822
342.211	5772
343.454	5820
344.697	5854
345.939	5908
347.182	5880
348.424	5836
349.666	5986
350.907	6008
352.149	5878
353.39	5930
354.631	5986
355.87	5954
357.111	6006
358.352	5842
359.592	5992
360.832	5974
362.072	6026
363.311	5992
364.549	5954
365.789	6084
367.028	6050
368.267	6032
369.505	6024
370.742	5970
371.981	6014
373.219	5964
374.457	6044
375.694	6018
376.93	5912
378.168	5998
379.405	6024
380.642	5928
381.877	5950
383.113	6106
384.35	5942
385.584	6060
386.82	6024
388.056	6048
389.291	6002
390.525	6138
391.76	5994
392.995	6056
394.228	6066
395.463	6154
396.696	6068
397.93	6066
399.164	6074
400.396	6020
401.63	6002
402.863	6130
404.095	6130
405.328	6076
406.559	6172
407.791	6090
409.022	6194
410.254	6166
411.486	6248
412.717	6226
413.948	6242
415.178	6240
416.409	6376
417.639	6244
418.87	6296
420.099	6376
421.329	6300
422.558	6458
423.788	6402
425.016	6452
426.244	6438
427.474	6512
428.701	6438
429.93	6482
431.158	6494
432.386	6410
433.613	6484
434.84	6488
436.068	6520
437.294	6520
438.522	6488
439.748	6494
440.974	6596
442.201	6516
443.426	6550
444.651	6526
445.878	6512
447.103	6436
448.327	6478
449.553	6586
450.777	6496
452.001	6516
453.225	6578
454.45	6444
455.674	6490
456.897	6558
458.121	6508
459.344	6588
460.567	6478
461.789	6574
463.012	6506
464.235	6540
465.457	6524
466.679	6552
467.9	6636
469.122	6598
470.344	6600
471.565	6472
472.786	6622
474.006	6578
475.227	6598
476.447	6634
477.668	6664
478.888	6682
480.107	6608
481.327	6668
482.546	6694
483.765	6632
484.984	6672
486.202	6632
487.421	6740
488.639	6664
489.857	6694
491.075	6748
492.292	6734
493.51	6820
494.727	6774
495.944	6768
497.161	6726
498.377	6884
499.594	6804
500.81	6814
502.026	6822
503.242	6790
504.458	6870
505.673	6890
506.888	6836
508.104	6852
509.318	6856
510.533	6818
511.748	6864
512.962	6816
514.176	6896
515.39	6918
516.602	6942
517.816	6802
519.029	6824
520.242	6830
521.455	6860
522.668	6862
523.881	6822
525.092	6908
526.304	6848
527.516	6872
528.728	6838
529.939	6996
531.149	6842
532.361	6854
533.572	6856
534.783	6852
535.992	6864
537.202	6960
538.413	6794
539.623	6768
540.831	6744
542.041	6826
543.25	6942
544.458	6830
545.667	6796
546.876	6960
548.084	6860
549.292	6830
550.501	6902
551.707	6848
552.915	6904
554.123	6904
555.329	6878
556.537	6956
557.743	6948
558.95	6960
560.156	6872
561.362	6944
562.568	6998
563.773	6940
564.979	6986
566.184	6954
567.389	6916
568.595	6892
569.799	6996
571.004	6952
572.207	6992
573.412	6920
574.615	7052
575.82	7004
577.022	6966
578.226	7032
579.429	7042
580.631	7048
581.834	7086
583.036	7094
584.239	7082
585.44	7126
586.643	7168
587.844	6974
589.045	7042
590.247	7106
591.448	7244
592.649	7162
593.849	7180
595.049	7082
596.25	7046
597.45	7112
598.649	7144
599.85	7082
601.049	7130
602.248	7238
603.448	7138
604.646	7140
605.844	7156
607.042	7178
608.241	7256
609.439	7230
610.637	7316
611.834	7134
613.032	7190
614.229	7320
615.426	7200
616.622	7296
617.819	7260
619.016	7310
620.212	7298
621.408	7248
622.603	7246
623.799	7430
624.994	7414
626.19	7298
627.385	7504
628.58	7414
629.774	7346
630.969	7398
632.163	7498
633.356	7396
634.55	7396
635.744	7478
636.938	7446
638.131	7464
639.324	7484
640.517	7490
641.71	7444
642.902	7454
644.094	7510
645.286	7512
646.478	7548
647.67	7568
648.861	7524
650.052	7428
651.243	7560
652.434	7480
653.625	7604
654.815	7660
656.006	7528
657.196	7562
658.384	7612
659.574	7524
660.764	7558
661.953	7636
663.142	7566
664.331	7536
665.52	7580
666.709	7570
667.897	7672
669.084	7572
670.272	7572
671.46	7588
672.648	7536
673.835	7516
675.021	7506
676.208	7556
677.395	7598
678.582	7572
679.768	7646
680.953	7576
682.14	7572
683.326	7584
684.512	7618
685.696	7538
686.881	7596
688.067	7624
689.252	7584
690.435	7620
691.62	7672
692.804	7600
693.987	7588
695.171	7526
696.355	7668
697.538	7650
698.721	7602
699.905	7616
701.087	7652
702.27	7552
703.451	7724
704.634	7632
705.816	7668
706.997	7798
708.179	7638
709.36	7812
710.542	7706
711.722	7704
712.903	7878
714.083	7676
715.264	7640
716.445	7758
717.624	7696
718.805	7746
719.984	7752
721.162	7714
722.342	7846
723.52	7736
724.7	7770
725.878	7874
727.057	7816
728.235	7912
729.414	7744
730.591	7812
731.768	7756
732.946	7674
734.123	7884
735.301	7810
736.477	7860
737.653	7834
738.83	7882
740.006	7900
741.182	7830
742.358	7878
743.534	7896
744.709	7814
745.885	7850
747.06	7812
748.234	7944
749.41	7892
750.584	7806
751.758	7710
752.931	7854
754.106	7938
755.28	7792
756.453	7954
757.626	7860
758.8	7874
759.973	7996
761.145	7890
762.318	7896
763.49	7830
764.662	7854
765.835	8036
767.006	7844
768.178	7868
769.349	7890
770.52	7728
771.691	7938
772.861	7914
774.033	7874
775.203	7890
776.373	8032
777.543	7896
778.713	7870
779.883	7844
781.052	7924
782.221	7992
783.39	7992
784.559	7980
785.727	7834
786.896	7876
788.064	7854
789.232	7894
790.4	7960
791.568	7976
792.735	7972
793.903	7906
795.07	8000
796.237	7980
797.404	8048
798.57	7990
799.737	7942
800.903	8086
802.068	8070
803.234	7990
804.399	8080
805.565	8096
806.73	7932
807.896	7954
809.061	8028
810.224	7990
811.389	7938
812.553	8104
813.717	7968
814.881	8112
816.045	7910
817.208	8144
818.371	8128
819.535	8048
820.698	8088
821.859	8264
823.022	8140
824.185	8204
825.347	8128
826.508	8150
827.67	8160
828.832	8188
829.993	8180
831.154	8210
832.316	8196
833.476	8250
834.637	8102
835.797	8206
836.957	8244
838.117	8264
839.278	8142
840.436	8228
841.596	8266
842.755	8272
843.914	8274
845.074	8278
846.232	8352
847.391	8344
848.548	8336
849.707	8306
850.864	8278
852.022	8328
853.179	8204
854.337	8268
855.493	8254
856.651	8300
857.807	8336
858.964	8402
860.12	8400
861.277	8342
862.432	8368
863.589	8386
864.744	8320
865.9	8336
867.055	8440
868.209	8554
869.365	8520
870.519	8358
871.674	8462
872.828	8316
873.982	8346
875.136	8328
876.29	8350
877.443	8456
878.597	8354
879.75	8370
880.902	8430
882.056	8412
883.208	8394
884.36	8392
885.512	8408
886.665	8278
887.816	8276
888.967	8402
890.118	8398
891.271	8332
892.421	8340
893.572	8352
894.722	8438
895.874	8480
897.024	8256
898.174	8426
899.323	8324
900.473	8408
901.622	8404
902.771	8302
903.922	8282
905.07	8310
906.219	8398
907.367	8284
908.516	8548
909.664	8344
910.811	8286
911.959	8328
913.107	8318
914.254	8320
915.401	8328
916.55	8376
917.696	8342
918.843	8308
919.99	8376
921.136	8370
922.282	8388
923.428	8494
924.574	8362
925.719	8412
926.863	8318
928.009	8398
929.154	8338
930.299	8454
931.443	8432
932.588	8388
933.732	8404
934.876	8398
936.02	8408
937.164	8430
938.308	8442
939.45	8360
940.593	8496
941.736	8526
942.879	8482
944.022	8432
945.165	8418
946.306	8448
947.448	8558
948.59	8480
949.732	8462
950.874	8654
952.014	8512
953.155	8694
954.296	8596
955.437	8550
956.577	8670
957.718	8546
958.858	8620
959.997	8594
961.137	8682
962.277	8580
963.416	8642
964.555	8558
965.695	8726
966.833	8592
967.972	8606
969.111	8580
970.248	8668
971.387	8750
972.524	8482
973.662	8592
974.8	8708
975.936	8594
977.074	8618
978.21	8576
979.348	8600
980.483	8688
981.62	8612
982.757	8666
983.893	8606
985.029	8678
986.164	8616
987.299	8604
988.435	8618
989.569	8594
990.705	8728
991.839	8590
992.974	8672
994.108	8686
995.243	8676
996.376	8602
997.509	8726
998.644	8634
999.777	8622
1000.91	8736
1002.04	8620
1003.18	8618
1004.31	8634
1005.44	8666
1006.57	8630
1007.71	8706
1008.84	8706
1009.97	8738
1011.1	8752
1012.23	8642
1013.36	8658
1014.49	8720
1015.63	8648
1016.76	8824
1017.89	8786
1019.02	8716
1020.15	8704
1021.28	8698
1022.41	8782
1023.54	8692
1024.66	8740
1025.79	8768
1026.92	8814
1028.05	8810
1029.18	8746
1030.31	8706
1031.44	8634
1032.56	8748
1033.69	8798
1034.82	8888
1035.95	8816
1037.08	8872
1038.2	8888
1039.33	8864
1040.46	8894
1041.58	8908
1042.71	8846
1043.83	8908
1044.96	8884
1046.09	8932
1047.21	8846
1048.34	8924
1049.46	8944
1050.59	8940
1051.71	8890
1052.84	8942
1053.96	8930
1055.09	8850
1056.21	8932
1057.33	8896
1058.46	8917
1059.58	8938
1060.71	8920
1061.83	8862
1062.95	9070
1064.07	9006
1065.2	9038
1066.32	9000
1067.44	8992
1068.56	9020
1069.69	9054
1070.81	8946
1071.93	9012
1073.05	8940
1074.17	8948
1075.29	8934
1076.41	8884
1077.54	8872
1078.66	8898
1079.78	9056
1080.9	8948
1082.02	8918
1083.14	8878
1084.25	8994
1085.37	8888
1086.49	8844
1087.61	8872
1088.73	8734
1089.85	8882
1090.97	8784
1092.09	8860
1093.21	8954
1094.32	8878
1095.44	8870
1096.56	8954
1097.68	8768
1098.79	8802
1099.91	8824
1101.03	8844
1102.14	8768
1103.26	8776
1104.38	8796
1105.49	8730
1106.61	8828
1107.72	8756
1108.84	8642
1109.96	8790
1111.07	8844
1112.19	8764
1113.3	8702
1114.42	8910
1115.53	8800
1116.64	8826
1117.76	8718
1118.87	8874
1119.99	8692
1121.1	8764
1122.21	8874
1123.33	8880
1124.44	8876
1125.55	8800
1126.66	8802
1127.78	8820
1128.89	8738
1130	8890
1131.11	8836
1132.23	8892
1133.34	8850
1134.45	8770
1135.56	8738
1136.67	8818
1137.78	8852
1138.89	8952
1140	8876
1141.11	8990
1142.22	8844
1143.33	8888
1144.44	8888
1145.55	8984
1146.66	8954
1147.77	8908
1148.88	9022
1149.99	8930
1151.1	9042
1152.21	8944
1153.32	8896
1154.42	9016
1155.53	8936
1156.64	9040
1157.75	9040
1158.85	9020
1159.96	9106
1161.07	8990
1162.17	8970
1163.28	9076
1164.39	8988
1165.49	9064
1166.6	9020
1167.71	9052
1168.81	9010
1169.92	9048
1171.02	9094
1172.13	8878
1173.23	9138
1174.34	9110
1175.44	9172
1176.55	9116
1177.65	9000
1178.76	9082
1179.86	9026
1180.97	9042
1182.07	9002
1183.17	8986
1184.28	9148
1185.38	9004
1186.48	8910
1187.58	9018
1188.69	9100
1189.79	9008
1190.89	9098
1191.99	8984
1193.1	9022
1194.2	9016
1195.3	8988
1196.4	9012
1197.5	8974
1198.6	8966
1199.7	8980
1200.8	8898
1201.9	8934
1203	8908
1204.1	8838
1205.2	8840
1206.3	8844
1207.4	9026
1208.5	8848
1209.6	8902
1210.7	8860
1211.8	9002
1212.9	8902
1214	8888
1215.1	8874
1216.19	8796
1217.29	8836
1218.39	8950
1219.49	8792
1220.58	8792
1221.68	8894
1222.78	8716
1223.88	8738
1224.97	8848
1226.07	8714
1227.17	8890
1228.26	8844
1229.36	8842
1230.45	8848
1231.55	8728
1232.65	8738
1233.74	8894
1234.84	8910
1235.93	8858
1237.02	8736
1238.12	8706
1239.21	8948
1240.31	8796
1241.4	8886
1242.5	8886
1243.59	8856
1244.68	8850
1245.78	8942
1246.87	8814
1247.96	8828
1249.06	8826
1250.15	8854
1251.24	8854
1252.33	8896
1253.43	8946
1254.52	8836
1255.61	8744
1256.7	9000
1257.79	8890
1258.88	8954
1259.98	8918
1261.07	8994
1262.16	8930
1263.25	8980
1264.34	8968
1265.43	8944
1266.52	8934
1267.61	8990
1268.7	8988
1269.79	9034
1270.88	8904
1271.96	8938
1273.05	8940
1274.14	8928
1275.23	8922
1276.32	8894
1277.41	8906
1278.5	8884
1279.58	8948
1280.67	9026.83
1281.76	8905.07
1282.85	8920.85
1283.93	8834.07
1285.02	8873.08
1286.11	8869.06
1287.19	8831.38
1288.28	8786.61
1289.37	8841.83
1290.45	8791.65
1291.54	8695.69
1292.63	8790.4
1293.71	8834.24
1294.8	8816.71
1295.88	8787.28
1296.97	8803.72
1298.05	8793.32
1299.14	8726.42
1300.22	8686.79
1301.31	8757.15
1302.39	8645.16
1303.47	8576.9
1304.56	8662.18
1305.64	8600.88
1306.72	8672.53
1307.81	8550.69
1308.89	8519.99
1309.97	8530.05
1311.06	8493.75
1312.14	8559.62
1313.22	8584.58
1314.3	8516.9
1315.39	8383.79
1316.47	8468.83
1317.55	8416.73
1318.63	8464.67
1319.71	8331.28
1320.79	8383.01
1321.88	8307.08
1322.96	8315.25
1324.04	8264.36
1325.12	8290.65
1326.2	8290.84
1327.28	8201.27
1328.36	8217.54
1329.44	8279.8
1330.52	8114.05
1331.6	8162.31
1332.68	8170.47
1333.76	8186.15
1334.84	8139.01
1335.91	8080.07
1336.99	8170.97
1338.07	8105.37
1339.15	8059.54
1340.23	8012.39
1341.31	8025.48
1342.38	7979.02
1343.46	7954.32
1344.54	7954.73
1345.62	7940.07
1346.69	7935.98
1347.77	7937.72
1348.85	7875.51
1349.92	7936.47
1351	7854.13
1352.08	7806.81
1353.15	7832.68
1354.23	7849.64
1355.3	7828.7
1356.38	7841.83
1357.46	7759.42
1358.53	7706.03
1359.6	7755.11
1360.68	7699.38
1361.75	7663.26
1362.83	7679.66
1363.9	7666.63
1364.98	7572.87
1366.05	7559.77
1367.13	7549.96
1368.2	7589.49
1369.27	7529.8
1370.35	7510.41
1371.42	7470.02
1372.49	7465.34
1373.56	7472.04
1374.64	7483.28
1375.71	7459.59
1376.78	7429.67
1377.85	7464.39
1378.93	7482.28
1380	7415.23
1381.07	7347.19
1382.14	7334.37
1383.21	7361.01
1384.28	7319.71
1385.35	7308.89
1386.43	7334.87
1387.5	7249.21
1388.57	7187.96
1389.64	7223.58
1390.13	7254
1391.2	7290
1392.28	7246
1393.35	7190
1394.43	7284
1395.5	7188
1396.57	7220
1397.65	7232
1398.72	7190
1399.8	7268
1400.87	7292
1401.94	7258
1403.02	7240
1404.09	7180
1405.17	7208
1406.24	7162
1407.31	7212
1408.38	7056
1409.46	7194
1410.53	7160
1411.6	7196
1412.67	7126
1413.74	7172
1414.82	7160
1415.89	7192
1416.96	7112
1418.03	7136
1419.1	7234
1420.17	7086
1421.24	7110
1422.31	7162
1423.38	7184
1424.45	7140
1425.52	7002
1426.59	7142
1427.66	7136
1428.73	7142
1429.8	7022
1430.87	6964
1431.94	7082
1433.01	7150
1434.08	7134
1435.14	7082
1436.21	7072
1437.28	7150
1438.35	7096
1439.42	7060
1440.48	7034
1441.55	7156
1442.62	7124
1443.68	7114
1444.75	7076
1445.82	7050
1446.89	7060
1447.95	7088
1449.02	7156
1450.08	7094
1451.15	7036
1452.22	7094
1453.28	7160
1454.35	7168
1455.41	7236
1456.48	7132
1457.54	7136
1458.61	7054
1459.67	7148
1460.73	7146
1461.8	7208
1462.86	7216
1463.93	7114
1464.99	7098
1466.05	7100
1467.12	7146
1468.18	7094
1469.24	7200
1470.31	7100
1471.37	7136
1472.43	7128
1473.49	7154
1474.56	7182
1475.62	7192
1476.68	7110
1477.74	7210
1478.8	7168
1479.86	7182
1480.93	7158
1481.99	7220
1483.05	7104
1484.11	7164
1485.17	7152
1486.23	7236
1487.29	7122
1488.35	7212
1489.41	7234
1490.47	7146
1491.53	7246
1492.59	7098
1493.65	7146
1494.71	7158
1495.76	7128
1496.82	7092
1497.88	7164
1498.94	7194
1500	7044
1501.06	7280
1502.11	7162
1503.17	7148
1504.23	7158
1505.29	7178
1506.34	7094
1507.4	7130
1508.46	7060
1509.51	7128
1510.57	7118
1511.63	7184
1512.68	7078
1513.74	7124
1514.8	7070
1515.85	7236
1516.91	7100
1517.96	7158
1519.02	7096
1520.07	7112
1521.13	7044
1522.18	7008
1523.24	7102
1524.29	7116
1525.34	7074
1526.4	7012
1527.45	6986
1528.51	7126
1529.56	7066
1530.61	7100
1531.67	7194
1532.72	7000
1533.77	7086
1534.82	7104
1535.88	6956
1536.93	7122
1537.98	7054
1539.03	7050
1540.08	6992
1541.14	6962
1542.19	7042
1543.24	7004
1544.29	7100
1545.34	7204
1546.39	6982
1547.44	7018
1548.49	6990
1549.54	7144
1550.59	6946
1551.64	6958
1552.69	7026
1553.74	7038
1554.79	7022
1555.84	6964
1556.89	6990
1557.94	6964
1558.99	7010
1560.04	7028
1561.09	7060
1562.14	6996
1563.18	6902
1564.23	7012
1565.28	7002
1566.33	6942
1567.37	7008
1568.42	6978
1569.47	6988
1570.52	7000
1571.56	6958
1572.61	7040
1573.66	6952
1574.7	6984
1575.75	6988
1576.79	6952
1577.84	6994
1578.89	6972
1579.93	6912
1580.98	7042
1582.02	6906
1583.07	6980
1584.11	6964
1585.16	6980
1586.2	7012
1587.25	7064
1588.29	6846
1589.34	6922
1590.38	6886
1591.42	6936
1592.47	7028
1593.51	6876
1594.55	6830
1595.6	6946
1596.64	6924
1597.68	7042
1598.72	6874
1599.77	6930
1600.81	6948
1601.85	6960
1602.89	7040
1603.94	6954
1604.98	6964
1606.02	6898
1607.06	6978
1608.1	6964
1609.14	6924
1610.18	7000
1611.22	6960
1612.26	6970
1613.3	6894
1614.34	6996
1615.38	7050
1616.42	6934
1617.46	7056
1618.5	6806
1619.54	6970
1620.58	6848
1621.62	6962
1622.66	6994
1623.7	6950
1624.74	6888
1625.78	6926
1626.81	7066
1627.85	7046
1628.89	6962
1629.93	6902
1630.97	6776
1632	6948
1633.04	6996
1634.08	6998
1635.11	6928
1636.15	6974
1637.19	6968
1638.22	6922
1639.26	6902
1640.3	6956
1641.33	6876
1642.37	6860
1643.4	6828
1644.44	6888
1645.47	6746
1646.51	6914
1647.55	6790
1648.58	6748
1649.61	6782
1650.65	6840
1651.68	6844
1652.72	6706
1653.75	6868
1654.79	6674
1655.82	6768
1656.85	6708
1657.89	6852
1658.92	6612
1659.95	6714
1660.98	6716
1662.02	6706
1663.05	6706
1664.08	6716
1665.12	6696
1666.15	6590
1667.18	6638
1668.21	6608
1669.24	6614
1670.27	6598
1671.3	6606
1672.34	6578
1673.37	6632
1674.4	6572
1675.43	6610
1676.46	6614
1677.49	6618
1678.52	6556
1679.55	6580
1680.58	6614
1681.61	6582
1682.64	6520
1683.67	6560
1684.7	6564
1685.73	6580
1686.75	6526
1687.78	6526
1688.81	6512
1689.84	6494
1690.87	6520
1691.9	6568
1692.93	6560
1693.95	6468
1694.98	6500
1696.01	6464
1697.03	6550
1698.06	6500
1699.09	6456
1700.12	6516
1701.14	6572
1702.17	6382
1703.2	6568
1704.22	6494
1705.25	6516
1706.27	6464
1707.3	6398
1708.32	6448
1709.35	6390
1710.37	6448
1711.4	6398
1712.42	6446
1713.45	6480
1714.47	6384
1715.5	6336
1716.52	6266
1717.55	6504
1718.57	6488
1719.59	6364
1720.62	6324
1721.64	6420
1722.67	6308
1723.69	6442
1724.71	6430
1725.73	6460
1726.76	6370
1727.78	6442
1728.8	6382
1729.82	6440
1730.84	6292
1731.87	6376
1732.89	6400
1733.91	6382
1734.93	6332
1735.95	6314
1736.97	6264
1737.99	6390
1739.01	6378
1740.04	6308
1741.06	6318
1742.08	6420
1743.1	6458
1744.12	6440
1745.14	6286
1746.16	6432
1747.18	6396
1748.19	6322
1749.21	6352
1750.23	6354
1751.25	6438
1752.27	6342
1753.29	6320
1754.31	6302
1755.33	6338
1756.34	6338
1757.36	6340
1758.38	6388
1759.4	6206
1760.41	6300
1761.43	6296
1762.45	6388
1763.47	6378
1764.48	6334
1765.5	6312
1766.51	6370
1767.53	6360
1768.55	6330
1769.56	6364
1770.58	6312
1771.6	6250
1772.61	6246
1773.63	6200
1774.64	6286
1775.66	6262
1776.67	6274
1777.69	6340
1778.7	6244
1779.71	6334
1780.73	6268
1781.74	6326
1782.76	6344
1783.77	6320
1784.78	6286
1785.8	6380
1786.81	6254
1787.82	6338
1788.84	6384
1789.85	6270
1790.86	6242
1791.88	6278
1792.89	6260
1793.9	6354
1794.91	6408
1795.92	6268
1796.94	6362
1797.95	6252
1798.96	6254
1799.97	6282
1800.98	6328
1801.99	6296
1803	6308
1804.01	6210
1805.02	6290
1806.03	6268
1807.04	6280
1808.05	6226
1809.06	6274
1810.07	6258
1811.08	6188
1812.09	6248
1813.1	6216
1814.11	6252
1815.12	6228
1816.13	6240
1817.14	6186
1818.14	6216
1819.15	6220
1820.16	6276
1821.17	6216
1822.18	6196
1823.18	6216
1824.19	6170
1825.2	6300
1826.21	6190
1827.21	6170
1828.22	6116
1829.23	6112
1830.23	6180
1831.24	6194
1832.25	6164
1833.25	6172
1834.26	6010
1835.27	6166
1836.27	6086
1837.28	6100
1838.28	6050
1839.29	6146
1840.29	6034
1841.3	6086
1842.3	6126
1843.31	6080
1844.31	6078
1845.31	6050
1846.32	6138
1847.32	6042
1848.33	6098
1849.33	6042
1850.33	6054
1851.34	6120
1852.34	6058
1853.34	6020
1854.35	6042
1855.35	6108
1856.35	6002
1857.35	6042
1858.36	5950
1859.36	5946
1860.36	6082
1861.36	5962
1862.36	5934
1863.36	6058
1864.36	6034
1865.37	5950
1866.37	6020
1867.37	6018
1868.37	6004
1869.37	5900
1870.37	5962
1871.37	5942
1872.37	5986
1873.37	5970
1874.37	5940
1875.37	6024
1876.37	5958
1877.37	5880
1878.37	5950
1879.37	5956
1880.36	6036
1881.36	5934
1882.36	5966
1883.36	5884
1884.36	5854
1885.36	5954
1886.35	5986
1887.35	5894
1888.35	5904
1889.35	5968
1890.34	5962
1891.34	5894
1892.34	5936
1893.34	5888
1894.33	5942
1895.33	5948
1896.33	5896
1897.32	5926
1898.32	5892
1899.31	5938
1900.31	5948
1901.3	5932
1902.3	5920
1903.3	5928
1904.29	5892
1905.29	5954
1906.28	5888
1907.27	5836
1908.27	5806
1909.26	5976
1910.26	5918
1911.25	5792
1912.25	5912
1913.24	5870
1914.23	5946
1915.23	5888
1916.22	5920
1917.21	5844
1918.21	5878
1919.2	5930
1920.19	5790
1921.18	5820
1922.18	5860
1923.17	5926
1924.16	5874
1925.15	5884
1926.14	5798
1927.14	5864
1928.13	5850
1929.12	5876
1930.11	5938
1931.1	5864
1932.09	5862
1933.08	5772
1934.07	5906
1935.06	5794
1936.05	5944
1937.04	5814
1938.03	5832
1939.02	5856
1940.01	5862
1941	5884
1941.99	5738
1942.98	5812
1943.97	5922
1944.96	5844
1945.95	5738
1946.94	5848
1947.92	5798
1948.91	5834
1949.9	5794
1950.89	5748
1951.88	5742
1952.86	5806
1953.85	5778
1954.84	5820
1955.83	5776
1956.81	5744
1957.8	5712
1958.79	5728
1959.77	5838
1960.76	5700
1961.75	5702
1962.73	5730
1963.72	5782
1964.7	5818
1965.69	5762
1966.68	5708
1967.66	5778
1968.65	5680
1969.63	5732
1970.62	5726
1971.6	5650
1972.59	5682
1973.57	5692
1974.55	5722
1975.54	5656
1976.52	5612
1977.51	5710
1978.49	5702
1979.47	5760
1980.46	5648
1981.44	5696
1982.42	5664
1983.41	5766
1984.39	5688
1985.37	5678
1986.35	5624
1987.34	5618
1988.32	5636
1989.3	5560
1990.28	5602
1991.27	5630
1992.25	5564
1993.23	5678
1994.21	5544
1995.19	5592
1996.17	5650
1997.15	5534
1998.13	5612
1999.11	5668
2000.09	5622
2001.07	5646
2002.05	5590
2003.03	5604
2004.01	5586
2004.99	5690
2005.97	5662
2006.95	5600
2007.93	5638
2008.91	5636
2009.89	5648
2010.87	5550
2011.85	5548
2012.82	5566
2013.8	5628
2014.78	5614
2015.76	5536
2016.74	5564
2017.72	5582
2018.69	5548
2019.67	5546
2020.65	5572
2021.62	5592
2022.6	5592
2023.58	5508
2024.55	5560
2025.53	5547
2026.51	5534
2027.48	5606
2028.46	5422
2029.44	5570
2030.41	5566
2031.39	5550
2032.36	5596
2033.34	5566
2034.31	5546
2035.29	5438
2036.26	5534
2037.24	5518
2038.21	5504
2039.19	5470
2040.16	5512
2041.14	5486
2042.11	5606
2043.08	5506
2044.06	5582
2045.03	5488
2046	5460
2046.98	5528
2047.95	5424
2048.92	5518
2049.9	5470
2050.87	5436
2051.84	5544
2052.81	5478
2053.79	5410
2054.76	5332
2055.73	5444
2056.7	5428
2057.67	5502
2058.64	5528
2059.61	5442
2060.59	5396
2061.56	5518
2062.53	5440
2063.5	5336
2064.47	5452
2065.44	5412
2066.41	5286
2067.38	5588
2068.35	5390
2069.32	5384
2070.29	5436
2071.26	5402
2072.23	5368
2073.2	5396
2074.17	5368
2075.14	5356
2076.1	5356
2077.07	5454
2078.04	5344
2079.01	5350
2079.98	5466
2080.95	5356
2081.91	5320
2082.88	5318
2083.85	5334
2084.82	5322
2085.78	5406
2086.75	5334
2087.72	5268
2088.68	5320
2089.65	5350
2090.62	5372
2091.58	5386
2092.55	5282
2093.52	5348
2094.48	5396
2095.45	5272
2096.41	5312
2097.38	5320
2098.35	5294
2099.31	5340
2100.28	5344
2101.24	5312
2102.21	5296
2103.17	5286
2104.14	5296
2105.1	5236
2106.06	5240
2107.03	5262
2107.99	5180
2108.96	5282
2109.92	5240
2110.88	5268
2111.85	5238
2112.81	5306
2113.77	5168
2114.73	5204
2115.7	5340
2116.66	5304
2117.62	5302
2118.58	5106
2119.55	5212
2120.51	5252
2121.47	5192
2122.43	5160
2123.39	5238
2124.36	5122
2125.32	5228
2126.28	5204
2127.24	5234
2128.2	5278
2129.16	5226
2130.12	5224
2131.08	5176
2132.04	5160
2133	5200
2133.96	5136
2134.92	5160
2135.88	5162
2136.84	5116
2137.8	5146
2138.76	5096
2139.72	5138
2140.68	5196
2141.64	5222
2142.59	5202
2143.55	5130
2144.51	5074
2145.47	5110
2146.43	5180
2147.39	5068
2148.34	5060
2149.3	5126
2150.26	5096
2151.22	5152
2152.17	5100
2153.13	5066
2154.09	5116
2155.04	5094
2156	5084
2156.96	5034
2157.91	5044
2158.87	5108
2159.82	5066
2160.78	5080
2161.74	5028
2162.69	5146
2163.65	5064
2164.6	5038
2165.56	5060
2166.51	5036
2167.47	5030
2168.42	5052
2169.38	4892
2170.33	5020
2171.29	5064
2172.24	5012
2173.19	4988
2174.15	4964
2175.1	4982
2176.05	5054
2177.01	4990
2177.96	5002
2178.91	5000
2179.87	4940
2180.82	5014
2181.77	4870
2182.73	4886
2183.68	4994
2184.63	4884
2185.58	4918
2186.53	4968
2187.49	4880
2188.44	4918
2189.39	4920
2190.34	4932
2191.29	4836
2192.24	4898
2193.19	4888
2194.14	4966
2195.09	4904
2196.05	4834
2197	4900
2197.95	4954
2198.9	4828
2199.85	4746
2200.8	4802
2201.75	4904
2202.7	4834
2203.64	4796
2204.59	4890
2205.54	4830
2206.49	4784
2207.44	4824
2208.39	4850
2209.34	4760
2210.29	4892
2211.23	4802
2212.18	4878
2213.13	4826
2214.08	4666
2215.03	4766
2215.97	4736
2216.92	4820
2217.87	4868
2218.81	4800
2219.76	4756.58
2220.71	4708.09
2221.66	4822.32
2222.6	4774.26
2223.55	4760.02
2224.49	4707.35
2225.44	4792.96
2226.39	4750.18
2227.33	4743.52
2228.28	4720.39
2229.22	4656.49
2230.17	4750.73
2231.11	4734.16
2232.06	4737
2233	4731.57
2233.95	4670.02
2234.89	4704.53
2235.84	4707.48
2236.78	4653.32
2237.73	4726.18
2238.67	4570.6
2239.61	4708.43
2240.56	4729.67
2241.5	4679.44
2242.45	4703.43
2243.39	4668.29
2244.33	4647.79
2245.28	4709.15
2246.22	4690.3
2247.16	4615.14
2248.1	4649.76
2249.05	4619.3
2249.99	4631.27
2250.93	4658.47
2251.87	4571
2252.81	4591.43
2253.76	4628.55
2254.7	4604.15
2255.64	4606.93
2256.58	4614.55
2257.52	4603.95
2258.46	4612.75
2259.4	4555.93
2260.34	4549.49
2261.28	4617.47
2262.23	4614.82
2263.17	4605.62
2264.11	4598.52
2265.05	4530.17
2265.99	4509.6
2266.93	4539
2267.87	4576.02
2268.8	4491.54
2269.74	4593.3
2270.68	4526.3
2271.62	4507.12
2272.56	4539.35
2273.5	4483.56
2274.44	4491.19
2275.38	4509.59
2276.32	4470.72
2277.25	4491.49
2278.19	4472.08
2279.13	4447.99
2280.07	4412.97
2281.01	4468.78
2281.94	4427.4
2282.88	4496.43
2283.82	4417.13
2284.76	4379.94
2285.69	4431.53
2286.63	4433.67
2287.57	4368.08
2288.5	4496.49
2289.44	4360.18
2290.37	4346.2
2291.31	4327.44
2292.25	4397.9
2293.18	4398.13
2294.12	4405.99
2295.05	4399.63
2295.99	4364.85
2296.92	4392.7
2297.86	4347.19
2298.79	4361.55
2299.73	4262.7
2300.66	4307.92
2301.6	4330.11
2302.53	4376.62
2303.47	4349.51
2304.4	4352.51
2305.34	4347.78
2306.27	4326.16
2307.2	4263.59
2308.14	4267.21
2309.07	4346.71
2310	4261.02
2310.94	4271.82
2311.87	4287.47
2312.8	4267.81
2313.74	4313.42
2313.98	4332
2314.92	4310
2315.86	4312
2316.79	4284
2317.73	4282
2318.67	4328
2319.6	4174
2320.54	4188
2321.48	4246
2322.41	4272
2323.35	4242
2324.29	4316
2325.22	4328
2326.16	4284
2327.09	4208
2328.03	4236
2328.96	4302
2329.9	4242
2330.83	4204
2331.77	4190
2332.7	4204
2333.64	4308
2334.57	4250
2335.51	4196
2336.44	4170
2337.38	4230
2338.31	4138
2339.24	4256
2340.18	4266
2341.11	4252
2342.04	4150
2342.98	4164
2343.91	4202
2344.84	4168
2345.78	4188
2346.71	4228
2347.64	4150
2348.57	4128
2349.51	4174
2350.44	4220
2351.37	4272
2352.3	4196
2353.24	4174
2354.17	4226
2355.1	4130
2356.03	4220
2356.96	4116
2357.89	4228
2358.82	4158
2359.75	4182
2360.68	4180
2361.62	4252
2362.55	4174
2363.48	4172
2364.41	4160
2365.34	4160
2366.27	4162
2367.2	4172
2368.13	4208
2369.05	4114
2369.98	4074
2370.91	4140
2371.84	4136
2372.77	4124
2373.7	4144
2374.63	4194
2375.56	4072
2376.49	4114
2377.41	4216
2378.34	4146
2379.27	4130
2380.2	4142
2381.12	4094
2382.05	4154
2382.98	4174
2383.91	4084
2384.83	4166
2385.76	4098
2386.69	4028
2387.61	4128
2388.54	4172
2389.47	4166
2390.39	4084
2391.32	4096
2392.25	4128
2393.17	4084
2394.1	4106
2395.02	4034
2395.95	4070
2396.87	4048
2397.8	4098
2398.72	4128
2399.65	4172
2400.57	4072
2401.5	4046
2402.42	4112
2403.35	4130
2404.27	4104
2405.2	4092
2406.12	4040
2407.04	3998
2407.97	4028
2408.89	4078
2409.81	4062
2410.74	4092
2411.66	4062
2412.58	4080
2413.51	4108
2414.43	4032
2415.35	4082
2416.27	4060
2417.2	3994
2418.12	4018
2419.04	3962
2419.96	4022
2420.88	3998
2421.81	4082
2422.73	4116
2423.65	4042
2424.57	4024
2425.49	4046
2426.41	3990
2427.33	4040
2428.25	4086
2429.17	4064
2430.1	4076
2431.02	4008
2431.94	4002
2432.85	4040
2433.77	3996
2434.7	4000
2435.61	3970
2436.53	4036
2437.45	3980
2438.37	4118
2439.29	3934
2440.21	3998
2441.13	3960
2442.05	4042
2442.97	3982
2443.88	3946
2444.8	4054
2445.72	4024
2446.64	3964
2447.56	3918
2448.47	3924
2449.39	3968
2450.31	4002
2451.23	3906
2452.14	3912
2453.06	3978
2453.98	3914
2454.89	3938
2455.81	3990
2456.73	3944
2457.64	3982
2458.56	3904
2459.48	3966
2460.39	3948
2461.31	3948
2462.22	3982
2463.14	3892
2464.05	3968
2464.97	3946
2465.88	3968
2466.8	3930
2467.71	3910
2468.63	3912
2469.54	3986
2470.46	3978
2471.37	3878
2472.29	3956
2473.2	3926
2474.11	3914
2475.03	3860
2475.94	3908
2476.86	3846
2477.77	3924
2478.68	3934
2479.59	3900
2480.51	3922
2481.42	3908
2482.33	3834
2483.25	3914
2484.16	3900
2485.07	3862
2485.98	3850
2486.9	3912
2487.81	3884
2488.72	3976
2489.63	3918
2490.54	3948
2491.45	3890
2492.36	3898
2493.28	3858
2494.19	3878
2495.1	3894
2496.01	3856
2496.92	3840
2497.83	3788
2498.74	3830
2499.65	3894
2500.56	3796
2501.47	3860
2502.38	3886
2503.29	3846
2504.2	3916
2505.11	3860
2506.02	3808
2506.93	3870
2507.83	3802
2508.74	3840
2509.65	3878
2510.56	3826
2511.47	3812
2512.38	3802
2513.29	3758
2514.19	3878
2515.1	3808
2516.01	3812
2516.92	3842
2517.82	3852
2518.73	3808
2519.64	3766
2520.55	3758
2521.45	3876
2522.36	3728
2523.27	3844
2524.17	3780
2525.08	3706
2525.99	3850
2526.89	3840
2527.8	3848
2528.7	3800
2529.61	3778
2530.51	3774
2531.42	3756
2532.33	3742
2533.23	3718
2534.14	3760
2535.04	3696
2535.95	3756
2536.85	3824
2537.75	3754
2538.66	3760
2539.56	3784
2540.47	3760
2541.37	3790
2542.28	3680
2543.18	3640
2544.08	3702
2544.99	3756
2545.89	3762
2546.79	3716
2547.7	3700
2548.6	3804
2549.5	3752
2550.4	3744
2551.31	3712
2552.21	3684
2553.11	3746
2554.01	3706
2554.92	3686
2555.82	3642
2556.72	3732
2557.62	3764
2558.52	3636
2559.42	3756
2560.32	3684
2561.23	3680
2562.13	3758
2563.03	3666
2563.93	3672
2564.83	3686
2565.73	3732
2566.63	3612
2567.53	3718
2568.43	3698
2569.33	3696
2570.23	3654
2571.13	3694
2572.03	3634
2572.93	3660
2573.83	3732
2574.73	3660
2575.63	3672
2576.52	3618
2577.42	3702
2578.32	3644
2579.22	3624
2580.12	3642
2581.02	3604
2581.91	3688
2582.81	3700
2583.71	3642
2584.61	3708
2585.51	3702
2586.4	3668
2587.3	3632
2588.2	3640
2589.09	3644
2589.99	3646
2590.89	3648
2591.78	3620
2592.68	3680
2593.58	3610
2594.47	3580
2595.37	3582
2596.26	3598
2597.16	3636
2598.06	3628
2598.95	3628
2599.85	3606
2600.74	3580
2601.64	3594
2602.53	3568
2603.43	3534
2604.32	3582
2605.22	3528
2606.11	3660
2607.01	3566
2607.9	3600
2608.79	3538
2609.69	3608
2610.58	3594
2611.48	3534
2612.37	3588
2613.26	3562
2614.16	3564
2615.05	3622
2615.94	3558
2616.84	3578
2617.73	3534
2618.62	3552
2619.51	3554
2620.41	3516
2621.3	3520
2622.19	3524
2623.08	3482
2623.97	3542
2624.87	3532
2625.76	3536
2626.65	3486
2627.54	3504
2628.43	3624
2629.32	3498
2630.21	3408
2631.1	3546
2631.99	3528
2632.89	3516
2633.78	3562
2634.67	3504
2635.56	3512
2636.45	3496
2637.34	3482
2638.23	3500
2639.12	3398
2640.01	3462
2640.9	3472
2641.78	3450
2642.67	3420
2643.56	3498
2644.45	3474
2645.34	3608
2646.23	3498
2647.12	3522
2648.01	3468
2648.89	3488
2649.78	3454
2650.67	3484
2651.56	3422
2652.45	3408
2653.33	3424
2654.22	3500
2655.11	3390
2656	3422
2656.88	3412
2657.77	3496
2658.66	3420
2659.54	3478
2660.43	3440
2661.32	3398
2662.2	3472
2663.09	3378
2663.97	3422
2664.86	3506
2665.75	3518
2666.63	3396
2667.52	3430
2668.4	3448
2669.29	3434
2670.17	3422
2671.06	3396
2671.94	3350
2672.83	3440
2673.71	3424
2674.6	3482
2675.48	3368
2676.37	3480
2677.25	3426
2678.13	3388
2679.02	3412
2679.9	3390
2680.78	3432
2681.67	3420
2682.55	3380
2683.43	3452
2684.32	3298
2685.2	3390
2686.08	3362
2686.97	3394
2687.85	3364
2688.73	3368
2689.61	3338
2690.5	3398
2691.38	3338
2692.26	3390
2693.14	3346
2694.02	3340
2694.9	3368
2695.79	3378
2696.67	3378
2697.55	3328
2698.43	3374
2699.31	3356
2700.19	3294
2701.07	3346
2701.95	3386
2702.83	3296
2703.71	3310
2704.59	3310
2705.47	3276
2706.35	3314
2707.23	3290
2708.11	3308
2708.99	3282
2709.87	3328
2710.75	3302
2711.63	3334
2712.51	3306
2713.39	3316
2714.27	3314
2715.14	3228
2716.02	3302
2716.9	3350
2717.78	3282
2718.66	3282
2719.54	3268
2720.41	3298
2721.29	3242
2722.17	3262
2723.05	3278
2723.92	3258
2724.8	3326
2725.68	3280
2726.55	3282
2727.43	3306
2728.31	3284
2729.18	3262
2730.06	3172
2730.94	3202
2731.81	3284
2732.69	3274
2733.57	3228
2734.44	3174
2735.32	3216
2736.19	3220
2737.07	3226
2737.94	3242
2738.82	3246
2739.69	3292
2740.57	3146
2741.44	3296
2742.32	3168
2743.19	3306
2744.07	3214
2744.94	3150
2745.81	3240
2746.69	3210
2747.56	3216
2748.44	3174
2749.31	3186
2750.18	3132
2751.06	3166
2751.93	3224
2752.8	3186
2753.68	3186
2754.55	3220
2755.42	3136
2756.29	3114
2757.17	3168
2758.04	3132
2758.91	3188
2759.78	3120
2760.65	3136
2761.53	3168
2762.4	3124
2763.27	3178
2764.14	3136
2765.01	3110
2765.88	3182
2766.76	3144
2767.63	3142
2768.5	3124
2769.37	3092
2770.24	3154
2771.11	3140
2771.98	3144
2772.85	3110
2773.72	3112
2774.59	3138
2775.46	3116
2776.33	3158
2777.2	3110
2778.07	3160
2778.94	3158
2779.81	3132
2780.67	3034
2781.54	3076
2782.41	3076
2783.28	3066
2784.15	3188
2785.02	3138
2785.89	3032
2786.75	3052
2787.62	3080
2788.49	3150
2789.36	3080
2790.23	3108
2791.09	3066
2791.96	3142
2792.83	3116
2793.7	3078
2794.56	3082
2795.43	3080
2796.3	3144
2797.16	3102
2798.03	3078
2798.9	3172
2799.76	3038
2800.63	3026
2801.49	3084
2802.36	3034
2803.23	3082
2804.09	3044
2804.96	3118
2805.82	3090
2806.69	3054
2807.55	3080
2808.42	3034
2809.28	3084
2810.15	3014
2811.01	2988
2811.88	2962
2812.74	3004
2813.61	3110
2814.47	3006
2815.33	3028
2816.2	3034
2817.06	3058
2817.93	2956
2818.79	3084
2819.65	3026
2820.52	3016
2821.38	3070
2822.24	2966
2823.11	2950
2823.97	2974
2824.83	2992
2825.69	3058
2826.55	2986
2827.42	2946
2828.28	2938
2829.14	3004
2830	3006
2830.87	2934
2831.73	2950
2832.59	2984
2833.45	3074
2834.31	2996
2835.17	3014
2836.03	2978
2836.89	2998
2837.76	2936
2838.62	2952
2839.48	2952
2840.34	2958
2841.2	2924
2842.06	2930
2842.92	2914
2843.78	2938
2844.64	2892
2845.5	2962
2846.36	2868
2847.22	2908
2848.07	2904
2848.93	2924
2849.79	2946
2850.65	2870
2851.51	2878
2852.37	2864
2853.23	2938
2854.09	2912
2854.95	2910
2855.8	2904
2856.66	2906
2857.52	2884
2858.38	2916
2859.24	2858
2860.09	2842
2860.95	2896
2861.81	2836
2862.66	2926
2863.52	2846
2864.38	2894
2865.24	2908
2866.09	2868
2866.95	2924
2867.81	2866
2868.66	2882
2869.52	2818
2870.37	2820
2871.23	2822
2872.09	2816
2872.94	2814
2873.8	2862
2874.65	2888
2875.51	2826
2876.36	2914
2877.22	2824
2878.07	2896
2878.93	2804
2879.78	2774
2880.64	2884
2881.49	2836
2882.35	2776
2883.2	2856
2884.05	2814
2884.91	2782
2885.76	2838
2886.62	2814
2887.47	2730
2888.32	2818
2889.18	2778
2890.03	2854
2890.88	2834
2891.74	2764
2892.59	2750
2893.44	2850
2894.29	2792
2895.15	2802
2896	2782
2896.85	2808
2897.7	2766
2898.55	2836
2899.41	2838
2900.26	2760
2901.11	2714
2901.96	2798
2902.81	2784
2903.66	2788
2904.52	2820
2905.37	2784
2906.22	2776
2907.07	2800
2907.92	2766
2908.77	2786
2909.62	2724
2910.47	2760
2911.32	2770
2912.17	2710
2913.02	2738
2913.87	2748
2914.72	2746
2915.57	2784
2916.42	2794
2917.27	2728
2918.12	2730
2918.97	2830
2919.82	2766
2920.66	2746
2921.51	2742
2922.36	2728
2923.21	2700
2924.06	2748
2924.91	2778
2925.75	2786
2926.6	2766
2927.45	2760
2928.3	2744
2929.15	2750
2929.99	2696
2930.84	2746
2931.69	2722
2932.54	2724
2933.38	2688
2934.23	2692
2935.08	2848
2935.92	2678
2936.77	2710
2937.62	2702
2938.46	2726
2939.31	2712
2940.15	2754
2941	2756
2941.85	2730
2942.69	2698
2943.54	2626
2944.38	2712
2945.23	2734
2946.07	2662
2946.92	2734
2947.76	2682
2948.61	2672
2949.45	2626
2950.3	2738
2951.14	2676
2951.99	2686
2952.83	2644
2953.67	2638
2954.52	2620
2955.36	2666
2956.21	2668
2957.05	2686
2957.89	2662
2958.74	2682
2959.58	2612
2960.42	2594
2961.27	2620
2962.11	2646
2962.95	2572
2963.79	2618
2964.64	2630
2965.48	2624
2966.32	2682
2967.16	2616
2968.01	2648
2968.85	2604
2969.69	2658
2970.53	2688
2971.37	2568
2972.21	2656
2973.05	2626
2973.9	2622
2974.74	2582
2975.58	2642
2976.42	2630
2977.26	2596
2978.1	2558
2978.94	2614
2979.78	2602
2980.62	2600
2981.46	2612
2982.3	2596
2983.14	2548
2983.98	2544
2984.82	2514
2985.66	2522
2986.5	2568
2987.34	2616
2988.18	2584
2989.02	2606
2989.86	2518
2990.69	2600
2991.53	2550
2992.37	2514
2993.21	2534
2994.05	2566
2994.89	2546
2995.72	2566
2996.56	2502
2997.4	2542
2998.24	2530
2999.08	2596
2999.91	2530
3000.75	2506
3001.59	2460
3002.43	2490
3003.26	2510
3004.1	2480
3004.94	2510
3005.77	2512
3006.61	2540
3007.45	2528
3008.28	2476
3009.12	2472
3009.95	2462
3010.79	2532
3011.63	2546
3012.46	2474
3013.3	2476
3014.13	2498
3014.97	2480
3015.8	2458
3016.64	2466
3017.47	2516
3018.31	2402
3019.14	2532
3019.98	2486
3020.81	2518
3021.65	2544
3022.48	2442
3023.31	2454
3024.15	2420
3024.98	2408
3025.82	2460
3026.65	2414
3027.48	2436
3028.32	2402
3029.15	2424
3029.98	2462
3030.82	2420
3031.65	2456
3032.48	2470
3033.31	2490
3034.15	2480
3034.98	2452
3035.81	2434
3036.64	2444
3037.48	2426
3038.31	2442
3039.14	2442
3039.97	2350
3040.8	2455.25
3041.63	2451.29
3042.47	2443.05
3043.3	2383.77
3044.13	2440.75
3044.96	2422.65
3045.79	2416
3046.62	2368.75
3047.45	2363.88
3048.28	2367.43
3049.11	2368.97
3049.94	2388.26
3050.77	2338.48
3051.6	2380.69
3052.43	2388.43
3053.26	2348.42
3054.09	2319.66
3054.92	2411.05
3055.75	2392.79
3056.58	2346.1
3057.41	2333.14
3058.24	2330.09
3059.07	2351.82
3059.9	2374.71
3060.73	2359.53
3061.55	2362.6
3062.38	2395.98
3063.21	2289.28
3064.04	2334.67
3064.87	2355.04
3065.7	2337.29
3066.52	2337.73
3067.35	2300.37
3068.18	2338.51
3069.01	2329.8
3069.83	2330.33
3070.66	2296.77
3071.49	2301.68
3072.32	2330.01
3073.14	2269.77
3073.97	2310.13
3074.8	2247.03
3075.62	2270.14
3076.45	2300.78
3077.28	2296.16
3078.1	2284.33
3078.93	2292.26
3079.75	2313.49
3080.58	2242.29
3081.41	2277.96
3082.23	2236.48
3083.06	2307.67
3083.88	2239.59
3084.71	2231.72
3085.53	2248.38
3086.36	2251.77
3087.18	2226.05
3088.01	2228.66
3088.83	2253.83
3089.66	2228.73
3090.48	2209.04
3091.31	2195.37
3092.13	2181.8
3092.96	2183.73
3093.78	2214.96
3094.6	2226.85
3095.43	2211.58
3096.25	2211.37
3097.07	2176.55
3097.9	2177.63
3098.72	2196.31
3099.54	2217.9
3100.37	2188.91
3101.19	2167.86
3102.01	2159.06
3102.84	2206.09
3103.66	2166.34
3104.48	2158.93
3105.3	2152.9
3106.13	2136.17
3106.95	2125.41
3107.77	2163.88
3108.59	2121.44
3109.41	2152.66
3110.24	2178.41
3111.06	2120.81
3111.88	2114.73
3112.7	2122.5
3113.52	2117.35
3114.34	2086.15
3115.16	2101.98
3115.98	2119.08
3116.81	2138.24
3117.63	2128.42
3118.45	2102.99
3119.27	2092.19
3120.09	2119.6
3120.91	2128.76
3121.73	2089.88
3122.55	2028.63
3123.37	2039.6
3123.73	2068
3124.56	2044
3125.38	2108
3126.21	2034
3127.03	2086
3127.85	2136
3128.68	2028
3129.5	2020
3130.32	2022
3131.15	2020
3131.97	2076
3132.79	2112
3133.62	2020
3134.44	1986
3135.26	2030
3136.08	1996
3136.91	2054
3137.73	2042
3138.55	2046
3139.37	2070
3140.19	2014
3141.02	2036
3141.84	2010
3142.66	2008
3143.48	2012
3144.3	2040
3145.13	2044
3145.95	2016
3146.77	2042
3147.59	1998
3148.41	2030
3149.23	1990
3150.05	2016
3150.87	2036
3151.69	2000
3152.51	1986
3153.33	1994
3154.15	1984
3154.97	1992
3155.79	2010
3156.61	1936
3157.43	1950
3158.25	1978
3159.07	1986
3159.89	1984
3160.71	2018
3161.53	2016
3162.35	1992
3163.17	1992
3163.98	1950
3164.8	1972
3165.62	1992
3166.44	1996
3167.26	1984
3168.08	1970
3168.89	1978
3169.71	1958
3170.53	1930
3171.35	1932
3172.17	1948
3172.98	1966
3173.8	2000
3174.62	1940
3175.43	1938
3176.25	1948
3177.07	1948
3177.89	1982
3178.7	1966
3179.52	1978
3180.33	2032
3181.15	2026
3181.97	1958
3182.78	1992
3183.6	1970
3184.41	2008
3185.23	1928
3186.05	1996
3186.86	1958
3187.68	1984
3188.49	1912
3189.31	1928
3190.12	1952
3190.94	1934
3191.75	1904
3192.57	1948
3193.38	1992
3194.2	1930
3195.01	1948
3195.82	1956
3196.64	1962
3197.45	1940
3198.27	1932
3199.08	1912
3199.89	1952
3200.71	1906
3201.52	1982
3202.33	1976
3203.15	1926
3203.96	1932
3204.77	1942
3205.59	1932
3206.4	1930
3207.21	1918
3208.02	1942
3208.84	1936
3209.65	1966
3210.46	1912
3211.27	1920
3212.09	1896
3212.9	1880
3213.71	1896
3214.52	1886
3215.33	1910
3216.14	1914
3216.96	1890
3217.77	1870
3218.58	1890
3219.39	1922
3220.2	1902
3221.01	1906
3221.82	1860
3222.63	1868
3223.44	1878
3224.25	1898
3225.06	1900
3225.87	1904
3226.68	1914
3227.49	1912
3228.3	1954
3229.11	1904
3229.92	1866
3230.73	1908
3231.54	1852
3232.35	1866
3233.16	1888
3233.97	1844
3234.77	1842
3235.58	1882
3236.39	1872
3237.2	1812
3238.01	1848
3238.82	1848
3239.63	1854
3240.43	1824
3241.24	1832
3242.05	1856
3242.86	1898
3243.66	1874
3244.47	1876
3245.28	1862
3246.09	1834
3246.89	1872
3247.7	1826
3248.51	1840
3249.31	1852
3250.12	1882
3250.93	1846
3251.73	1816
3252.54	1882
3253.35	1830
3254.15	1824
3254.96	1868
3255.76	1838
3256.57	1864
3257.38	1826
3258.18	1832
3258.99	1806
3259.79	1840
3260.6	1876
3261.4	1788
3262.21	1856
3263.01	1774
3263.82	1810
3264.62	1834
3265.43	1816
3266.23	1786
3267.04	1774
3267.84	1800
3268.64	1786
3269.45	1770
3270.25	1822
3271.06	1774
3271.86	1838
3272.66	1804
3273.47	1780
3274.27	1784
3275.07	1782
3275.88	1784
3276.68	1720
3277.48	1768
3278.28	1802
3279.09	1780
3279.89	1800
3280.69	1774
3281.49	1756
3282.3	1758
3283.1	1742
3283.9	1726
3284.7	1768
3285.5	1708
3286.31	1772
3287.11	1776
3287.91	1782
3288.71	1754
3289.51	1758
3290.31	1750
3291.11	1742
3291.91	1758
3292.71	1726
3293.51	1760
3294.31	1734
3295.12	1724
3295.92	1756
3296.72	1742
3297.52	1732
3298.32	1698
3299.12	1784
3299.92	1776
3300.72	1762
3301.51	1772
3302.31	1776
3303.11	1746
3303.91	1728
3304.71	1682
3305.51	1724
3306.31	1746
3307.11	1692
3307.91	1744
3308.71	1728
3309.5	1696
3310.3	1746
3311.1	1750
3311.9	1684
3312.7	1692
3313.49	1700
3314.29	1742
3315.09	1716
3315.89	1730
3316.69	1728
3317.48	1690
3318.28	1672
3319.08	1742
3319.87	1650
3320.67	1734
3321.47	1700
3322.26	1738
3323.06	1734
3323.86	1664
3324.65	1716
3325.45	1682
3326.25	1738
3327.04	1692
3327.84	1714
3328.63	1726
3329.43	1676
3330.22	1690
3331.02	1704
3331.81	1700
3332.61	1722
3333.4	1680
3334.2	1720
3334.99	1722
3335.79	1632
3336.58	1720
3337.38	1710
3338.17	1728
3338.97	1694
3339.76	1690
3340.56	1692
3341.35	1654
3342.14	1678
3342.94	1664
3343.73	1740
3344.52	1632
3345.32	1692
3346.11	1658
3346.9	1666
3347.7	1648
3348.49	1724
3349.28	1612
3350.08	1688
3350.87	1640
3351.66	1666
3352.45	1664
3353.25	1648
3354.04	1684
3354.83	1690
3355.62	1670
3356.41	1650
3357.21	1650
3358	1636
3358.79	1648
3359.58	1710
3360.37	1674
3361.16	1698
3361.95	1686
3362.75	1624
3363.54	1626
3364.33	1620
3365.12	1618
3365.91	1662
3366.7	1680
3367.49	1628
3368.28	1628
3369.07	1652
3369.86	1630
3370.65	1628
3371.44	1656
3372.23	1588
3373.02	1656
3373.81	1640
3374.6	1638
3375.39	1638
3376.18	1610
3376.97	1612
3377.75	1602
3378.54	1680
3379.33	1622
3380.12	1606
3380.91	1634
3381.7	1650
3382.49	1626
3383.27	1670
3384.06	1596
3384.85	1580
3385.64	1614
3386.43	1618
3387.21	1586
3388	1598
3388.79	1590
3389.58	1626
3390.36	1646
3391.15	1634
3391.94	1572
3392.72	1610
3393.51	1576
3394.3	1554
3395.08	1608
3395.87	1570
3396.66	1568
3397.44	1638
3398.23	1652
3399.01	1626
3399.8	1606
3400.59	1576
3401.37	1594
3402.16	1594
3402.94	1586
3403.73	1560
3404.51	1598
3405.3	1558
3406.08	1642
3406.87	1580
3407.65	1586
3408.44	1586
3409.22	1600
3410.01	1546
3410.79	1558
3411.58	1560
3412.36	1578
3413.14	1632
3413.93	1586
3414.71	1540
3415.5	1552
3416.28	1560
3417.06	1568
3417.85	1588
3418.63	1574
3419.41	1544
3420.2	1554
3420.98	1556
3421.76	1548
3422.54	1502
3423.33	1546
3424.11	1566
3424.89	1552
3425.67	1522
3426.46	1576
3427.24	1504
3428.02	1514
3428.8	1548
3429.58	1524
3430.36	1522
3431.15	1546
3431.93	1504
3432.71	1500
3433.49	1506
3434.27	1534
3435.05	1518
3435.83	1506
3436.61	1488
3437.4	1512
3438.18	1572
3438.96	1498
3439.74	1546
3440.52	1562
3441.3	1548
3442.08	1496
3442.86	1566
3443.64	1476
3444.42	1528
3445.2	1520
3445.98	1472
3446.76	1512
3447.53	1524
3448.31	1516
3449.09	1492
3449.87	1554
3450.65	1488
3451.43	1488
3452.21	1480
3452.99	1492
3453.77	1508
3454.54	1502
3455.32	1518
3456.1	1572
3456.88	1480
3457.66	1498
3458.43	1488
3459.21	1508
3459.99	1516
3460.77	1482
3461.54	1496
3462.32	1508
3463.1	1512
3463.88	1528
3464.65	1506
3465.43	1470
3466.21	1518
3466.98	1498
3467.76	1516
3468.53	1454
3469.31	1512
3470.09	1518
3470.86	1494
3471.64	1492
3472.42	1440
3473.19	1438
3473.97	1456
3474.74	1482
3475.52	1480
3476.29	1482
3477.07	1476
3477.84	1466
3478.62	1442
3479.39	1494
3480.17	1504
3480.94	1484
3481.72	1486
3482.49	1452
3483.27	1438
3484.04	1422
3484.82	1408
3485.59	1516
3486.36	1446
3487.14	1462
3487.91	1510
3488.68	1492
3489.46	1460
3490.23	1442
3491	1466
3491.78	1418
3492.55	1450
3493.32	1414
3494.1	1444
3494.87	1418
3495.64	1416
3496.42	1430
3497.19	1424
3497.96	1446
3498.73	1458
3499.5	1454
3500.28	1448
3501.05	1504
3501.82	1432
3502.59	1432
3503.36	1406
3504.14	1442
3504.91	1478
3505.68	1428
3506.45	1448
3507.22	1434
3507.99	1432
3508.76	1398
3509.53	1452
3510.3	1464
3511.07	1420
3511.84	1428
3512.61	1430
3513.38	1444
3514.16	1434
3514.92	1406
3515.7	1428
3516.46	1418
3517.23	1448
3518	1458
3518.77	1390
3519.54	1388
3520.31	1430
3521.08	1406
3521.85	1394
3522.62	1430
3523.39	1408
3524.16	1362
3524.93	1412
3525.69	1454
3526.46	1396
3527.23	1418
3528	1396
3528.77	1384
3529.53	1438
3530.3	1434
3531.07	1418
3531.84	1422
3532.61	1420
3533.37	1352
3534.14	1402
3534.91	1432
3535.68	1406
3536.44	1404
3537.21	1440
3537.98	1370
3538.74	1402
3539.51	1380
3540.28	1372
3541.04	1406
3541.81	1392
3542.58	1376
3543.34	1408
3544.11	1418
3544.87	1406
3545.64	1422
3546.4	1404
3547.17	1358
3547.94	1374
3548.7	1390
3549.47	1400
3550.23	1326
3551	1364
3551.76	1388
3552.53	1384
3553.29	1340
3554.06	1330
3554.82	1378
3555.59	1364
3556.35	1350
3557.11	1378
3557.88	1390
3558.64	1380
3559.41	1342
3560.17	1354
3560.93	1410
3561.7	1342
3562.46	1366
3563.22	1380
3563.99	1358
3564.75	1378
3565.51	1336
3566.28	1334
3567.04	1402
3567.8	1394
3568.56	1360
3569.33	1338
3570.09	1366
3570.85	1392
3571.61	1332
3572.38	1378
3573.14	1302
3573.9	1362
3574.66	1326
3575.42	1370
3576.19	1336
3576.95	1316
3577.71	1350
3578.47	1374
3579.23	1356
3579.99	1342
3580.75	1330
3581.51	1406
3582.28	1372
3583.04	1358
3583.8	1320
3584.56	1362
3585.32	1352
3586.08	1312
3586.84	1282
3587.6	1302
3588.36	1302
3589.12	1320
3589.88	1342
3590.64	1336
3591.4	1312
3592.16	1328
3592.92	1342
3593.67	1286
3594.43	1358
3595.19	1306
3595.95	1374
3596.71	1358
3597.47	1320
3598.23	1288
3598.99	1316
3599.75	1348
3600.5	1320
3601.26	1304
3602.02	1264
3602.78	1298
3603.54	1336
3604.29	1284
3605.05	1240
3605.81	1300
3606.57	1294
3607.32	1310
3608.08	1320
3608.84	1278
3609.59	1338
3610.35	1288
3611.11	1306
3611.87	1280
3612.62	1366
3613.38	1330
3614.13	1308
3614.89	1286
3615.65	1264
3616.4	1312
3617.16	1298
3617.92	1308
3618.67	1282
3619.43	1302
3620.18	1328
3620.94	1282
3621.69	1256
3622.45	1292
3623.2	1284
3623.96	1290
3624.71	1304
3625.47	1294
3626.22	1262
3626.98	1338
3627.73	1286
3628.49	1302
3629.24	1302
3630	1302
3630.75	1270
3631.5	1302
3632.26	1254
3633.01	1228
3633.77	1284
3634.52	1270
3635.27	1270
3636.03	1244
3636.78	1272
3637.53	1216
3638.29	1264
3639.04	1238
3639.79	1280
3640.55	1258
3641.3	1260
3642.05	1306
3642.8	1256
3643.56	1314
3644.31	1260
3645.06	1256
3645.81	1298
3646.56	1260
3647.32	1236
3648.07	1284
3648.82	1238
3649.57	1294
3650.32	1226
3651.07	1268
3651.83	1246
3652.58	1230
3653.33	1240
3654.08	1268
3654.83	1244
3655.58	1262
3656.33	1240
3657.08	1234
3657.83	1228
3658.58	1260
3659.33	1250
3660.08	1240
3660.83	1258
3661.58	1240
3662.33	1220
3663.08	1238
3663.83	1256
3664.58	1260
3665.33	1236
3666.08	1288
3666.83	1234
3667.58	1252
3668.33	1254
3669.08	1226
3669.83	1260
3670.57	1246
3671.32	1228
3672.07	1244
3672.82	1216
3673.57	1248
3674.32	1236
3675.07	1258
3675.81	1260
3676.56	1204
3677.31	1240
3678.06	1204
3678.8	1228
3679.55	1232
3680.3	1244
3681.05	1240
3681.79	1218
3682.54	1244
3683.29	1186
3684.04	1222
3684.78	1228
3685.53	1206
3686.28	1228
3687.02	1250
3687.77	1226
3688.51	1196
3689.26	1194
3690.01	1170
3690.75	1210
3691.5	1200
3692.24	1182
3692.99	1212
3693.74	1190
3694.48	1210
3695.23	1180
3695.97	1200
3696.72	1184
3697.46	1204
3698.21	1182
3698.95	1196
3699.7	1172
3700.44	1200
3701.19	1200
3701.93	1248
3702.68	1198
3703.42	1182
3704.16	1236
3704.91	1188
3705.65	1200
3706.4	1188
3707.14	1188
3707.88	1208
3708.63	1202
3709.37	1162
3710.11	1174
3710.86	1216
3711.6	1196
3712.34	1150
3713.09	1124
3713.83	1172
3714.57	1148
3715.31	1176
3716.06	1194
3716.8	1216
3717.54	1166
3718.28	1196
3719.03	1196
3719.77	1166
3720.51	1174
3721.25	1216
3721.99	1180
3722.74	1188
3723.48	1174
3724.22	1206
3724.96	1196
3725.7	1192
3726.44	1244
3727.18	1160
3727.92	1196
3728.67	1186
3729.41	1174
3730.15	1176
3730.89	1162
3731.63	1174
3732.37	1170
3733.11	1198
3733.85	1128
3734.59	1192
3735.33	1176
3736.07	1158
3736.81	1134
3737.55	1138
3738.29	1148
3739.03	1170
3739.77	1120
3740.51	1138
3741.24	1166
3741.98	1178
3742.72	1138
3743.46	1170
3744.2	1138
3744.94	1118
3745.68	1172
3746.42	1172
3747.15	1134
3747.89	1186
3748.63	1130
3749.37	1196
3750.11	1202
3750.84	1136
3751.58	1144
3752.32	1186
3753.06	1138
3753.79	1132
3754.53	1170
3755.27	1128
3756.01	1126
3756.74	1116
3757.48	1116
3758.22	1122
3758.95	1114
3759.69	1158
3760.43	1136
3761.16	1098
3761.9	1128
3762.64	1164
3763.37	1125.95
3764.11	1149.46
3764.84	1112.22
3765.58	1128.76
3766.32	1141.59
3767.05	1102.48
3767.79	1150.68
3768.52	1149.02
3769.26	1150.89
3769.99	1117.78
3770.73	1122.83
3771.46	1140.9
3772.2	1110.67
3772.93	1123.96
3773.67	1136.45
3774.4	1132.77
3775.14	1111.07
3775.87	1121.53
3776.61	1116.13
3777.34	1106.19
3778.07	1125.78
3778.81	1096.92
3779.54	1124.58
3780.28	1094.19
3781.01	1139.97
3781.74	1098.49
3782.48	1109.92
3783.21	1127.58
3783.94	1139.86
3784.68	1111
3785.41	1079.42
3786.14	1091.85
3786.88	1093.96
3787.61	1077.87
3788.34	1127.71
3789.07	1088.59
3789.81	1110.62
3790.54	1087.49
3791.27	1085.43
3792	1101.73
3792.74	1116.38
3793.47	1099.83
3794.2	1093.3
3794.93	1090.17
3795.66	1091.91
3796.4	1077.64
3797.13	1063.21
3797.86	1095.15
3798.59	1105.9
3799.32	1101.1
3800.05	1068.93
3800.78	1093.92
3801.52	1093.84
3802.25	1076.43
3802.98	1061.85
3803.71	1077.14
3804.44	1080.27
3805.17	1075.88
3805.9	1070.26
3806.63	1065.35
3807.36	1076.16
3808.09	1094.66
3808.82	1108.84
3809.55	1084.54
3810.28	1087.23
3811.01	1086.42
3811.74	1103.47
3812.47	1062.92
3813.2	1063.95
3813.93	1067.48
3814.66	1102.78
3815.38	1082.97
3816.11	1087.66
3816.84	1081.11
3817.57	1076.94
3818.3	1070.63
3819.03	1074.05
3819.76	1055.98
3820.49	1061.52
3821.21	1052.69
3821.94	1053.53
3822.67	1078.54
3823.4	1068.06
3824.13	1044.77
3824.85	1068.69
3825.58	1082.22
3826.31	1081.63
3827.04	1083.86
3827.77	1067.84
3828.49	1055.14
3829.22	1068.64
3829.95	1067.83
3830.67	1050.11
3831.4	1060.84
3832.13	1057.69
3832.85	1033.44
3833.58	1009.67
3834.31	1057.72
3835.03	1044.18
3835.76	1058.69
3836.49	1056.7
3837.21	1048.3
3837.94	1061.94
3838.52	1030
3839.25	1040
3839.98	1028
3840.71	1066
3841.44	1108
3842.17	1034
3842.9	1046
3843.63	1012
3844.36	1068
3845.09	1072
3845.82	1000
3846.55	1028
3847.28	1028
3848	1032
3848.73	1038
3849.46	1022
3850.19	1040
3850.92	1052
3851.65	974
3852.38	1044
3853.1	1092
3853.83	1064
3854.56	1028
3855.29	1004
3856.02	1040
3856.74	1030
3857.47	976
3858.2	1046
3858.93	1026
3859.65	1024
3860.38	1038
3861.11	1018
3861.84	1042
3862.56	1018
3863.29	1052
3864.02	994
3864.74	1056
3865.47	1044
3866.2	1000
3866.92	1038
3867.65	1056
3868.38	1006
3869.1	1018
3869.83	980
3870.55	1000
3871.28	1012
3872.01	1026
3872.73	1016
3873.46	1002
3874.18	970
3874.91	1018
3875.63	1042
3876.36	992
3877.08	1040
3877.81	1028
3878.53	1004
3879.26	982
3879.98	980
3880.71	1024
3881.43	1010
3882.16	976
3882.88	1004
3883.6	990
3884.33	1004
3885.05	1014
3885.78	998
3886.5	1012
3887.22	970
3887.95	1000
3888.67	1020
3889.4	1048
3890.12	1026
3890.84	960
3891.57	992
3892.29	1002
3893.01	1020
3893.73	1014
3894.46	982
3895.18	996
3895.9	1012
3896.63	982
3897.35	980
3898.07	992
3898.79	1002
3899.51	992
3900.24	1004
3900.96	998
3901.68	976
3902.4	1032
3903.12	1004
3903.84	972
3904.57	1002
3905.29	1004
3906.01	924
3906.73	998
3907.45	1006
3908.17	1040
3908.89	968
3909.61	1004
3910.33	1012
3911.06	1000
3911.78	982
3912.5	974
3913.22	982
3913.94	974
3914.66	978
3915.38	976
3916.1	990
3916.82	964
3917.54	968
3918.26	1028
3918.98	988
3919.69	1014
3920.41	1004
3921.13	1006
3921.85	978
3922.57	976
3923.29	992
3924.01	952
3924.73	998
3925.45	956
3926.17	988
3926.88	974
3927.6	996
3928.32	962
3929.04	976
3929.76	990
3930.47	986
3931.19	970
3931.91	952
3932.63	974
3933.35	918
3934.06	952
3934.78	996
3935.5	994
3936.22	962
3936.93	966
3937.65	934
3938.37	976
3939.08	984
3939.8	986
3940.52	972
3941.23	998
3941.95	940
3942.67	980
3943.38	998
3944.1	974
3944.82	972
3945.53	936
3946.25	954
3946.96	956
3947.68	956
3948.4	954
3949.11	952
3949.83	918
3950.54	944
3951.26	928
3951.97	960
3952.69	954
3953.4	976
3954.12	972
3954.83	980
3955.55	954
3956.26	928
3956.98	962
3957.69	948
3958.4	936
3959.12	942
3959.83	940
3960.55	966
3961.26	944
3961.97	950
3962.69	936
3963.4	942
3964.12	956
3964.83	944
3965.54	948
3966.26	938
3966.97	930
3967.68	956
3968.4	990
3969.11	984
3969.82	932
3970.53	938
3971.25	896
3971.96	942
3972.67	904
3973.38	922
3974.1	944
3974.81	928
3975.52	916
3976.23	910
3976.94	940
3977.66	900
3978.37	920
3979.08	948
3979.79	926
3980.5	920
3981.21	924
3981.92	960
3982.64	908
3983.35	918
3984.06	944
3984.77	912
3985.48	916
3986.19	906
3986.9	918
3987.61	922
3988.32	946
3989.03	910
3989.74	914
3990.45	920
3991.16	922
3991.87	930
3992.58	882
3993.29	926
3994	902
3994.71	914
3995.42	910
3996.13	910
3996.84	918
3997.55	948
3998.26	912
3998.97	908
3999.67	910
