#Acq. time (s)=	10
#Accumulations=	1
#Range (cm-¹)=	200...4000
#Windows=	5
#Autofocus=	Off
#AutoExposure=	Off
#Spike filter=	Off
#Delay time (s)=	0
#Binning=	1
#Readout mode=	Signal
#DeNoise=	Off
#ICS correction=	Off
#Dark correction=	Off
#Inst. Process=	Off
#Instrument=	LabRAM HR Evol
#Detector=	Syncerity OE
#Objective=	x100_VIS
#Grating=	600 (500nm)
#ND Filter=	25%
#Laser=	633nm_Edge
#Hole=	100.021
#Range=	Visible
#Project=	Omar
#Sample=	03-07-23
#Site=	1
#Title=	OR
#Remark=	
#Date=	03.07.2023 13:41
#Acquired=	03.07.2023 13:41:30
200.404	900
201.671	888
202.938	898
204.205	892
205.472	904
206.737	858
208.003	880
209.269	918
210.535	880
211.799	874
213.064	932
214.33	884
215.595	898
216.858	898
218.122	914
219.387	900
220.649	918
221.913	894
223.177	938
224.439	902
225.703	932
226.966	934
228.227	904
229.49	932
230.752	924
232.013	942
233.275	914
234.536	930
235.798	924
237.059	926
238.319	934
239.58	926
240.839	930
242.1	942
243.361	976
244.619	952
245.879	964
247.138	926
248.398	948
249.655	954
250.915	978
252.172	984
253.431	974
254.688	980
255.947	918
257.204	940
258.462	958
259.718	924
260.976	952
262.232	946
263.487	980
264.744	924
266	910
267.256	956
268.511	966
269.767	952
271.022	942
272.276	918
273.532	950
274.786	962
276.04	952
277.295	980
278.548	960
279.801	984
281.055	988
282.308	978
283.561	968
284.814	962
286.066	926
287.318	936
288.572	950
289.823	948
291.074	946
292.327	982
293.578	952
294.828	986
296.079	970
297.331	992
298.581	992
299.831	1006
301.08	998
302.33	1002
303.581	1006
304.83	1032
306.079	1048
307.327	1028
308.576	982
309.825	1006
311.073	1006
312.321	1006
313.569	1016
314.816	986
316.064	1002
317.311	1014
318.558	972
319.806	974
321.052	974
322.299	1002
323.545	988
324.79	996
326.036	1016
327.282	1020
328.527	1024
329.772	1008
331.017	976
332.261	1010
333.506	1010
334.75	1022
335.994	1018
337.238	998
338.482	1030
339.725	1042
340.968	1002
342.211	1040
343.454	1034
344.697	1044
345.939	1044
347.182	1026
348.424	1026
349.666	1040
350.907	1038
352.149	1010
353.39	1050
354.631	1026
355.87	1016
357.111	1066
358.352	1028
359.592	1028
360.832	1038
362.072	1014
363.311	1062
364.549	1086
365.789	1060
367.028	1044
368.267	1038
369.505	1000
370.742	1018
371.981	1032
373.219	1020
374.457	1028
375.694	1044
376.93	1054
378.168	1048
379.405	1024
380.642	1060
381.877	1044
383.113	1080
384.35	1046
385.584	1050
386.82	1048
388.056	1016
389.291	1036
390.525	1062
391.76	1058
392.995	1060
394.228	1020
395.463	1030
396.696	1068
397.93	1094
399.164	1090
400.396	1040
401.63	1096
402.863	1054
404.095	1054
405.328	1070
406.559	1086
407.791	1082
409.022	1072
410.254	1068
411.486	1084
412.717	1100
413.948	1072
415.178	1106
416.409	1122
417.639	1114
418.87	1106
420.099	1112
421.329	1096
422.558	1096
423.788	1122
425.016	1140
426.244	1142
427.474	1130
428.701	1128
429.93	1138
431.158	1122
432.386	1142
433.613	1142
434.84	1184
436.068	1160
437.294	1128
438.522	1146
439.748	1134
440.974	1138
442.201	1116
443.426	1174
444.651	1176
445.878	1180
447.103	1090
448.327	1148
449.553	1164
450.777	1142
452.001	1174
453.225	1158
454.45	1202
455.674	1138
456.897	1138
458.121	1138
459.344	1162
460.567	1094
461.789	1160
463.012	1158
464.235	1150
465.457	1146
466.679	1118
467.9	1154
469.122	1186
470.344	1138
471.565	1158
472.786	1132
474.006	1160
475.227	1200
476.447	1170
477.668	1186
478.888	1154
480.107	1160
481.327	1210
482.546	1162
483.765	1170
484.984	1174
486.202	1174
487.421	1160
488.639	1194
489.857	1166
491.075	1148
492.292	1186
493.51	1184
494.727	1140
495.944	1178
497.161	1194
498.377	1192
499.594	1160
500.81	1200
502.026	1194
503.242	1164
504.458	1202
505.673	1196
506.888	1200
508.104	1236
509.318	1196
510.533	1244
511.748	1212
512.962	1168
514.176	1196
515.39	1194
516.602	1170
517.816	1248
519.029	1188
520.242	1210
521.455	1198
522.668	1206
523.881	1228
525.092	1172
526.304	1220
527.516	1194
528.728	1192
529.939	1206
531.149	1210
532.361	1178
533.572	1196
534.783	1188
535.992	1206
537.202	1182
538.413	1200
539.623	1188
540.831	1232
542.041	1212
543.25	1210
544.458	1172
545.667	1188
546.876	1178
548.084	1206
549.292	1218
550.501	1204
551.707	1196
552.915	1232
554.123	1180
555.329	1234
556.537	1218
557.743	1212
558.95	1206
560.156	1178
561.362	1178
562.568	1200
563.773	1218
564.979	1212
566.184	1198
567.389	1226
568.595	1212
569.799	1256
571.004	1234
572.207	1194
573.412	1274
574.615	1240
575.82	1240
577.022	1256
578.226	1266
579.429	1272
580.631	1234
581.834	1232
583.036	1284
584.239	1252
585.44	1268
586.643	1176
587.844	1250
589.045	1268
590.247	1234
591.448	1252
592.649	1258
593.849	1240
595.049	1236
596.25	1222
597.45	1248
598.649	1234
599.85	1242
601.049	1262
602.248	1282
603.448	1292
604.646	1230
605.844	1288
607.042	1242
608.241	1224
609.439	1256
610.637	1248
611.834	1260
613.032	1314
614.229	1244
615.426	1262
616.622	1276
617.819	1350
619.016	1260
620.212	1280
621.408	1316
622.603	1294
623.799	1302
624.994	1250
626.19	1302
627.385	1280
628.58	1338
629.774	1298
630.969	1308
632.163	1298
633.356	1334
634.55	1326
635.744	1334
636.938	1328
638.131	1340
639.324	1366
640.517	1300
641.71	1334
642.902	1336
644.094	1324
645.286	1364
646.478	1340
647.67	1334
648.861	1332
650.052	1344
651.243	1356
652.434	1346
653.625	1366
654.815	1374
656.006	1354
657.196	1320
658.384	1340
659.574	1328
660.764	1344
661.953	1314
663.142	1394
664.331	1346
665.52	1350
666.709	1342
667.897	1394
669.084	1384
670.272	1358
671.46	1390
672.648	1376
673.835	1334
675.021	1366
676.208	1366
677.395	1332
678.582	1364
679.768	1392
680.953	1306
682.14	1358
683.326	1322
684.512	1324
685.696	1332
686.881	1350
688.067	1372
689.252	1368
690.435	1392
691.62	1370
692.804	1394
693.987	1378
695.171	1382
696.355	1408
697.538	1366
698.721	1336
699.905	1356
701.087	1318
702.27	1356
703.451	1382
704.634	1374
705.816	1360
706.997	1370
708.179	1380
709.36	1376
710.542	1354
711.722	1318
712.903	1374
714.083	1368
715.264	1418
716.445	1382
717.624	1356
718.805	1374
719.984	1350
721.162	1380
722.342	1422
723.52	1414
724.7	1410
725.878	1404
727.057	1418
728.235	1408
729.414	1356
730.591	1410
731.768	1438
732.946	1376
734.123	1372
735.301	1438
736.477	1408
737.653	1414
738.83	1398
740.006	1416
741.182	1364
742.358	1454
743.534	1432
744.709	1432
745.885	1416
747.06	1430
748.234	1428
749.41	1444
750.584	1418
751.758	1398
752.931	1406
754.106	1416
755.28	1462
756.453	1398
757.626	1408
758.8	1434
759.973	1412
761.145	1446
762.318	1432
763.49	1402
764.662	1448
765.835	1452
767.006	1442
768.178	1438
769.349	1422
770.52	1428
771.691	1422
772.861	1452
774.033	1434
775.203	1446
776.373	1388
777.543	1436
778.713	1432
779.883	1448
781.052	1442
782.221	1432
783.39	1420
784.559	1476
785.727	1424
786.896	1440
788.064	1422
789.232	1458
790.4	1446
791.568	1462
792.735	1436
793.903	1450
795.07	1458
796.237	1432
797.404	1444
798.57	1452
799.737	1402
800.903	1482
802.068	1448
803.234	1526
804.399	1490
805.565	1464
806.73	1470
807.896	1494
809.061	1470
810.224	1420
811.389	1488
812.553	1464
813.717	1474
814.881	1510
816.045	1456
817.208	1488
818.371	1454
819.535	1530
820.698	1436
821.859	1496
823.022	1504
824.185	1500
825.347	1464
826.508	1470
827.67	1442
828.832	1506
829.993	1488
831.154	1500
832.316	1496
833.476	1522
834.637	1514
835.797	1566
836.957	1478
838.117	1470
839.278	1494
840.436	1488
841.596	1504
842.755	1530
843.914	1528
845.074	1484
846.232	1514
847.391	1528
848.548	1550
849.707	1482
850.864	1556
852.022	1538
853.179	1508
854.337	1526
855.493	1504
856.651	1502
857.807	1566
858.964	1548
860.12	1548
861.277	1512
862.432	1528
863.589	1538
864.744	1554
865.9	1542
867.055	1530
868.209	1548
869.365	1530
870.519	1564
871.674	1514
872.828	1566
873.982	1546
875.136	1532
876.29	1566
877.443	1528
878.597	1544
879.75	1532
880.902	1540
882.056	1532
883.208	1536
884.36	1508
885.512	1562
886.665	1514
887.816	1582
888.967	1554
890.118	1566
891.271	1564
892.421	1538
893.572	1574
894.722	1582
895.874	1598
897.024	1548
898.174	1524
899.323	1518
900.473	1558
901.622	1544
902.771	1572
903.922	1528
905.07	1526
906.219	1560
907.367	1554
908.516	1538
909.664	1562
910.811	1588
911.959	1554
913.107	1536
914.254	1570
915.401	1540
916.55	1518
917.696	1562
918.843	1558
919.99	1542
921.136	1596
922.282	1546
923.428	1572
924.574	1554
925.719	1606
926.863	1582
928.009	1558
929.154	1538
930.299	1556
931.443	1604
932.588	1576
933.732	1604
934.876	1544
936.02	1586
937.164	1574
938.308	1582
939.45	1588
940.593	1578
941.736	1582
942.879	1636
944.022	1540
945.165	1546
946.306	1604
947.448	1616
948.59	1584
949.732	1594
950.874	1624
952.014	1622
953.155	1580
954.296	1646
955.437	1600
956.577	1628
957.718	1596
958.858	1642
959.997	1648
961.137	1610
962.277	1614
963.416	1648
964.555	1632
965.695	1636
966.833	1574
967.972	1626
969.111	1576
970.248	1654
971.387	1630
972.524	1622
973.662	1602
974.8	1654
975.936	1620
977.074	1608
978.21	1634
979.348	1616
980.483	1650
981.62	1590
982.757	1634
983.893	1624
985.029	1686
986.164	1638
987.299	1638
988.435	1606
989.569	1622
990.705	1632
991.839	1664
992.974	1626
994.108	1662
995.243	1676
996.376	1564
997.509	1602
998.644	1580
999.777	1666
1000.91	1676
1002.04	1648
1003.18	1618
1004.31	1606
1005.44	1612
1006.57	1644
1007.71	1594
1008.84	1574
1009.97	1610
1011.1	1634
1012.23	1636
1013.36	1674
1014.49	1644
1015.63	1666
1016.76	1658
1017.89	1670
1019.02	1678
1020.15	1686
1021.28	1664
1022.41	1556
1023.54	1688
1024.66	1674
1025.79	1650
1026.92	1612
1028.05	1670
1029.18	1658
1030.31	1698
1031.44	1680
1032.56	1676
1033.69	1680
1034.82	1674
1035.95	1660
1037.08	1688
1038.2	1676
1039.33	1662
1040.46	1672
1041.58	1644
1042.71	1696
1043.83	1676
1044.96	1700
1046.09	1708
1047.21	1658
1048.34	1670
1049.46	1710
1050.59	1674
1051.71	1684
1052.84	1648
1053.96	1734
1055.09	1714
1056.21	1666
1057.33	1700
1058.46	1690
1059.58	1680
1060.71	1746
1061.83	1768
1062.95	2856
1064.07	1902
1065.2	1670
1066.32	1690
1067.44	1742
1068.56	1646
1069.69	1690
1070.81	1674
1071.93	1700
1073.05	1690
1074.17	1688
1075.29	1734
1076.41	1702
1077.54	1680
1078.66	1686
1079.78	1704
1080.9	1670
1082.02	1718
1083.14	1666
1084.25	1680
1085.37	1690
1086.49	1688
1087.61	1688
1088.73	1674
1089.85	1700
1090.97	1698
1092.09	1654
1093.21	1672
1094.32	1706
1095.44	1648
1096.56	1644
1097.68	1676
1098.79	1680
1099.91	1646
1101.03	1682
1102.14	1690
1103.26	1704
1104.38	1656
1105.49	1758
1106.61	1700
1107.72	1720
1108.84	1698
1109.96	1606
1111.07	1698
1112.19	1670
1113.3	1660
1114.42	1678
1115.53	1690
1116.64	1684
1117.76	1638
1118.87	1666
1119.99	1628
1121.1	1630
1122.21	1660
1123.33	1686
1124.44	1742
1125.55	1704
1126.66	1650
1127.78	1668
1128.89	1658
1130	1702
1131.11	1694
1132.23	1642
1133.34	1684
1134.45	1714
1135.56	1716
1136.67	1688
1137.78	1708
1138.89	1724
1140	1692
1141.11	1676
1142.22	1696
1143.33	1744
1144.44	1704
1145.55	1712
1146.66	1696
1147.77	1712
1148.88	1694
1149.99	1722
1151.1	1692
1152.21	1722
1153.32	1680
1154.42	1654
1155.53	1702
1156.64	1724
1157.75	1728
1158.85	1700
1159.96	1744
1161.07	1716
1162.17	1698
1163.28	1692
1164.39	1676
1165.49	1776
1166.6	1736
1167.71	1722
1168.81	1726
1169.92	1782
1171.02	1718
1172.13	1768
1173.23	1738
1174.34	1710
1175.44	1702
1176.55	1736
1177.65	1716
1178.76	1674
1179.86	1734
1180.97	1696
1182.07	1750
1183.17	1748
1184.28	1728
1185.38	1722
1186.48	1722
1187.58	1702
1188.69	1764
1189.79	1730
1190.89	1722
1191.99	1726
1193.1	1714
1194.2	1692
1195.3	1688
1196.4	1712
1197.5	1750
1198.6	1702
1199.7	1710
1200.8	1764
1201.9	1760
1203	1702
1204.1	1686
1205.2	1718
1206.3	1774
1207.4	1634
1208.5	1752
1209.6	1658
1210.7	1664
1211.8	1732
1212.9	1700
1214	1770
1215.1	1692
1216.19	1680
1217.29	1680
1218.39	1696
1219.49	1660
1220.58	1676
1221.68	1696
1222.78	1634
1223.88	1696
1224.97	1658
1226.07	1734
1227.17	1702
1228.26	1666
1229.36	1684
1230.45	1738
1231.55	1712
1232.65	1640
1233.74	1690
1234.84	1680
1235.93	1666
1237.02	1722
1238.12	1684
1239.21	1726
1240.31	1708
1241.4	1686
1242.5	1668
1243.59	1718
1244.68	1718
1245.78	1684
1246.87	1730
1247.96	1680
1249.06	1684
1250.15	1664
1251.24	1624
1252.33	1754
1253.43	1680
1254.52	1672
1255.61	1650
1256.7	1678
1257.79	1670
1258.88	1654
1259.98	1676
1261.07	1740
1262.16	1710
1263.25	1682
1264.34	1626
1265.43	1658
1266.52	1706
1267.61	1714
1268.7	1716
1269.79	1728
1270.88	1718
1271.96	1698
1273.05	1758
1274.14	1692
1275.23	1714
1276.32	1740
1277.41	1682
1278.5	1702
1279.58	1724
1280.67	1687.16
1281.76	1709.27
1282.85	1674.41
1283.93	1699.33
1285.02	1685.49
1286.11	1697.56
1287.19	1665.69
1288.28	1688.37
1289.37	1688.67
1290.45	1642.88
1291.54	1670.75
1292.63	1696.85
1293.71	1700.51
1294.8	1722.15
1295.88	1629.95
1296.97	1680.62
1298.05	1698.95
1299.14	1696.11
1300.22	1695.47
1301.31	1697.14
1302.39	1653.46
1303.47	1691.28
1304.56	1676.73
1305.64	1642.65
1306.72	1674.66
1307.81	1630.09
1308.89	1672.45
1309.97	1620.49
1311.06	1643.92
1312.14	1650.56
1313.22	1634.1
1314.3	1653.17
1315.39	1652.99
1316.47	1638.47
1317.55	1654.5
1318.63	1639.08
1319.71	1662.22
1320.79	1626.57
1321.88	1611.23
1322.96	1643.01
1324.04	1611.45
1325.12	1653.16
1326.2	1631.28
1327.28	1641.05
1328.36	1644.9
1329.44	1616.98
1330.52	1609.35
1331.6	1629.16
1332.68	1608.26
1333.76	1618.96
1334.84	1615.87
1335.91	1620.09
1336.99	1609.84
1338.07	1607.84
1339.15	1586.82
1340.23	1599.23
1341.31	1597.97
1342.38	1593.58
1343.46	1586.89
1344.54	1585.15
1345.62	1612.68
1346.69	1598.21
1347.77	1610.73
1348.85	1594.75
1349.92	1555.11
1351	1590.11
1352.08	1588.08
1353.15	1592.99
1354.23	1580.18
1355.3	1564.25
1356.38	1560.8
1357.46	1581.2
1358.53	1587.53
1359.6	1601.55
1360.68	1556.15
1361.75	1564.3
1362.83	1585.57
1363.9	1585.04
1364.98	1589.17
1366.05	1566.3
1367.13	1564.59
1368.2	1565.6
1369.27	1516.63
1370.35	1541.62
1371.42	1555.46
1372.49	1554.83
1373.56	1535.53
1374.64	1542.03
1375.71	1554
1376.78	1555.53
1377.85	1536.37
1378.93	1534.79
1380	1552.99
1381.07	1540.05
1382.14	1511.88
1383.21	1519.25
1384.28	1547.79
1385.35	1541.22
1386.43	1536.04
1387.5	1522.6
1388.57	1507.58
1389.64	1517.35
1390.13	1530
1391.2	1506
1392.28	1484
1393.35	1534
1394.43	1542
1395.5	1502
1396.57	1524
1397.65	1516
1398.72	1496
1399.8	1486
1400.87	1536
1401.94	1494
1403.02	1526
1404.09	1480
1405.17	1452
1406.24	1564
1407.31	1464
1408.38	1486
1409.46	1510
1410.53	1504
1411.6	1502
1412.67	1502
1413.74	1498
1414.82	1492
1415.89	1538
1416.96	1502
1418.03	1480
1419.1	1512
1420.17	1482
1421.24	1492
1422.31	1486
1423.38	1504
1424.45	1486
1425.52	1478
1426.59	1500
1427.66	1444
1428.73	1492
1429.8	1502
1430.87	1486
1431.94	1504
1433.01	1434
1434.08	1468
1435.14	1490
1436.21	1442
1437.28	1458
1438.35	1444
1439.42	1490
1440.48	1462
1441.55	1466
1442.62	1456
1443.68	1464
1444.75	1430
1445.82	1462
1446.89	1438
1447.95	1450
1449.02	1452
1450.08	1438
1451.15	1454
1452.22	1450
1453.28	1520
1454.35	1454
1455.41	1452
1456.48	1400
1457.54	1504
1458.61	1480
1459.67	1422
1460.73	1426
1461.8	1470
1462.86	1438
1463.93	1482
1464.99	1442
1466.05	1504
1467.12	1456
1468.18	1474
1469.24	1522
1470.31	1498
1471.37	1482
1472.43	1442
1473.49	1438
1474.56	1450
1475.62	1448
1476.68	1446
1477.74	1424
1478.8	1460
1479.86	1510
1480.93	1476
1481.99	1444
1483.05	1484
1484.11	1408
1485.17	1476
1486.23	1502
1487.29	1418
1488.35	1452
1489.41	1476
1490.47	1484
1491.53	1454
1492.59	1478
1493.65	1420
1494.71	1458
1495.76	1472
1496.82	1448
1497.88	1462
1498.94	1420
1500	1456
1501.06	1444
1502.11	1432
1503.17	1458
1504.23	1480
1505.29	1448
1506.34	1456
1507.4	1488
1508.46	1492
1509.51	1468
1510.57	1406
1511.63	1450
1512.68	1474
1513.74	1452
1514.8	1438
1515.85	1460
1516.91	1456
1517.96	1450
1519.02	1432
1520.07	1466
1521.13	1476
1522.18	1442
1523.24	1478
1524.29	1428
1525.34	1434
1526.4	1462
1527.45	1412
1528.51	1428
1529.56	1428
1530.61	1460
1531.67	1408
1532.72	1462
1533.77	1460
1534.82	1416
1535.88	1444
1536.93	1402
1537.98	1420
1539.03	1462
1540.08	1442
1541.14	1434
1542.19	1414
1543.24	1436
1544.29	1428
1545.34	1434
1546.39	1400
1547.44	1396
1548.49	1426
1549.54	1390
1550.59	1398
1551.64	1394
1552.69	1432
1553.74	1460
1554.79	1392
1555.84	1352
1556.89	1386
1557.94	1410
1558.99	1428
1560.04	1406
1561.09	1412
1562.14	1380
1563.18	1422
1564.23	1452
1565.28	1418
1566.33	1424
1567.37	1382
1568.42	1402
1569.47	1368
1570.52	1420
1571.56	1394
1572.61	1378
1573.66	1388
1574.7	1372
1575.75	1404
1576.79	1420
1577.84	1356
1578.89	1350
1579.93	1380
1580.98	1418
1582.02	1414
1583.07	1396
1584.11	1382
1585.16	1392
1586.2	1424
1587.25	1382
1588.29	1384
1589.34	1460
1590.38	1410
1591.42	1422
1592.47	1400
1593.51	1378
1594.55	1432
1595.6	1396
1596.64	1414
1597.68	1398
1598.72	1404
1599.77	1380
1600.81	1444
1601.85	1422
1602.89	1376
1603.94	1398
1604.98	1398
1606.02	1350
1607.06	1432
1608.1	1388
1609.14	1424
1610.18	1378
1611.22	1448
1612.26	1382
1613.3	1426
1614.34	1362
1615.38	1332
1616.42	1360
1617.46	1368
1618.5	1388
1619.54	1378
1620.58	1366
1621.62	1402
1622.66	1338
1623.7	1400
1624.74	1320
1625.78	1374
1626.81	1368
1627.85	1416
1628.89	1382
1629.93	1368
1630.97	1372
1632	1334
1633.04	1372
1634.08	1354
1635.11	1360
1636.15	1364
1637.19	1386
1638.22	1314
1639.26	1358
1640.3	1374
1641.33	1346
1642.37	1366
1643.4	1356
1644.44	1306
1645.47	1320
1646.51	1322
1647.55	1334
1648.58	1316
1649.61	1336
1650.65	1372
1651.68	1348
1652.72	1346
1653.75	1336
1654.79	1348
1655.82	1330
1656.85	1350
1657.89	1310
1658.92	1350
1659.95	1328
1660.98	1334
1662.02	1328
1663.05	1324
1664.08	1292
1665.12	1266
1666.15	1336
1667.18	1300
1668.21	1282
1669.24	1298
1670.27	1296
1671.3	1280
1672.34	1312
1673.37	1310
1674.4	1294
1675.43	1308
1676.46	1316
1677.49	1290
1678.52	1314
1679.55	1296
1680.58	1268
1681.61	1250
1682.64	1264
1683.67	1298
1684.7	1294
1685.73	1282
1686.75	1262
1687.78	1284
1688.81	1290
1689.84	1286
1690.87	1298
1691.9	1266
1692.93	1264
1693.95	1242
1694.98	1296
1696.01	1288
1697.03	1310
1698.06	1254
1699.09	1254
1700.12	1252
1701.14	1312
1702.17	1222
1703.2	1226
1704.22	1268
1705.25	1264
1706.27	1296
1707.3	1256
1708.32	1258
1709.35	1204
1710.37	1238
1711.4	1222
1712.42	1250
1713.45	1272
1714.47	1250
1715.5	1240
1716.52	1250
1717.55	1216
1718.57	1280
1719.59	1238
1720.62	1226
1721.64	1262
1722.67	1248
1723.69	1234
1724.71	1264
1725.73	1228
1726.76	1244
1727.78	1256
1728.8	1284
1729.82	1202
1730.84	1258
1731.87	1208
1732.89	1234
1733.91	1258
1734.93	1256
1735.95	1200
1736.97	1204
1737.99	1214
1739.01	1244
1740.04	1230
1741.06	1212
1742.08	1218
1743.1	1252
1744.12	1228
1745.14	1192
1746.16	1186
1747.18	1210
1748.19	1218
1749.21	1272
1750.23	1262
1751.25	1242
1752.27	1232
1753.29	1194
1754.31	1210
1755.33	1182
1756.34	1230
1757.36	1192
1758.38	1222
1759.4	1234
1760.41	1202
1761.43	1228
1762.45	1224
1763.47	1230
1764.48	1218
1765.5	1198
1766.51	1272
1767.53	1230
1768.55	1236
1769.56	1214
1770.58	1224
1771.6	1208
1772.61	1176
1773.63	1168
1774.64	1180
1775.66	1244
1776.67	1188
1777.69	1228
1778.7	1226
1779.71	1196
1780.73	1200
1781.74	1220
1782.76	1216
1783.77	1216
1784.78	1198
1785.8	1184
1786.81	1194
1787.82	1176
1788.84	1246
1789.85	1232
1790.86	1214
1791.88	1196
1792.89	1210
1793.9	1200
1794.91	1140
1795.92	1246
1796.94	1194
1797.95	1204
1798.96	1202
1799.97	1174
1800.98	1200
1801.99	1204
1803	1206
1804.01	1192
1805.02	1184
1806.03	1220
1807.04	1184
1808.05	1206
1809.06	1180
1810.07	1200
1811.08	1246
1812.09	1212
1813.1	1178
1814.11	1204
1815.12	1168
1816.13	1162
1817.14	1148
1818.14	1168
1819.15	1184
1820.16	1196
1821.17	1180
1822.18	1172
1823.18	1178
1824.19	1208
1825.2	1210
1826.21	1168
1827.21	1202
1828.22	1148
1829.23	1182
1830.23	1194
1831.24	1226
1832.25	1130
1833.25	1118
1834.26	1158
1835.27	1162
1836.27	1202
1837.28	1146
1838.28	1148
1839.29	1158
1840.29	1156
1841.3	1128
1842.3	1156
1843.31	1162
1844.31	1126
1845.31	1148
1846.32	1146
1847.32	1142
1848.33	1158
1849.33	1164
1850.33	1152
1851.34	1138
1852.34	1116
1853.34	1168
1854.35	1120
1855.35	1146
1856.35	1164
1857.35	1124
1858.36	1162
1859.36	1136
1860.36	1160
1861.36	1120
1862.36	1118
1863.36	1130
1864.36	1126
1865.37	1160
1866.37	1124
1867.37	1144
1868.37	1152
1869.37	1118
1870.37	1134
1871.37	1112
1872.37	1104
1873.37	1152
1874.37	1110
1875.37	1158
1876.37	1126
1877.37	1132
1878.37	1132
1879.37	1100
1880.36	1170
1881.36	1116
1882.36	1114
1883.36	1130
1884.36	1120
1885.36	1136
1886.35	1088
1887.35	1134
1888.35	1116
1889.35	1114
1890.34	1132
1891.34	1148
1892.34	1128
1893.34	1140
1894.33	1084
1895.33	1096
1896.33	1090
1897.32	1134
1898.32	1138
1899.31	1100
1900.31	1066
1901.3	1144
1902.3	1100
1903.3	1098
1904.29	1134
1905.29	1090
1906.28	1154
1907.27	1074
1908.27	1144
1909.26	1138
1910.26	1094
1911.25	1112
1912.25	1120
1913.24	1136
1914.23	1074
1915.23	1128
1916.22	1090
1917.21	1124
1918.21	1084
1919.2	1102
1920.19	1086
1921.18	1102
1922.18	1096
1923.17	1080
1924.16	1122
1925.15	1138
1926.14	1082
1927.14	1124
1928.13	1112
1929.12	1086
1930.11	1102
1931.1	1136
1932.09	1098
1933.08	1066
1934.07	1104
1935.06	1084
1936.05	1072
1937.04	1066
1938.03	1100
1939.02	1124
1940.01	1126
1941	1110
1941.99	1080
1942.98	1110
1943.97	1112
1944.96	1090
1945.95	1108
1946.94	1090
1947.92	1088
1948.91	1096
1949.9	1088
1950.89	1068
1951.88	1094
1952.86	1088
1953.85	1056
1954.84	1082
1955.83	1090
1956.81	1062
1957.8	1108
1958.79	1048
1959.77	1044
1960.76	1086
1961.75	1112
1962.73	1094
1963.72	1048
1964.7	1056
1965.69	1068
1966.68	1076
1967.66	1048
1968.65	1090
1969.63	1052
1970.62	1060
1971.6	1076
1972.59	1044
1973.57	1060
1974.55	1080
1975.54	1086
1976.52	1070
1977.51	1034
1978.49	1070
1979.47	1054
1980.46	1088
1981.44	1082
1982.42	1062
1983.41	1038
1984.39	1052
1985.37	1036
1986.35	1106
1987.34	1072
1988.32	1056
1989.3	1040
1990.28	1022
1991.27	1066
1992.25	1064
1993.23	1100
1994.21	1048
1995.19	1046
1996.17	1062
1997.15	1062
1998.13	1042
1999.11	1016
2000.09	1040
2001.07	1048
2002.05	1108
2003.03	1032
2004.01	1016
2004.99	1030
2005.97	1064
2006.95	1022
2007.93	1040
2008.91	1038
2009.89	1050
2010.87	1054
2011.85	1054
2012.82	1012
2013.8	1084
2014.78	1036
2015.76	1026
2016.74	1032
2017.72	1048
2018.69	1074
2019.67	1044
2020.65	1026
2021.62	1016
2022.6	1044
2023.58	1012
2024.55	1062
2025.53	1040
2026.51	1018
2027.48	1062
2028.46	1078
2029.44	1048
2030.41	998
2031.39	1034
2032.36	1004
2033.34	1046
2034.31	1004
2035.29	1032
2036.26	1024
2037.24	996
2038.21	1056
2039.19	1024
2040.16	1026
2041.14	1050
2042.11	1028
2043.08	1070
2044.06	1012
2045.03	1030
2046	1034
2046.98	1046
2047.95	1040
2048.92	1020
2049.9	1020
2050.87	1006
2051.84	1056
2052.81	1004
2053.79	1076
2054.76	1014
2055.73	1008
2056.7	1008
2057.67	1030
2058.64	962
2059.61	1008
2060.59	1014
2061.56	1014
2062.53	1004
2063.5	1018
2064.47	962
2065.44	986
2066.41	1052
2067.38	1048
2068.35	1014
2069.32	1000
2070.29	1032
2071.26	992
2072.23	1044
2073.2	972
2074.17	980
2075.14	1014
2076.1	988
2077.07	958
2078.04	1010
2079.01	1010
2079.98	1002
2080.95	998
2081.91	1004
2082.88	978
2083.85	964
2084.82	996
2085.78	972
2086.75	982
2087.72	982
2088.68	998
2089.65	1012
2090.62	980
2091.58	996
2092.55	986
2093.52	994
2094.48	976
2095.45	976
2096.41	972
2097.38	922
2098.35	984
2099.31	954
2100.28	964
2101.24	1010
2102.21	982
2103.17	944
2104.14	970
2105.1	978
2106.06	950
2107.03	974
2107.99	1000
2108.96	998
2109.92	976
2110.88	960
2111.85	964
2112.81	990
2113.77	990
2114.73	1004
2115.7	970
2116.66	948
2117.62	996
2118.58	958
2119.55	964
2120.51	972
2121.47	966
2122.43	940
2123.39	968
2124.36	976
2125.32	958
2126.28	984
2127.24	980
2128.2	956
2129.16	970
2130.12	940
2131.08	990
2132.04	972
2133	970
2133.96	950
2134.92	968
2135.88	942
2136.84	910
2137.8	952
2138.76	970
2139.72	950
2140.68	934
2141.64	968
2142.59	928
2143.55	974
2144.51	922
2145.47	968
2146.43	918
2147.39	924
2148.34	944
2149.3	930
2150.26	920
2151.22	928
2152.17	952
2153.13	966
2154.09	934
2155.04	946
2156	938
2156.96	898
2157.91	920
2158.87	950
2159.82	916
2160.78	930
2161.74	926
2162.69	932
2163.65	936
2164.6	918
2165.56	898
2166.51	928
2167.47	930
2168.42	936
2169.38	920
2170.33	934
2171.29	908
2172.24	890
2173.19	910
2174.15	926
2175.1	920
2176.05	892
2177.01	958
2177.96	970
2178.91	956
2179.87	904
2180.82	864
2181.77	926
2182.73	874
2183.68	882
2184.63	896
2185.58	910
2186.53	874
2187.49	872
2188.44	922
2189.39	930
2190.34	950
2191.29	924
2192.24	878
2193.19	914
2194.14	934
2195.09	946
2196.05	900
2197	886
2197.95	880
2198.9	906
2199.85	902
2200.8	894
2201.75	900
2202.7	916
2203.64	884
2204.59	894
2205.54	892
2206.49	880
2207.44	904
2208.39	872
2209.34	880
2210.29	888
2211.23	896
2212.18	896
2213.13	876
2214.08	916
2215.03	886
2215.97	928
2216.92	886
2217.87	888
2218.81	866
2219.76	893.832
2220.71	913.035
2221.66	853.626
2222.6	875.155
2223.55	884.045
2224.49	890.966
2225.44	860.856
2226.39	886.268
2227.33	881.196
2228.28	884.865
2229.22	892.443
2230.17	871.038
2231.11	840.211
2232.06	866.87
2233	894.03
2233.95	845.56
2234.89	858.345
2235.84	874.355
2236.78	882.535
2237.73	853.419
2238.67	866.537
2239.61	860.215
2240.56	868.86
2241.5	881.176
2242.45	856.876
2243.39	855.831
2244.33	855.268
2245.28	851.901
2246.22	872.963
2247.16	888.324
2248.1	831.681
2249.05	848.358
2249.99	869.129
2250.93	849.642
2251.87	861.193
2252.81	850.43
2253.76	850.375
2254.7	850.375
2255.64	853.503
2256.58	882.399
2257.52	814.394
2258.46	836.935
2259.4	881.705
2260.34	836.619
2261.28	830.019
2262.23	850.268
2263.17	829.665
2264.11	840.605
2265.05	852.052
2265.99	847.989
2266.93	831
2267.87	829.516
2268.8	830.357
2269.74	838.146
2270.68	850.455
2271.62	843.762
2272.56	847.726
2273.5	830.193
2274.44	841.458
2275.38	831.04
2276.32	836.307
2277.25	847.679
2278.19	811.85
2279.13	825.554
2280.07	819.497
2281.01	820.246
2281.94	825.035
2282.88	813.463
2283.82	803.841
2284.76	822.531
2285.69	848.365
2286.63	791.398
2287.57	834.625
2288.5	835.962
2289.44	833.872
2290.37	782.688
2291.31	807.505
2292.25	846.963
2293.18	826.11
2294.12	808.973
2295.05	798.27
2295.99	821.18
2296.92	811.686
2297.86	808.998
2298.79	811.302
2299.73	818.289
2300.66	798.218
2301.6	813.326
2302.53	829.137
2303.47	829.641
2304.4	824.814
2305.34	830.098
2306.27	820.109
2307.2	822.953
2308.14	817.24
2309.07	802.395
2310	796.687
2310.94	788.863
2311.87	822.014
2312.8	810.87
2313.74	794.752
2313.98	792
2314.92	792
2315.86	824
2316.79	806
2317.73	788
2318.67	806
2319.6	806
2320.54	788
2321.48	808
2322.41	776
2323.35	820
2324.29	776
2325.22	772
2326.16	788
2327.09	792
2328.03	776
2328.96	780
2329.9	784
2330.83	806
2331.77	776
2332.7	786
2333.64	806
2334.57	784
2335.51	806
2336.44	816
2337.38	764
2338.31	792
2339.24	768
2340.18	798
2341.11	760
2342.04	810
2342.98	768
2343.91	780
2344.84	774
2345.78	784
2346.71	774
2347.64	780
2348.57	778
2349.51	782
2350.44	786
2351.37	814
2352.3	788
2353.24	782
2354.17	776
2355.1	788
2356.03	762
2356.96	812
2357.89	812
2358.82	772
2359.75	772
2360.68	772
2361.62	792
2362.55	778
2363.48	774
2364.41	804
2365.34	812
2366.27	758
2367.2	788
2368.13	784
2369.05	762
2369.98	770
2370.91	770
2371.84	754
2372.77	788
2373.7	770
2374.63	772
2375.56	774
2376.49	784
2377.41	762
2378.34	738
2379.27	788
2380.2	724
2381.12	782
2382.05	782
2382.98	778
2383.91	748
2384.83	760
2385.76	734
2386.69	796
2387.61	766
2388.54	786
2389.47	772
2390.39	766
2391.32	784
2392.25	770
2393.17	776
2394.1	776
2395.02	772
2395.95	742
2396.87	780
2397.8	780
2398.72	810
2399.65	768
2400.57	788
2401.5	750
2402.42	784
2403.35	788
2404.27	796
2405.2	732
2406.12	768
2407.04	758
2407.97	770
2408.89	766
2409.81	752
2410.74	746
2411.66	736
2412.58	750
2413.51	730
2414.43	750
2415.35	766
2416.27	794
2417.2	748
2418.12	798
2419.04	744
2419.96	744
2420.88	750
2421.81	754
2422.73	744
2423.65	740
2424.57	774
2425.49	744
2426.41	776
2427.33	726
2428.25	748
2429.17	788
2430.1	758
2431.02	754
2431.94	746
2432.85	754
2433.77	752
2434.7	770
2435.61	770
2436.53	744
2437.45	788
2438.37	752
2439.29	780
2440.21	734
2441.13	702
2442.05	768
2442.97	780
2443.88	754
2444.8	722
2445.72	722
2446.64	742
2447.56	764
2448.47	760
2449.39	758
2450.31	750
2451.23	762
2452.14	740
2453.06	724
2453.98	746
2454.89	730
2455.81	760
2456.73	790
2457.64	754
2458.56	764
2459.48	728
2460.39	730
2461.31	750
2462.22	746
2463.14	720
2464.05	724
2464.97	724
2465.88	758
2466.8	760
2467.71	718
2468.63	720
2469.54	742
2470.46	712
2471.37	768
2472.29	742
2473.2	740
2474.11	730
2475.03	722
2475.94	736
2476.86	760
2477.77	724
2478.68	682
2479.59	740
2480.51	752
2481.42	702
2482.33	766
2483.25	740
2484.16	730
2485.07	718
2485.98	708
2486.9	730
2487.81	730
2488.72	732
2489.63	702
2490.54	728
2491.45	724
2492.36	676
2493.28	730
2494.19	724
2495.1	690
2496.01	716
2496.92	706
2497.83	720
2498.74	698
2499.65	746
2500.56	702
2501.47	696
2502.38	708
2503.29	700
2504.2	718
2505.11	712
2506.02	692
2506.93	688
2507.83	744
2508.74	724
2509.65	706
2510.56	734
2511.47	704
2512.38	696
2513.29	714
2514.19	680
2515.1	714
2516.01	688
2516.92	728
2517.82	700
2518.73	700
2519.64	720
2520.55	726
2521.45	716
2522.36	686
2523.27	688
2524.17	704
2525.08	700
2525.99	688
2526.89	680
2527.8	744
2528.7	710
2529.61	700
2530.51	714
2531.42	700
2532.33	690
2533.23	694
2534.14	702
2535.04	682
2535.95	674
2536.85	688
2537.75	716
2538.66	672
2539.56	682
2540.47	668
2541.37	706
2542.28	696
2543.18	702
2544.08	676
2544.99	706
2545.89	698
2546.79	686
2547.7	708
2548.6	688
2549.5	678
2550.4	718
2551.31	678
2552.21	688
2553.11	712
2554.01	702
2554.92	678
2555.82	672
2556.72	688
2557.62	702
2558.52	702
2559.42	682
2560.32	654
2561.23	714
2562.13	702
2563.03	668
2563.93	708
2564.83	660
2565.73	666
2566.63	658
2567.53	664
2568.43	674
2569.33	676
2570.23	712
2571.13	658
2572.03	674
2572.93	668
2573.83	700
2574.73	678
2575.63	686
2576.52	654
2577.42	664
2578.32	672
2579.22	642
2580.12	712
2581.02	652
2581.91	674
2582.81	656
2583.71	702
2584.61	686
2585.51	696
2586.4	672
2587.3	658
2588.2	664
2589.09	684
2589.99	682
2590.89	672
2591.78	664
2592.68	652
2593.58	668
2594.47	662
2595.37	660
2596.26	668
2597.16	630
2598.06	702
2598.95	658
2599.85	658
2600.74	658
2601.64	664
2602.53	652
2603.43	674
2604.32	656
2605.22	664
2606.11	636
2607.01	676
2607.9	644
2608.79	664
2609.69	662
2610.58	676
2611.48	650
2612.37	618
2613.26	646
2614.16	682
2615.05	642
2615.94	694
2616.84	670
2617.73	664
2618.62	678
2619.51	632
2620.41	652
2621.3	648
2622.19	646
2623.08	644
2623.97	636
2624.87	666
2625.76	628
2626.65	624
2627.54	674
2628.43	634
2629.32	648
2630.21	658
2631.1	680
2631.99	668
2632.89	684
2633.78	634
2634.67	644
2635.56	672
2636.45	646
2637.34	648
2638.23	596
2639.12	612
2640.01	636
2640.9	634
2641.78	654
2642.67	630
2643.56	632
2644.45	628
2645.34	644
2646.23	612
2647.12	658
2648.01	630
2648.89	620
2649.78	618
2650.67	620
2651.56	650
2652.45	636
2653.33	624
2654.22	600
2655.11	642
2656	632
2656.88	640
2657.77	614
2658.66	604
2659.54	626
2660.43	616
2661.32	660
2662.2	618
2663.09	604
2663.97	628
2664.86	630
2665.75	644
2666.63	662
2667.52	620
2668.4	602
2669.29	652
2670.17	626
2671.06	630
2671.94	624
2672.83	628
2673.71	612
2674.6	598
2675.48	622
2676.37	642
2677.25	594
2678.13	634
2679.02	616
2679.9	600
2680.78	622
2681.67	630
2682.55	622
2683.43	628
2684.32	606
2685.2	610
2686.08	646
2686.97	600
2687.85	628
2688.73	638
2689.61	632
2690.5	610
2691.38	618
2692.26	616
2693.14	628
2694.02	618
2694.9	608
2695.79	604
2696.67	606
2697.55	596
2698.43	612
2699.31	628
2700.19	600
2701.07	610
2701.95	592
2702.83	608
2703.71	606
2704.59	594
2705.47	622
2706.35	604
2707.23	626
2708.11	612
2708.99	596
2709.87	600
2710.75	586
2711.63	596
2712.51	586
2713.39	586
2714.27	614
2715.14	600
2716.02	606
2716.9	620
2717.78	620
2718.66	584
2719.54	600
2720.41	600
2721.29	572
2722.17	610
2723.05	594
2723.92	582
2724.8	588
2725.68	594
2726.55	584
2727.43	578
2728.31	612
2729.18	582
2730.06	608
2730.94	578
2731.81	564
2732.69	600
2733.57	598
2734.44	594
2735.32	584
2736.19	600
2737.07	576
2737.94	570
2738.82	604
2739.69	584
2740.57	590
2741.44	566
2742.32	588
2743.19	606
2744.07	580
2744.94	594
2745.81	568
2746.69	586
2747.56	602
2748.44	572
2749.31	580
2750.18	568
2751.06	564
2751.93	584
2752.8	560
2753.68	584
2754.55	582
2755.42	576
2756.29	606
2757.17	572
2758.04	580
2758.91	580
2759.78	558
2760.65	586
2761.53	580
2762.4	568
2763.27	596
2764.14	568
2765.01	578
2765.88	580
2766.76	562
2767.63	570
2768.5	584
2769.37	578
2770.24	570
2771.11	584
2771.98	582
2772.85	578
2773.72	574
2774.59	580
2775.46	566
2776.33	574
2777.2	568
2778.07	582
2778.94	574
2779.81	540
2780.67	556
2781.54	560
2782.41	566
2783.28	546
2784.15	556
2785.02	564
2785.89	564
2786.75	544
2787.62	568
2788.49	542
2789.36	544
2790.23	564
2791.09	574
2791.96	582
2792.83	572
2793.7	558
2794.56	566
2795.43	544
2796.3	560
2797.16	550
2798.03	562
2798.9	558
2799.76	554
2800.63	556
2801.49	568
2802.36	556
2803.23	532
2804.09	554
2804.96	552
2805.82	572
2806.69	574
2807.55	558
2808.42	552
2809.28	540
2810.15	548
2811.01	544
2811.88	558
2812.74	540
2813.61	544
2814.47	558
2815.33	544
2816.2	542
2817.06	568
2817.93	554
2818.79	570
2819.65	566
2820.52	576
2821.38	548
2822.24	570
2823.11	536
2823.97	508
2824.83	538
2825.69	530
2826.55	530
2827.42	546
2828.28	542
2829.14	518
2830	532
2830.87	520
2831.73	524
2832.59	518
2833.45	528
2834.31	520
2835.17	536
2836.03	506
2836.89	546
2837.76	504
2838.62	550
2839.48	540
2840.34	538
2841.2	510
2842.06	546
2842.92	552
2843.78	558
2844.64	542
2845.5	516
2846.36	532
2847.22	542
2848.07	544
2848.93	552
2849.79	534
2850.65	518
2851.51	500
2852.37	516
2853.23	530
2854.09	510
2854.95	512
2855.8	520
2856.66	512
2857.52	498
2858.38	520
2859.24	532
2860.09	550
2860.95	516
2861.81	508
2862.66	510
2863.52	492
2864.38	536
2865.24	526
2866.09	538
2866.95	524
2867.81	518
2868.66	524
2869.52	526
2870.37	518
2871.23	510
2872.09	524
2872.94	514
2873.8	526
2874.65	488
2875.51	526
2876.36	516
2877.22	504
2878.07	504
2878.93	500
2879.78	506
2880.64	494
2881.49	480
2882.35	494
2883.2	504
2884.05	496
2884.91	490
2885.76	502
2886.62	504
2887.47	508
2888.32	478
2889.18	484
2890.03	518
2890.88	516
2891.74	488
2892.59	494
2893.44	504
2894.29	490
2895.15	518
2896	476
2896.85	504
2897.7	486
2898.55	504
2899.41	522
2900.26	510
2901.11	496
2901.96	462
2902.81	484
2903.66	520
2904.52	488
2905.37	506
2906.22	472
2907.07	480
2907.92	496
2908.77	468
2909.62	474
2910.47	498
2911.32	486
2912.17	484
2913.02	492
2913.87	492
2914.72	490
2915.57	480
2916.42	486
2917.27	516
2918.12	498
2918.97	482
2919.82	506
2920.66	476
2921.51	474
2922.36	486
2923.21	496
2924.06	496
2924.91	490
2925.75	456
2926.6	508
2927.45	474
2928.3	472
2929.15	512
2929.99	474
2930.84	476
2931.69	476
2932.54	476
2933.38	468
2934.23	492
2935.08	494
2935.92	502
2936.77	466
2937.62	490
2938.46	470
2939.31	478
2940.15	498
2941	490
2941.85	484
2942.69	468
2943.54	484
2944.38	470
2945.23	478
2946.07	448
2946.92	472
2947.76	464
2948.61	490
2949.45	488
2950.3	482
2951.14	468
2951.99	500
2952.83	486
2953.67	470
2954.52	498
2955.36	482
2956.21	476
2957.05	480
2957.89	442
2958.74	478
2959.58	492
2960.42	468
2961.27	422
2962.11	464
2962.95	456
2963.79	440
2964.64	472
2965.48	462
2966.32	450
2967.16	456
2968.01	488
2968.85	478
2969.69	452
2970.53	476
2971.37	464
2972.21	480
2973.05	454
2973.9	452
2974.74	438
2975.58	462
2976.42	446
2977.26	464
2978.1	476
2978.94	468
2979.78	464
2980.62	458
2981.46	464
2982.3	466
2983.14	456
2983.98	468
2984.82	462
2985.66	478
2986.5	470
2987.34	452
2988.18	444
2989.02	456
2989.86	470
2990.69	444
2991.53	464
2992.37	436
2993.21	464
2994.05	446
2994.89	452
2995.72	458
2996.56	452
2997.4	446
2998.24	442
2999.08	450
2999.91	426
3000.75	442
3001.59	436
3002.43	436
3003.26	438
3004.1	418
3004.94	450
3005.77	438
3006.61	448
3007.45	466
3008.28	460
3009.12	456
3009.95	464
3010.79	432
3011.63	432
3012.46	440
3013.3	460
3014.13	436
3014.97	434
3015.8	418
3016.64	450
3017.47	450
3018.31	428
3019.14	414
3019.98	434
3020.81	470
3021.65	420
3022.48	434
3023.31	436
3024.15	420
3024.98	448
3025.82	434
3026.65	432
3027.48	426
3028.32	442
3029.15	436
3029.98	422
3030.82	416
3031.65	458
3032.48	406
3033.31	430
3034.15	418
3034.98	438
3035.81	434
3036.64	424
3037.48	416
3038.31	418
3039.14	420
3039.97	422
3040.8	421.827
3041.63	421.867
3042.47	413.326
3043.3	427.5
3044.13	403.205
3044.96	406.895
3045.79	428.954
3046.62	423.561
3047.45	416.643
3048.28	418.134
3049.11	404.887
3049.94	408.156
3050.77	417.348
3051.6	420.219
3052.43	433.915
3053.26	419.482
3054.09	424.768
3054.92	407.531
3055.75	401.949
3056.58	426.333
3057.41	413.904
3058.24	422.533
3059.07	395.157
3059.9	404.748
3060.73	393.794
3061.55	392.53
3062.38	418.745
3063.21	403.429
3064.04	394.612
3064.87	405.057
3065.7	405.32
3066.52	417.366
3067.35	394.161
3068.18	421.488
3069.01	393.923
3069.83	424.525
3070.66	387.905
3071.49	409.393
3072.32	398.185
3073.14	413.84
3073.97	380.548
3074.8	405.081
3075.62	380.427
3076.45	395.879
3077.28	387.084
3078.1	403.205
3078.93	386.127
3079.75	383.603
3080.58	381.167
3081.41	376.888
3082.23	383.479
3083.06	396.435
3083.88	379.765
3084.71	372.27
3085.53	384.956
3086.36	397.234
3087.18	403.838
3088.01	401.699
3088.83	397.045
3089.66	401.154
3090.48	386.82
3091.31	381.911
3092.13	375.78
3092.96	377.129
3093.78	381.516
3094.6	365.417
3095.43	372.742
3096.25	365.595
3097.07	395.35
3097.9	379.619
3098.72	379.666
3099.54	374.862
3100.37	363.701
3101.19	371.747
3102.01	365.298
3102.84	376.557
3103.66	386.838
3104.48	375.916
3105.3	362.742
3106.13	364.01
3106.95	364.584
3107.77	359.245
3108.59	352.388
3109.41	353.854
3110.24	364.359
3111.06	376.041
3111.88	377.15
3112.7	368.089
3113.52	355.749
3114.34	344.868
3115.16	347.305
3115.98	360.227
3116.81	354.412
3117.63	360.068
3118.45	358.228
3119.27	353.728
3120.09	354.459
3120.91	352.147
3121.73	361.057
3122.55	363.811
3123.37	356.639
3123.73	352
3124.56	336
3125.38	360
3126.21	358
3127.03	364
3127.85	356
3128.68	350
3129.5	358
3130.32	354
3131.15	348
3131.97	344
3132.79	366
3133.62	322
3134.44	332
3135.26	342
3136.08	340
3136.91	330
3137.73	358
3138.55	372
3139.37	374
3140.19	328
3141.02	332
3141.84	334
3142.66	370
3143.48	344
3144.3	358
3145.13	346
3145.95	354
3146.77	330
3147.59	350
3148.41	344
3149.23	320
3150.05	336
3150.87	340
3151.69	338
3152.51	336
3153.33	338
3154.15	344
3154.97	320
3155.79	358
3156.61	322
3157.43	334
3158.25	348
3159.07	332
3159.89	340
3160.71	334
3161.53	348
3162.35	358
3163.17	332
3163.98	334
3164.8	338
3165.62	332
3166.44	332
3167.26	290
3168.08	346
3168.89	312
3169.71	320
3170.53	350
3171.35	336
3172.17	314
3172.98	338
3173.8	360
3174.62	336
3175.43	344
3176.25	348
3177.07	340
3177.89	326
3178.7	316
3179.52	334
3180.33	336
3181.15	332
3181.97	336
3182.78	328
3183.6	350
3184.41	320
3185.23	320
3186.05	332
3186.86	322
3187.68	332
3188.49	314
3189.31	320
3190.12	336
3190.94	342
3191.75	300
3192.57	340
3193.38	322
3194.2	308
3195.01	320
3195.82	344
3196.64	334
3197.45	320
3198.27	346
3199.08	360
3199.89	332
3200.71	348
3201.52	310
3202.33	342
3203.15	324
3203.96	312
3204.77	312
3205.59	308
3206.4	332
3207.21	356
3208.02	348
3208.84	340
3209.65	350
3210.46	320
3211.27	318
3212.09	316
3212.9	312
3213.71	314
3214.52	328
3215.33	320
3216.14	318
3216.96	336
3217.77	300
3218.58	326
3219.39	314
3220.2	324
3221.01	320
3221.82	320
3222.63	306
3223.44	330
3224.25	290
3225.06	330
3225.87	306
3226.68	308
3227.49	316
3228.3	326
3229.11	324
3229.92	328
3230.73	318
3231.54	314
3232.35	330
3233.16	326
3233.97	328
3234.77	336
3235.58	324
3236.39	304
3237.2	300
3238.01	358
3238.82	320
3239.63	322
3240.43	328
3241.24	330
3242.05	326
3242.86	338
3243.66	328
3244.47	340
3245.28	312
3246.09	326
3246.89	324
3247.7	306
3248.51	296
3249.31	284
3250.12	310
3250.93	308
3251.73	314
3252.54	318
3253.35	310
3254.15	326
3254.96	304
3255.76	308
3256.57	330
3257.38	314
3258.18	326
3258.99	316
3259.79	316
3260.6	330
3261.4	320
3262.21	296
3263.01	294
3263.82	280
3264.62	312
3265.43	318
3266.23	294
3267.04	288
3267.84	304
3268.64	296
3269.45	326
3270.25	312
3271.06	308
3271.86	294
3272.66	294
3273.47	308
3274.27	310
3275.07	294
3275.88	310
3276.68	296
3277.48	296
3278.28	310
3279.09	288
3279.89	290
3280.69	304
3281.49	292
3282.3	296
3283.1	292
3283.9	294
3284.7	312
3285.5	308
3286.31	318
3287.11	288
3287.91	286
3288.71	292
3289.51	282
3290.31	296
3291.11	294
3291.91	296
3292.71	276
3293.51	294
3294.31	292
3295.12	300
3295.92	320
3296.72	302
3297.52	276
3298.32	284
3299.12	282
3299.92	306
3300.72	290
3301.51	302
3302.31	302
3303.11	286
3303.91	280
3304.71	298
3305.51	278
3306.31	288
3307.11	294
3307.91	296
3308.71	298
3309.5	286
3310.3	270
3311.1	294
3311.9	286
3312.7	286
3313.49	294
3314.29	274
3315.09	264
3315.89	308
3316.69	270
3317.48	278
3318.28	316
3319.08	298
3319.87	272
3320.67	278
3321.47	282
3322.26	274
3323.06	276
3323.86	294
3324.65	280
3325.45	304
3326.25	288
3327.04	286
3327.84	286
3328.63	278
3329.43	292
3330.22	280
3331.02	268
3331.81	290
3332.61	280
3333.4	288
3334.2	308
3334.99	282
3335.79	286
3336.58	276
3337.38	290
3338.17	302
3338.97	288
3339.76	294
3340.56	292
3341.35	266
3342.14	268
3342.94	278
3343.73	300
3344.52	270
3345.32	290
3346.11	286
3346.9	282
3347.7	282
3348.49	260
3349.28	276
3350.08	284
3350.87	250
3351.66	276
3352.45	282
3353.25	278
3354.04	278
3354.83	284
3355.62	272
3356.41	274
3357.21	290
3358	270
3358.79	286
3359.58	286
3360.37	272
3361.16	270
3361.95	288
3362.75	260
3363.54	264
3364.33	270
3365.12	262
3365.91	274
3366.7	284
3367.49	274
3368.28	282
3369.07	262
3369.86	278
3370.65	280
3371.44	250
3372.23	270
3373.02	288
3373.81	280
3374.6	272
3375.39	294
3376.18	276
3376.97	268
3377.75	262
3378.54	292
3379.33	258
3380.12	282
3380.91	284
3381.7	278
3382.49	274
3383.27	268
3384.06	276
3384.85	238
3385.64	234
3386.43	256
3387.21	274
3388	278
3388.79	258
3389.58	278
3390.36	280
3391.15	270
3391.94	270
3392.72	248
3393.51	272
3394.3	270
3395.08	270
3395.87	244
3396.66	270
3397.44	266
3398.23	264
3399.01	282
3399.8	288
3400.59	272
3401.37	272
3402.16	282
3402.94	270
3403.73	252
3404.51	260
3405.3	252
3406.08	282
3406.87	274
3407.65	258
3408.44	262
3409.22	244
3410.01	260
3410.79	238
3411.58	252
3412.36	256
3413.14	270
3413.93	262
3414.71	256
3415.5	256
3416.28	250
3417.06	256
3417.85	252
3418.63	266
3419.41	250
3420.2	276
3420.98	282
3421.76	256
3422.54	260
3423.33	244
3424.11	258
3424.89	258
3425.67	256
3426.46	256
3427.24	244
3428.02	248
3428.8	270
3429.58	254
3430.36	258
3431.15	254
3431.93	266
3432.71	260
3433.49	266
3434.27	258
3435.05	254
3435.83	236
3436.61	246
3437.4	274
3438.18	238
3438.96	246
3439.74	246
3440.52	256
3441.3	260
3442.08	244
3442.86	250
3443.64	250
3444.42	258
3445.2	256
3445.98	256
3446.76	246
3447.53	250
3448.31	250
3449.09	244
3449.87	256
3450.65	264
3451.43	242
3452.21	272
3452.99	252
3453.77	240
3454.54	236
3455.32	242
3456.1	274
3456.88	250
3457.66	244
3458.43	246
3459.21	232
3459.99	242
3460.77	238
3461.54	252
3462.32	254
3463.1	230
3463.88	238
3464.65	248
3465.43	250
3466.21	250
3466.98	236
3467.76	260
3468.53	274
3469.31	248
3470.09	244
3470.86	234
3471.64	238
3472.42	248
3473.19	240
3473.97	248
3474.74	254
3475.52	230
3476.29	240
3477.07	258
3477.84	266
3478.62	252
3479.39	228
3480.17	246
3480.94	250
3481.72	262
3482.49	252
3483.27	242
3484.04	234
3484.82	226
3485.59	236
3486.36	244
3487.14	244
3487.91	244
3488.68	250
3489.46	244
3490.23	242
3491	246
3491.78	258
3492.55	264
3493.32	250
3494.1	230
3494.87	218
3495.64	228
3496.42	230
3497.19	240
3497.96	252
3498.73	256
3499.5	224
3500.28	244
3501.05	236
3501.82	222
3502.59	240
3503.36	268
3504.14	228
3504.91	226
3505.68	232
3506.45	246
3507.22	266
3507.99	242
3508.76	226
3509.53	226
3510.3	238
3511.07	240
3511.84	248
3512.61	254
3513.38	242
3514.16	234
3514.92	234
3515.7	238
3516.46	240
3517.23	232
3518	230
3518.77	236
3519.54	228
3520.31	232
3521.08	248
3521.85	240
3522.62	264
3523.39	240
3524.16	238
3524.93	232
3525.69	230
3526.46	238
3527.23	226
3528	220
3528.77	252
3529.53	252
3530.3	256
3531.07	226
3531.84	236
3532.61	240
3533.37	240
3534.14	240
3534.91	218
3535.68	238
3536.44	222
3537.21	224
3537.98	250
3538.74	238
3539.51	234
3540.28	224
3541.04	254
3541.81	258
3542.58	236
3543.34	236
3544.11	240
3544.87	224
3545.64	232
3546.4	222
3547.17	222
3547.94	248
3548.7	210
3549.47	236
3550.23	242
3551	226
3551.76	232
3552.53	228
3553.29	224
3554.06	220
3554.82	232
3555.59	234
3556.35	240
3557.11	218
3557.88	234
3558.64	228
3559.41	222
3560.17	216
3560.93	222
3561.7	222
3562.46	230
3563.22	212
3563.99	206
3564.75	212
3565.51	234
3566.28	214
3567.04	220
3567.8	218
3568.56	228
3569.33	222
3570.09	228
3570.85	240
3571.61	216
3572.38	212
3573.14	216
3573.9	224
3574.66	220
3575.42	220
3576.19	204
3576.95	226
3577.71	238
3578.47	212
3579.23	212
3579.99	210
3580.75	218
3581.51	208
3582.28	238
3583.04	218
3583.8	230
3584.56	220
3585.32	232
3586.08	218
3586.84	210
3587.6	220
3588.36	212
3589.12	224
3589.88	224
3590.64	232
3591.4	214
3592.16	206
3592.92	214
3593.67	220
3594.43	226
3595.19	206
3595.95	222
3596.71	246
3597.47	226
3598.23	218
3598.99	208
3599.75	206
3600.5	220
3601.26	214
3602.02	216
3602.78	196
3603.54	220
3604.29	224
3605.05	226
3605.81	234
3606.57	218
3607.32	234
3608.08	208
3608.84	234
3609.59	210
3610.35	192
3611.11	212
3611.87	222
3612.62	206
3613.38	220
3614.13	220
3614.89	220
3615.65	228
3616.4	224
3617.16	230
3617.92	216
3618.67	220
3619.43	222
3620.18	204
3620.94	212
3621.69	210
3622.45	200
3623.2	232
3623.96	214
3624.71	202
3625.47	206
3626.22	208
3626.98	208
3627.73	204
3628.49	212
3629.24	224
3630	208
3630.75	212
3631.5	212
3632.26	204
3633.01	224
3633.77	210
3634.52	176
3635.27	208
3636.03	210
3636.78	212
3637.53	208
3638.29	210
3639.04	202
3639.79	210
3640.55	202
3641.3	208
3642.05	222
3642.8	206
3643.56	208
3644.31	200
3645.06	222
3645.81	214
3646.56	204
3647.32	194
3648.07	190
3648.82	188
3649.57	200
3650.32	212
3651.07	186
3651.83	212
3652.58	200
3653.33	202
3654.08	202
3654.83	186
3655.58	210
3656.33	212
3657.08	218
3657.83	200
3658.58	202
3659.33	204
3660.08	216
3660.83	194
3661.58	198
3662.33	202
3663.08	204
3663.83	186
3664.58	200
3665.33	194
3666.08	218
3666.83	200
3667.58	196
3668.33	202
3669.08	182
3669.83	188
3670.57	218
3671.32	198
3672.07	196
3672.82	172
3673.57	214
3674.32	218
3675.07	198
3675.81	208
3676.56	206
3677.31	204
3678.06	206
3678.8	208
3679.55	198
3680.3	210
3681.05	188
3681.79	194
3682.54	214
3683.29	202
3684.04	196
3684.78	216
3685.53	196
3686.28	202
3687.02	174
3687.77	184
3688.51	210
3689.26	212
3690.01	202
3690.75	204
3691.5	210
3692.24	188
3692.99	216
3693.74	204
3694.48	212
3695.23	190
3695.97	202
3696.72	192
3697.46	200
3698.21	190
3698.95	212
3699.7	188
3700.44	196
3701.19	190
3701.93	206
3702.68	190
3703.42	204
3704.16	182
3704.91	190
3705.65	218
3706.4	188
3707.14	200
3707.88	186
3708.63	208
3709.37	190
3710.11	194
3710.86	186
3711.6	186
3712.34	202
3713.09	208
3713.83	176
3714.57	192
3715.31	192
3716.06	192
3716.8	188
3717.54	178
3718.28	180
3719.03	180
3719.77	192
3720.51	200
3721.25	208
3721.99	178
3722.74	176
3723.48	188
3724.22	192
3724.96	198
3725.7	198
3726.44	194
3727.18	190
3727.92	190
3728.67	192
3729.41	202
3730.15	194
3730.89	196
3731.63	184
3732.37	194
3733.11	194
3733.85	178
3734.59	188
3735.33	190
3736.07	188
3736.81	186
3737.55	194
3738.29	190
3739.03	182
3739.77	164
3740.51	200
3741.24	178
3741.98	190
3742.72	186
3743.46	204
3744.2	190
3744.94	192
3745.68	196
3746.42	196
3747.15	198
3747.89	192
3748.63	202
3749.37	200
3750.11	180
3750.84	186
3751.58	178
3752.32	190
3753.06	184
3753.79	204
3754.53	182
3755.27	194
3756.01	174
3756.74	188
3757.48	184
3758.22	192
3758.95	190
3759.69	202
3760.43	184
3761.16	192
3761.9	186
3762.64	190
3763.37	199.903
3764.11	189.854
3764.84	182.25
3765.58	201.328
3766.32	197.458
3767.05	181.998
3767.79	181.59
3768.52	179.671
3769.26	201.811
3769.99	180.551
3770.73	173.369
3771.46	181.136
3772.2	193.812
3772.93	180.547
3773.67	187.093
3774.4	199.438
3775.14	190.344
3775.87	174.571
3776.61	182.604
3777.34	184.976
3778.07	176.665
3778.81	185.386
3779.54	173.629
3780.28	195.344
3781.01	174.741
3781.74	187.206
3782.48	172.386
3783.21	185.43
3783.94	173.711
3784.68	189.319
3785.41	177.32
3786.14	189.957
3786.88	182.585
3787.61	182.061
3788.34	190.68
3789.07	186.318
3789.81	174
3790.54	184.145
3791.27	182.174
3792	186.253
3792.74	180.255
3793.47	177.695
3794.2	188.325
3794.93	187.031
3795.66	181.128
3796.4	182.468
3797.13	176.602
3797.86	184.146
3798.59	174.25
3799.32	193.505
3800.05	176.449
3800.78	184.983
3801.52	188.461
3802.25	176.285
3802.98	184.824
3803.71	178.51
3804.44	178.972
3805.17	179.461
3805.9	190.836
3806.63	174.353
3807.36	174.399
3808.09	181.138
3808.82	172.458
3809.55	181.366
3810.28	189.324
3811.01	178.152
3811.74	170.885
3812.47	177.968
3813.2	174.518
3813.93	172.967
3814.66	170.81
3815.38	170.392
3816.11	187.862
3816.84	173.34
3817.57	179.84
3818.3	175.692
3819.03	176.925
3819.76	172.504
3820.49	172.613
3821.21	177.025
3821.94	176.518
3822.67	176.678
3823.4	171.923
3824.13	173.103
3824.85	169.447
3825.58	171.902
3826.31	177.516
3827.04	172.874
3827.77	176.384
3828.49	171.771
3829.22	168.842
3829.95	175.818
3830.67	185.859
3831.4	182.519
3832.13	164.036
3832.85	164.535
3833.58	180.835
3834.31	167.062
3835.03	175.046
3835.76	174.174
3836.49	165.815
3837.21	151.412
3837.94	165.29
3838.52	178
3839.25	174
3839.98	178
3840.71	168
3841.44	164
3842.17	170
3842.9	166
3843.63	168
3844.36	180
3845.09	168
3845.82	166
3846.55	168
3847.28	166
3848	180
3848.73	178
3849.46	140
3850.19	170
3850.92	178
3851.65	164
3852.38	164
3853.1	176
3853.83	158
3854.56	174
3855.29	182
3856.02	176
3856.74	154
3857.47	168
3858.2	190
3858.93	166
3859.65	166
3860.38	164
3861.11	176
3861.84	160
3862.56	160
3863.29	190
3864.02	158
3864.74	154
3865.47	154
3866.2	170
3866.92	180
3867.65	160
3868.38	160
3869.1	146
3869.83	176
3870.55	166
3871.28	162
3872.01	180
3872.73	168
3873.46	164
3874.18	170
3874.91	162
3875.63	170
3876.36	166
3877.08	146
3877.81	150
3878.53	180
3879.26	168
3879.98	178
3880.71	174
3881.43	162
3882.16	158
3882.88	164
3883.6	168
3884.33	176
3885.05	166
3885.78	162
3886.5	152
3887.22	158
3887.95	166
3888.67	170
3889.4	160
3890.12	166
3890.84	154
3891.57	170
3892.29	158
3893.01	174
3893.73	182
3894.46	158
3895.18	156
3895.9	156
3896.63	152
3897.35	164
3898.07	170
3898.79	166
3899.51	150
3900.24	160
3900.96	164
3901.68	158
3902.4	162
3903.12	158
3903.84	174
3904.57	182
3905.29	170
3906.01	154
3906.73	162
3907.45	156
3908.17	164
3908.89	150
3909.61	168
3910.33	164
3911.06	164
3911.78	172
3912.5	142
3913.22	172
3913.94	156
3914.66	152
3915.38	168
3916.1	170
3916.82	170
3917.54	174
3918.26	158
3918.98	164
3919.69	160
3920.41	160
3921.13	172
3921.85	160
3922.57	168
3923.29	154
3924.01	164
3924.73	152
3925.45	150
3926.17	172
3926.88	168
3927.6	160
3928.32	166
3929.04	162
3929.76	158
3930.47	166
3931.19	164
3931.91	156
3932.63	166
3933.35	146
3934.06	162
3934.78	166
3935.5	156
3936.22	160
3936.93	152
3937.65	150
3938.37	170
3939.08	158
3939.8	158
3940.52	164
3941.23	156
3941.95	148
3942.67	158
3943.38	154
3944.1	172
3944.82	150
3945.53	162
3946.25	158
3946.96	168
3947.68	164
3948.4	160
3949.11	152
3949.83	152
3950.54	146
3951.26	160
3951.97	162
3952.69	160
3953.4	162
3954.12	166
3954.83	164
3955.55	168
3956.26	170
3956.98	162
3957.69	162
3958.4	158
3959.12	156
3959.83	162
3960.55	164
3961.26	146
3961.97	160
3962.69	174
3963.4	164
3964.12	152
3964.83	150
3965.54	160
3966.26	170
3966.97	148
3967.68	144
3968.4	162
3969.11	162
3969.82	162
3970.53	148
3971.25	154
3971.96	144
3972.67	164
3973.38	164
3974.1	164
3974.81	146
3975.52	146
3976.23	156
3976.94	160
3977.66	140
3978.37	162
3979.08	154
3979.79	160
3980.5	156
3981.21	142
3981.92	146
3982.64	152
3983.35	140
3984.06	152
3984.77	154
3985.48	152
3986.19	152
3986.9	160
3987.61	150
3988.32	154
3989.03	152
3989.74	136
3990.45	160
3991.16	156
3991.87	144
3992.58	170
3993.29	150
3994	148
3994.71	126
3995.42	164
3996.13	150
3996.84	166
3997.55	136
3998.26	162
3998.97	158
3999.67	140
