#Acq. time (s)=	10
#Accumulations=	1
#Range (cm-¹)=	200...4000
#Windows=	5
#Autofocus=	Off
#AutoExposure=	Off
#Spike filter=	Off
#Delay time (s)=	0
#Binning=	1
#Readout mode=	Signal
#DeNoise=	Off
#ICS correction=	Off
#Dark correction=	Off
#Inst. Process=	Off
#Instrument=	LabRAM HR Evol
#Detector=	Syncerity OE
#Objective=	x100_VIS
#Grating=	600 (500nm)
#ND Filter=	25%
#Laser=	633nm_Edge
#Hole=	100.021
#Range=	Visible
#Project=	Omar
#Sample=	03-07-23
#Site=	1
#Title=	OR
#Remark=	
#Date=	03.07.2023 13:38
#Acquired=	03.07.2023 13:38:08
200.404	2274
201.671	2266
202.938	2298
204.205	2286
205.472	2252
206.737	2336
208.003	2312
209.269	2330
210.535	2314
211.799	2350
213.064	2340
214.33	2304
215.595	2312
216.858	2346
218.122	2328
219.387	2342
220.649	2312
221.913	2342
223.177	2398
224.439	2290
225.703	2362
226.966	2414
228.227	2302
229.49	2374
230.752	2334
232.013	2328
233.275	2336
234.536	2294
235.798	2342
237.059	2386
238.319	2406
239.58	2360
240.839	2428
242.1	2418
243.361	2348
244.619	2384
245.879	2420
247.138	2360
248.398	2416
249.655	2348
250.915	2390
252.172	2392
253.431	2370
254.688	2444
255.947	2338
257.204	2406
258.462	2364
259.718	2442
260.976	2450
262.232	2402
263.487	2394
264.744	2398
266	2360
267.256	2404
268.511	2454
269.767	2456
271.022	2448
272.276	2340
273.532	2392
274.786	2410
276.04	2400
277.295	2430
278.548	2456
279.801	2482
281.055	2394
282.308	2426
283.561	2422
284.814	2458
286.066	2510
287.318	2434
288.572	2476
289.823	2418
291.074	2480
292.327	2448
293.578	2484
294.828	2474
296.079	2472
297.331	2476
298.581	2446
299.831	2544
301.08	2490
302.33	2448
303.581	2510
304.83	2512
306.079	2514
307.327	2500
308.576	2478
309.825	2504
311.073	2526
312.321	2548
313.569	2514
314.816	2564
316.064	2550
317.311	2520
318.558	2536
319.806	2552
321.052	2492
322.299	2540
323.545	2516
324.79	2506
326.036	2516
327.282	2512
328.527	2514
329.772	2580
331.017	2558
332.261	2568
333.506	2578
334.75	2480
335.994	2594
337.238	2594
338.482	2524
339.725	2548
340.968	2556
342.211	2604
343.454	2536
344.697	2600
345.939	2594
347.182	2588
348.424	2546
349.666	2560
350.907	2606
352.149	2570
353.39	2574
354.631	2588
355.87	2676
357.111	2602
358.352	2626
359.592	2616
360.832	2614
362.072	2586
363.311	2702
364.549	2592
365.789	2536
367.028	2648
368.267	2620
369.505	2592
370.742	2602
371.981	2624
373.219	2610
374.457	2640
375.694	2628
376.93	2616
378.168	2616
379.405	2580
380.642	2618
381.877	2628
383.113	2598
384.35	2648
385.584	2604
386.82	2612
388.056	2562
389.291	2604
390.525	2628
391.76	2660
392.995	2660
394.228	2598
395.463	2664
396.696	2660
397.93	2614
399.164	2598
400.396	2716
401.63	2632
402.863	2604
404.095	2706
405.328	2720
406.559	2634
407.791	2698
409.022	2706
410.254	2674
411.486	2656
412.717	2648
413.948	2672
415.178	2706
416.409	2720
417.639	2700
418.87	2710
420.099	2714
421.329	2728
422.558	2806
423.788	2750
425.016	2694
426.244	2834
427.474	2750
428.701	2828
429.93	2812
431.158	2728
432.386	2830
433.613	2822
434.84	2848
436.068	2786
437.294	2814
438.522	2850
439.748	2814
440.974	2832
442.201	2826
443.426	2790
444.651	2858
445.878	2760
447.103	2842
448.327	2810
449.553	2764
450.777	2848
452.001	2898
453.225	2890
454.45	2830
455.674	2820
456.897	2870
458.121	2808
459.344	2780
460.567	2836
461.789	2824
463.012	2846
464.235	2808
465.457	2756
466.679	2870
467.9	2774
469.122	2872
470.344	2810
471.565	2840
472.786	2828
474.006	2810
475.227	2814
476.447	2846
477.668	2848
478.888	2864
480.107	2862
481.327	2864
482.546	2896
483.765	2834
484.984	2900
486.202	2916
487.421	2920
488.639	2864
489.857	2916
491.075	2848
492.292	2882
493.51	2952
494.727	2850
495.944	2896
497.161	2882
498.377	2912
499.594	2910
500.81	2940
502.026	2960
503.242	2964
504.458	2964
505.673	2916
506.888	2886
508.104	2930
509.318	2932
510.533	2968
511.748	2970
512.962	2964
514.176	3006
515.39	2980
516.602	2954
517.816	2942
519.029	2920
520.242	2906
521.455	2916
522.668	2884
523.881	2948
525.092	3000
526.304	2976
527.516	2912
528.728	2964
529.939	2910
531.149	2848
532.361	2914
533.572	2934
534.783	2924
535.992	2934
537.202	2922
538.413	2964
539.623	2934
540.831	2946
542.041	2928
543.25	2916
544.458	2940
545.667	2888
546.876	2966
548.084	2912
549.292	2904
550.501	2934
551.707	2884
552.915	2896
554.123	2950
555.329	2996
556.537	2926
557.743	2954
558.95	2934
560.156	2956
561.362	2918
562.568	2944
563.773	3008
564.979	3016
566.184	2916
567.389	2906
568.595	2962
569.799	2976
571.004	2942
572.207	2968
573.412	2932
574.615	3002
575.82	2974
577.022	2990
578.226	2926
579.429	3020
580.631	2942
581.834	3030
583.036	3004
584.239	2958
585.44	3004
586.643	3068
587.844	3046
589.045	3036
590.247	2990
591.448	3028
592.649	3004
593.849	3050
595.049	3014
596.25	3042
597.45	3002
598.649	3006
599.85	3056
601.049	3046
602.248	2976
603.448	3006
604.646	3058
605.844	2982
607.042	3048
608.241	3096
609.439	3056
610.637	3028
611.834	3028
613.032	3064
614.229	3074
615.426	3112
616.622	3112
617.819	3146
619.016	3086
620.212	3042
621.408	3090
622.603	3120
623.799	3074
624.994	3158
626.19	3118
627.385	3134
628.58	3078
629.774	3050
630.969	3134
632.163	3084
633.356	3138
634.55	3098
635.744	3062
636.938	3156
638.131	3164
639.324	3188
640.517	3164
641.71	3168
642.902	3160
644.094	3144
645.286	3166
646.478	3168
647.67	3082
648.861	3170
650.052	3170
651.243	3164
652.434	3156
653.625	3098
654.815	3128
656.006	3142
657.196	3200
658.384	3138
659.574	3180
660.764	3190
661.953	3196
663.142	3220
664.331	3254
665.52	3124
666.709	3172
667.897	3196
669.084	3120
670.272	3152
671.46	3180
672.648	3226
673.835	3222
675.021	3150
676.208	3114
677.395	3124
678.582	3202
679.768	3284
680.953	3168
682.14	3190
683.326	3180
684.512	3120
685.696	3184
686.881	3176
688.067	3184
689.252	3188
690.435	3192
691.62	3164
692.804	3120
693.987	3196
695.171	3294
696.355	3192
697.538	3168
698.721	3080
699.905	3164
701.087	3214
702.27	3248
703.451	3156
704.634	3238
705.816	3202
706.997	3186
708.179	3142
709.36	3228
710.542	3272
711.722	3206
712.903	3310
714.083	3184
715.264	3188
716.445	3264
717.624	3272
718.805	3252
719.984	3210
721.162	3262
722.342	3254
723.52	3218
724.7	3246
725.878	3276
727.057	3248
728.235	3246
729.414	3210
730.591	3186
731.768	3234
732.946	3200
734.123	3234
735.301	3236
736.477	3332
737.653	3288
738.83	3242
740.006	3236
741.182	3326
742.358	3230
743.534	3320
744.709	3282
745.885	3278
747.06	3292
748.234	3236
749.41	3270
750.584	3284
751.758	3316
752.931	3246
754.106	3266
755.28	3262
756.453	3286
757.626	3296
758.8	3270
759.973	3334
761.145	3246
762.318	3256
763.49	3304
764.662	3236
765.835	3240
767.006	3292
768.178	3372
769.349	3266
770.52	3338
771.691	3318
772.861	3346
774.033	3240
775.203	3296
776.373	3254
777.543	3264
778.713	3292
779.883	3274
781.052	3274
782.221	3314
783.39	3294
784.559	3298
785.727	3284
786.896	3332
788.064	3386
789.232	3276
790.4	3378
791.568	3364
792.735	3274
793.903	3332
795.07	3338
796.237	3294
797.404	3320
798.57	3322
799.737	3382
800.903	3236
802.068	3300
803.234	3354
804.399	3332
805.565	3318
806.73	3308
807.896	3366
809.061	3278
810.224	3402
811.389	3382
812.553	3358
813.717	3350
814.881	3336
816.045	3412
817.208	3344
818.371	3408
819.535	3392
820.698	3374
821.859	3378
823.022	3340
824.185	3446
825.347	3420
826.508	3398
827.67	3456
828.832	3446
829.993	3450
831.154	3456
832.316	3364
833.476	3410
834.637	3460
835.797	3462
836.957	3456
838.117	3370
839.278	3394
840.436	3424
841.596	3442
842.755	3418
843.914	3502
845.074	3430
846.232	3424
847.391	3410
848.548	3398
849.707	3428
850.864	3464
852.022	3490
853.179	3388
854.337	3452
855.493	3492
856.651	3422
857.807	3436
858.964	3524
860.12	3490
861.277	3518
862.432	3450
863.589	3508
864.744	3496
865.9	3478
867.055	3498
868.209	3454
869.365	3526
870.519	3512
871.674	3390
872.828	3458
873.982	3516
875.136	3470
876.29	3516
877.443	3458
878.597	3426
879.75	3470
880.902	3472
882.056	3438
883.208	3486
884.36	3436
885.512	3468
886.665	3442
887.816	3400
888.967	3432
890.118	3436
891.271	3412
892.421	3460
893.572	3492
894.722	3442
895.874	3408
897.024	3446
898.174	3472
899.323	3458
900.473	3458
901.622	3452
902.771	3390
903.922	3426
905.07	3408
906.219	3500
907.367	3430
908.516	3458
909.664	3450
910.811	3430
911.959	3460
913.107	3380
914.254	3434
915.401	3416
916.55	3464
917.696	3524
918.843	3506
919.99	3440
921.136	3436
922.282	3530
923.428	3452
924.574	3452
925.719	3560
926.863	3484
928.009	3454
929.154	3490
930.299	3498
931.443	3526
932.588	3456
933.732	3512
934.876	3538
936.02	3564
937.164	3408
938.308	3458
939.45	3516
940.593	3528
941.736	3430
942.879	3500
944.022	3552
945.165	3538
946.306	3532
947.448	3476
948.59	3604
949.732	3514
950.874	3486
952.014	3524
953.155	3500
954.296	3538
955.437	3492
956.577	3656
957.718	3530
958.858	3472
959.997	3602
961.137	3564
962.277	3552
963.416	3600
964.555	3556
965.695	3530
966.833	3598
967.972	3572
969.111	3580
970.248	3608
971.387	3584
972.524	3626
973.662	3460
974.8	3554
975.936	3562
977.074	3584
978.21	3572
979.348	3598
980.483	3614
981.62	3596
982.757	3650
983.893	3546
985.029	3520
986.164	3566
987.299	3638
988.435	3636
989.569	3536
990.705	3570
991.839	3612
992.974	3550
994.108	3642
995.243	3628
996.376	3626
997.509	3558
998.644	3620
999.777	3568
1000.91	3624
1002.04	3602
1003.18	3614
1004.31	3586
1005.44	3560
1006.57	3586
1007.71	3564
1008.84	3634
1009.97	3570
1011.1	3700
1012.23	3614
1013.36	3566
1014.49	3590
1015.63	3632
1016.76	3624
1017.89	3594
1019.02	3612
1020.15	3600
1021.28	3728
1022.41	3692
1023.54	3680
1024.66	3528
1025.79	3696
1026.92	3640
1028.05	3570
1029.18	3686
1030.31	3686
1031.44	3722
1032.56	3678
1033.69	3724
1034.82	3692
1035.95	3726
1037.08	3672
1038.2	3646
1039.33	3656
1040.46	3692
1041.58	3698
1042.71	3686
1043.83	3650
1044.96	3690
1046.09	3736
1047.21	3616
1048.34	3694
1049.46	3756
1050.59	3738
1051.71	3696
1052.84	3660
1053.96	3708
1055.09	3794
1056.21	3678
1057.33	3710
1058.46	3736
1059.58	3762
1060.71	3814
1061.83	3788
1062.95	3674
1064.07	3758
1065.2	3776
1066.32	3682
1067.44	3684
1068.56	3714
1069.69	3774
1070.81	3730
1071.93	3742
1073.05	3690
1074.17	3726
1075.29	3778
1076.41	3688
1077.54	3678
1078.66	3736
1079.78	3816
1080.9	3742
1082.02	3770
1083.14	3740
1084.25	3774
1085.37	3714
1086.49	3788
1087.61	3760
1088.73	3768
1089.85	3730
1090.97	3740
1092.09	3742
1093.21	3694
1094.32	3768
1095.44	3612
1096.56	3770
1097.68	3594
1098.79	3730
1099.91	3712
1101.03	3736
1102.14	3732
1103.26	3718
1104.38	3666
1105.49	3680
1106.61	3666
1107.72	3748
1108.84	3750
1109.96	3698
1111.07	3736
1112.19	3706
1113.3	3734
1114.42	3670
1115.53	3742
1116.64	3784
1117.76	3654
1118.87	3740
1119.99	3684
1121.1	3754
1122.21	3734
1123.33	3726
1124.44	3680
1125.55	3732
1126.66	3790
1127.78	3696
1128.89	3750
1130	3756
1131.11	3748
1132.23	3766
1133.34	3798
1134.45	3790
1135.56	3754
1136.67	3766
1137.78	3860
1138.89	3812
1140	3806
1141.11	3796
1142.22	3802
1143.33	3802
1144.44	3820
1145.55	3852
1146.66	3782
1147.77	3852
1148.88	3824
1149.99	3836
1151.1	3892
1152.21	3810
1153.32	3902
1154.42	3824
1155.53	3930
1156.64	3840
1157.75	3820
1158.85	3986
1159.96	3808
1161.07	3872
1162.17	3814
1163.28	3870
1164.39	3910
1165.49	3870
1166.6	3906
1167.71	3846
1168.81	3878
1169.92	3900
1171.02	3816
1172.13	3840
1173.23	3810
1174.34	3902
1175.44	3864
1176.55	3886
1177.65	3846
1178.76	3874
1179.86	3912
1180.97	3930
1182.07	3884
1183.17	3868
1184.28	3892
1185.38	3928
1186.48	3904
1187.58	3898
1188.69	3856
1189.79	3894
1190.89	3932
1191.99	3846
1193.1	3804
1194.2	3862
1195.3	3864
1196.4	3910
1197.5	3868
1198.6	3876
1199.7	3874
1200.8	3826
1201.9	3830
1203	3868
1204.1	3828
1205.2	3868
1206.3	3826
1207.4	3852
1208.5	3788
1209.6	3856
1210.7	3810
1211.8	3880
1212.9	3850
1214	3904
1215.1	3898
1216.19	3932
1217.29	3802
1218.39	3804
1219.49	3808
1220.58	3854
1221.68	3850
1222.78	3924
1223.88	3850
1224.97	3868
1226.07	3852
1227.17	3890
1228.26	3802
1229.36	3832
1230.45	3806
1231.55	3894
1232.65	3834
1233.74	3790
1234.84	3862
1235.93	3838
1237.02	3862
1238.12	3906
1239.21	3886
1240.31	3854
1241.4	3862
1242.5	3836
1243.59	3888
1244.68	3800
1245.78	3898
1246.87	3856
1247.96	3854
1249.06	3932
1250.15	3902
1251.24	3868
1252.33	3890
1253.43	3892
1254.52	3858
1255.61	3796
1256.7	3812
1257.79	3870
1258.88	3906
1259.98	3874
1261.07	3908
1262.16	3858
1263.25	3890
1264.34	3922
1265.43	3980
1266.52	3952
1267.61	3960
1268.7	3906
1269.79	3946
1270.88	3932
1271.96	3856
1273.05	3992
1274.14	3914
1275.23	3978
1276.32	3956
1277.41	4018
1278.5	3972
1279.58	3940
1280.67	3952.63
1281.76	3968.43
1282.85	3977.92
1283.93	3969.46
1285.02	3944.71
1286.11	3987.28
1287.19	3922.36
1288.28	3998.63
1289.37	4023
1290.45	3980.62
1291.54	3968.7
1292.63	4019.08
1293.71	4020.22
1294.8	4007.37
1295.88	3976.86
1296.97	4032.02
1298.05	4073.12
1299.14	4002.54
1300.22	4023.99
1301.31	4035.95
1302.39	4028.14
1303.47	4063.09
1304.56	4035.24
1305.64	4040.74
1306.72	4057.73
1307.81	3984.82
1308.89	4068.64
1309.97	4044.3
1311.06	4057.74
1312.14	4023
1313.22	4065
1314.3	4014.3
1315.39	4092.82
1316.47	4084.6
1317.55	4095.24
1318.63	4086.53
1319.71	4119.83
1320.79	4136.19
1321.88	4138.43
1322.96	4160.96
1324.04	4105.98
1325.12	4075.1
1326.2	4096.67
1327.28	4111.63
1328.36	4060.65
1329.44	4128.2
1330.52	4144.49
1331.6	4153.93
1332.68	4101.74
1333.76	4125.2
1334.84	4143.29
1335.91	4104.35
1336.99	4103.45
1338.07	4188.09
1339.15	4158.91
1340.23	4152.37
1341.31	4174.39
1342.38	4114.98
1343.46	4135.44
1344.54	4179.25
1345.62	4180.28
1346.69	4172.92
1347.77	4159.83
1348.85	4180.77
1349.92	4178
1351	4209.76
1352.08	4200.58
1353.15	4186.52
1354.23	4225.54
1355.3	4180.04
1356.38	4171.9
1357.46	4137.58
1358.53	4169.26
1359.6	4205.96
1360.68	4186.01
1361.75	4204.46
1362.83	4207
1363.9	4166.38
1364.98	4160.25
1366.05	4118.64
1367.13	4148.83
1368.2	4173.28
1369.27	4187.26
1370.35	4163.08
1371.42	4194.73
1372.49	4208.74
1373.56	4177.47
1374.64	4133.04
1375.71	4126.29
1376.78	4183.11
1377.85	4197.95
1378.93	4191.16
1380	4188.59
1381.07	4144.56
1382.14	4193.92
1383.21	4251.35
1384.28	4223.23
1385.35	4181.16
1386.43	4266.97
1387.5	4246.14
1388.57	4205.56
1389.64	4188.09
1390.13	4148
1391.2	4192
1392.28	4160
1393.35	4206
1394.43	4244
1395.5	4248
1396.57	4192
1397.65	4256
1398.72	4088
1399.8	4216
1400.87	4184
1401.94	4222
1403.02	4252
1404.09	4152
1405.17	4196
1406.24	4166
1407.31	4174
1408.38	4206
1409.46	4188
1410.53	4142
1411.6	4156
1412.67	4246
1413.74	4220
1414.82	4160
1415.89	4148
1416.96	4158
1418.03	4212
1419.1	4170
1420.17	4176
1421.24	4050
1422.31	4174
1423.38	4212
1424.45	4194
1425.52	4110
1426.59	4176
1427.66	4180
1428.73	4144
1429.8	4184
1430.87	4210
1431.94	4202
1433.01	4078
1434.08	4182
1435.14	4170
1436.21	4214
1437.28	4114
1438.35	4160
1439.42	4186
1440.48	4172
1441.55	4156
1442.62	4226
1443.68	4122
1444.75	4184
1445.82	4154
1446.89	4236
1447.95	4196
1449.02	4084
1450.08	4110
1451.15	4136
1452.22	4190
1453.28	4112
1454.35	4186
1455.41	4178
1456.48	4142
1457.54	4152
1458.61	4158
1459.67	4128
1460.73	4182
1461.8	4206
1462.86	4160
1463.93	4186
1464.99	4252
1466.05	4256
1467.12	4238
1468.18	4294
1469.24	4218
1470.31	4254
1471.37	4270
1472.43	4212
1473.49	4248
1474.56	4250
1475.62	4260
1476.68	4234
1477.74	4198
1478.8	4188
1479.86	4230
1480.93	4232
1481.99	4172
1483.05	4228
1484.11	4326
1485.17	4234
1486.23	4252
1487.29	4292
1488.35	4170
1489.41	4248
1490.47	4226
1491.53	4228
1492.59	4280
1493.65	4254
1494.71	4160
1495.76	4174
1496.82	4234
1497.88	4250
1498.94	4246
1500	4164
1501.06	4170
1502.11	4218
1503.17	4186
1504.23	4212
1505.29	4242
1506.34	4304
1507.4	4210
1508.46	4274
1509.51	4274
1510.57	4232
1511.63	4242
1512.68	4242
1513.74	4242
1514.8	4254
1515.85	4280
1516.91	4182
1517.96	4168
1519.02	4150
1520.07	4262
1521.13	4212
1522.18	4150
1523.24	4202
1524.29	4194
1525.34	4126
1526.4	4230
1527.45	4192
1528.51	4232
1529.56	4196
1530.61	4158
1531.67	4132
1532.72	4230
1533.77	4254
1534.82	4170
1535.88	4162
1536.93	4174
1537.98	4232
1539.03	4254
1540.08	4188
1541.14	4210
1542.19	4198
1543.24	4204
1544.29	4180
1545.34	4186
1546.39	4218
1547.44	4218
1548.49	4224
1549.54	4186
1550.59	4212
1551.64	4194
1552.69	4228
1553.74	4212
1554.79	4222
1555.84	4160
1556.89	4258
1557.94	4324
1558.99	4318
1560.04	4294
1561.09	4212
1562.14	4242
1563.18	4166
1564.23	4244
1565.28	4212
1566.33	4226
1567.37	4310
1568.42	4294
1569.47	4206
1570.52	4186
1571.56	4212
1572.61	4188
1573.66	4238
1574.7	4168
1575.75	4232
1576.79	4190
1577.84	4266
1578.89	4256
1579.93	4176
1580.98	4144
1582.02	4178
1583.07	4234
1584.11	4196
1585.16	4178
1586.2	4198
1587.25	4132
1588.29	4090
1589.34	4186
1590.38	4198
1591.42	4264
1592.47	4262
1593.51	4122
1594.55	4142
1595.6	4154
1596.64	4222
1597.68	4224
1598.72	4190
1599.77	4194
1600.81	4198
1601.85	4158
1602.89	4174
1603.94	4246
1604.98	4236
1606.02	4244
1607.06	4330
1608.1	4164
1609.14	4298
1610.18	4206
1611.22	4218
1612.26	4244
1613.3	4204
1614.34	4196
1615.38	4268
1616.42	4180
1617.46	4250
1618.5	4210
1619.54	4228
1620.58	4172
1621.62	4126
1622.66	4234
1623.7	4264
1624.74	4274
1625.78	4248
1626.81	4174
1627.85	4186
1628.89	4066
1629.93	4262
1630.97	4334
1632	4206
1633.04	4230
1634.08	4292
1635.11	4196
1636.15	4104
1637.19	4164
1638.22	4094
1639.26	4086
1640.3	4236
1641.33	4186
1642.37	4142
1643.4	4186
1644.44	4118
1645.47	4184
1646.51	4096
1647.55	4152
1648.58	4144
1649.61	4018
1650.65	4092
1651.68	4036
1652.72	3950
1653.75	3972
1654.79	4066
1655.82	4056
1656.85	4012
1657.89	4014
1658.92	4050
1659.95	3984
1660.98	3964
1662.02	4018
1663.05	3964
1664.08	3966
1665.12	4032
1666.15	3974
1667.18	3966
1668.21	4016
1669.24	3964
1670.27	3892
1671.3	3952
1672.34	3864
1673.37	3952
1674.4	3968
1675.43	3906
1676.46	3904
1677.49	3968
1678.52	3958
1679.55	3870
1680.58	3956
1681.61	3908
1682.64	3876
1683.67	3944
1684.7	3826
1685.73	3926
1686.75	3942
1687.78	3870
1688.81	3786
1689.84	3880
1690.87	3878
1691.9	3872
1692.93	3804
1693.95	3864
1694.98	3856
1696.01	3834
1697.03	3924
1698.06	3868
1699.09	3738
1700.12	3928
1701.14	3880
1702.17	3798
1703.2	3776
1704.22	3822
1705.25	3836
1706.27	3830
1707.3	3880
1708.32	3882
1709.35	3822
1710.37	3820
1711.4	3820
1712.42	3840
1713.45	3884
1714.47	3874
1715.5	3862
1716.52	3822
1717.55	3902
1718.57	3752
1719.59	3892
1720.62	3808
1721.64	3814
1722.67	3832
1723.69	3772
1724.71	3814
1725.73	3830
1726.76	3836
1727.78	3908
1728.8	3826
1729.82	3900
1730.84	3754
1731.87	3768
1732.89	3878
1733.91	3852
1734.93	3764
1735.95	3846
1736.97	3830
1737.99	3820
1739.01	3870
1740.04	3758
1741.06	3868
1742.08	3808
1743.1	3852
1744.12	3838
1745.14	3804
1746.16	3898
1747.18	3802
1748.19	3762
1749.21	3842
1750.23	3840
1751.25	3780
1752.27	3818
1753.29	3790
1754.31	3748
1755.33	3834
1756.34	3740
1757.36	3790
1758.38	3870
1759.4	3822
1760.41	3798
1761.43	3868
1762.45	3850
1763.47	3862
1764.48	3854
1765.5	3778
1766.51	3792
1767.53	3842
1768.55	3796
1769.56	3834
1770.58	3776
1771.6	3860
1772.61	3846
1773.63	3888
1774.64	3790
1775.66	3804
1776.67	3814
1777.69	3752
1778.7	3778
1779.71	3822
1780.73	3810
1781.74	3768
1782.76	3796
1783.77	3802
1784.78	3880
1785.8	3804
1786.81	3728
1787.82	3856
1788.84	3818
1789.85	3758
1790.86	3778
1791.88	3754
1792.89	3770
1793.9	3746
1794.91	3818
1795.92	3718
1796.94	3828
1797.95	3790
1798.96	3748
1799.97	3782
1800.98	3772
1801.99	3756
1803	3778
1804.01	3800
1805.02	3844
1806.03	3820
1807.04	3868
1808.05	3808
1809.06	3776
1810.07	3798
1811.08	3814
1812.09	3772
1813.1	3746
1814.11	3720
1815.12	3810
1816.13	3750
1817.14	3730
1818.14	3722
1819.15	3686
1820.16	3754
1821.17	3762
1822.18	3726
1823.18	3800
1824.19	3724
1825.2	3730
1826.21	3714
1827.21	3792
1828.22	3750
1829.23	3822
1830.23	3776
1831.24	3708
1832.25	3716
1833.25	3728
1834.26	3722
1835.27	3684
1836.27	3744
1837.28	3666
1838.28	3712
1839.29	3662
1840.29	3716
1841.3	3614
1842.3	3736
1843.31	3762
1844.31	3724
1845.31	3724
1846.32	3662
1847.32	3666
1848.33	3702
1849.33	3670
1850.33	3702
1851.34	3704
1852.34	3704
1853.34	3662
1854.35	3704
1855.35	3672
1856.35	3704
1857.35	3668
1858.36	3696
1859.36	3642
1860.36	3714
1861.36	3670
1862.36	3662
1863.36	3640
1864.36	3724
1865.37	3706
1866.37	3696
1867.37	3700
1868.37	3610
1869.37	3668
1870.37	3708
1871.37	3654
1872.37	3654
1873.37	3656
1874.37	3698
1875.37	3618
1876.37	3682
1877.37	3660
1878.37	3626
1879.37	3652
1880.36	3562
1881.36	3604
1882.36	3604
1883.36	3596
1884.36	3618
1885.36	3652
1886.35	3604
1887.35	3698
1888.35	3664
1889.35	3584
1890.34	3672
1891.34	3668
1892.34	3590
1893.34	3646
1894.33	3682
1895.33	3618
1896.33	3634
1897.32	3702
1898.32	3610
1899.31	3566
1900.31	3620
1901.3	3620
1902.3	3610
1903.3	3648
1904.29	3620
1905.29	3700
1906.28	3626
1907.27	3610
1908.27	3610
1909.26	3698
1910.26	3658
1911.25	3638
1912.25	3616
1913.24	3652
1914.23	3642
1915.23	3624
1916.22	3672
1917.21	3638
1918.21	3678
1919.2	3588
1920.19	3630
1921.18	3670
1922.18	3598
1923.17	3604
1924.16	3576
1925.15	3630
1926.14	3628
1927.14	3604
1928.13	3678
1929.12	3652
1930.11	3608
1931.1	3682
1932.09	3678
1933.08	3610
1934.07	3660
1935.06	3610
1936.05	3680
1937.04	3574
1938.03	3668
1939.02	3534
1940.01	3570
1941	3552
1941.99	3576
1942.98	3606
1943.97	3582
1944.96	3638
1945.95	3542
1946.94	3552
1947.92	3620
1948.91	3620
1949.9	3644
1950.89	3618
1951.88	3616
1952.86	3532
1953.85	3574
1954.84	3536
1955.83	3596
1956.81	3524
1957.8	3564
1958.79	3564
1959.77	3546
1960.76	3596
1961.75	3574
1962.73	3606
1963.72	3558
1964.7	3566
1965.69	3578
1966.68	3564
1967.66	3614
1968.65	3562
1969.63	3542
1970.62	3546
1971.6	3504
1972.59	3592
1973.57	3566
1974.55	3540
1975.54	3530
1976.52	3566
1977.51	3564
1978.49	3584
1979.47	3598
1980.46	3522
1981.44	3578
1982.42	3546
1983.41	3498
1984.39	3536
1985.37	3584
1986.35	3566
1987.34	3486
1988.32	3544
1989.3	3582
1990.28	3528
1991.27	3528
1992.25	3570
1993.23	3536
1994.21	3500
1995.19	3556
1996.17	3470
1997.15	3458
1998.13	3546
1999.11	3516
2000.09	3438
2001.07	3474
2002.05	3534
2003.03	3564
2004.01	3546
2004.99	3478
2005.97	3442
2006.95	3506
2007.93	3462
2008.91	3576
2009.89	3520
2010.87	3566
2011.85	3518
2012.82	3530
2013.8	3512
2014.78	3538
2015.76	3528
2016.74	3404
2017.72	3542
2018.69	3472
2019.67	3488
2020.65	3556
2021.62	3396
2022.6	3444
2023.58	3576
2024.55	3490
2025.53	3502
2026.51	3514
2027.48	3506
2028.46	3462
2029.44	3462
2030.41	3454
2031.39	3528
2032.36	3466
2033.34	3544
2034.31	3454
2035.29	3472
2036.26	3510
2037.24	3428
2038.21	3438
2039.19	3468
2040.16	3494
2041.14	3466
2042.11	3430
2043.08	3370
2044.06	3400
2045.03	3440
2046	3494
2046.98	3462
2047.95	3408
2048.92	3488
2049.9	3540
2050.87	3420
2051.84	3442
2052.81	3428
2053.79	3438
2054.76	3404
2055.73	3448
2056.7	3384
2057.67	3428
2058.64	3436
2059.61	3508
2060.59	3388
2061.56	3484
2062.53	3450
2063.5	3334
2064.47	3476
2065.44	3382
2066.41	3430
2067.38	3362
2068.35	3464
2069.32	3472
2070.29	3394
2071.26	3456
2072.23	3416
2073.2	3398
2074.17	3424
2075.14	3382
2076.1	3394
2077.07	3494
2078.04	3490
2079.01	3386
2079.98	3448
2080.95	3334
2081.91	3470
2082.88	3414
2083.85	3348
2084.82	3354
2085.78	3426
2086.75	3408
2087.72	3420
2088.68	3366
2089.65	3350
2090.62	3414
2091.58	3338
2092.55	3314
2093.52	3350
2094.48	3444
2095.45	3344
2096.41	3402
2097.38	3256
2098.35	3376
2099.31	3394
2100.28	3318
2101.24	3404
2102.21	3288
2103.17	3370
2104.14	3328
2105.1	3334
2106.06	3320
2107.03	3358
2107.99	3306
2108.96	3396
2109.92	3394
2110.88	3378
2111.85	3384
2112.81	3292
2113.77	3320
2114.73	3352
2115.7	3350
2116.66	3404
2117.62	3356
2118.58	3266
2119.55	3388
2120.51	3286
2121.47	3312
2122.43	3296
2123.39	3288
2124.36	3274
2125.32	3280
2126.28	3322
2127.24	3302
2128.2	3308
2129.16	3308
2130.12	3336
2131.08	3302
2132.04	3326
2133	3320
2133.96	3288
2134.92	3270
2135.88	3284
2136.84	3290
2137.8	3284
2138.76	3308
2139.72	3260
2140.68	3256
2141.64	3322
2142.59	3256
2143.55	3322
2144.51	3252
2145.47	3284
2146.43	3242
2147.39	3306
2148.34	3268
2149.3	3304
2150.26	3280
2151.22	3264
2152.17	3248
2153.13	3324
2154.09	3244
2155.04	3300
2156	3238
2156.96	3290
2157.91	3244
2158.87	3238
2159.82	3190
2160.78	3270
2161.74	3274
2162.69	3244
2163.65	3248
2164.6	3270
2165.56	3188
2166.51	3204
2167.47	3220
2168.42	3242
2169.38	3210
2170.33	3184
2171.29	3270
2172.24	3170
2173.19	3154
2174.15	3228
2175.1	3234
2176.05	3190
2177.01	3216
2177.96	3282
2178.91	3188
2179.87	3192
2180.82	3158
2181.77	3238
2182.73	3156
2183.68	3158
2184.63	3158
2185.58	3236
2186.53	3186
2187.49	3148
2188.44	3094
2189.39	3126
2190.34	3154
2191.29	3120
2192.24	3140
2193.19	3232
2194.14	3196
2195.09	3166
2196.05	3138
2197	3216
2197.95	3116
2198.9	3080
2199.85	3120
2200.8	3134
2201.75	3104
2202.7	3104
2203.64	3106
2204.59	3136
2205.54	3090
2206.49	3054
2207.44	3202
2208.39	3044
2209.34	3120
2210.29	3146
2211.23	3080
2212.18	3090
2213.13	3132
2214.08	3110
2215.03	3062
2215.97	3078
2216.92	3110
2217.87	3184
2218.81	3108
2219.76	3082.47
2220.71	3095.47
2221.66	3133.61
2222.6	3081.42
2223.55	3120.76
2224.49	3071.53
2225.44	3069.92
2226.39	3103.95
2227.33	3063.03
2228.28	3084.31
2229.22	3136.97
2230.17	3082.92
2231.11	3095.02
2232.06	3092.45
2233	3137.3
2233.95	3110.4
2234.89	3061.07
2235.84	3145.25
2236.78	3068.51
2237.73	3067.06
2238.67	3107.95
2239.61	3107.94
2240.56	3078.52
2241.5	3138.61
2242.45	3076.85
2243.39	3099.45
2244.33	3170.43
2245.28	3112.69
2246.22	3162.34
2247.16	3144.23
2248.1	3109.27
2249.05	3136.19
2249.99	3100.73
2250.93	3110.57
2251.87	3164.28
2252.81	3132.24
2253.76	3125.93
2254.7	3127.4
2255.64	3134.49
2256.58	3090.55
2257.52	3133.75
2258.46	3145.85
2259.4	3157.22
2260.34	3130.23
2261.28	3150.08
2262.23	3150.18
2263.17	3145.97
2264.11	3101.68
2265.05	3135.32
2265.99	3158.57
2266.93	3124
2267.87	3096.76
2268.8	3149.45
2269.74	3154.81
2270.68	3123.81
2271.62	3108.31
2272.56	3131.26
2273.5	3092.43
2274.44	3105.26
2275.38	3124.26
2276.32	3135.79
2277.25	3134.38
2278.19	3120.69
2279.13	3097.77
2280.07	3109.07
2281.01	3139.1
2281.94	3146.93
2282.88	3142.28
2283.82	3138.56
2284.76	3110.55
2285.69	3150.54
2286.63	3090.21
2287.57	3107.65
2288.5	3097.19
2289.44	3089.92
2290.37	3085.53
2291.31	3133.32
2292.25	3170.2
2293.18	3117.6
2294.12	3171.13
2295.05	3133.43
2295.99	3172.1
2296.92	3152.06
2297.86	3130.79
2298.79	3107.06
2299.73	3150.81
2300.66	3101.26
2301.6	3103.48
2302.53	3114.67
2303.47	3122.15
2304.4	3131.12
2305.34	3146.4
2306.27	3116.83
2307.2	3087.19
2308.14	3134.21
2309.07	3150.72
2310	3165.07
2310.94	3091.68
2311.87	3061.07
2312.8	3128.49
2313.74	3135.69
2313.98	3130
2314.92	3056
2315.86	3212
2316.79	3132
2317.73	3180
2318.67	3164
2319.6	3102
2320.54	3100
2321.48	3094
2322.41	3082
2323.35	3016
2324.29	3108
2325.22	3142
2326.16	3126
2327.09	3084
2328.03	3156
2328.96	3086
2329.9	3194
2330.83	3084
2331.77	3152
2332.7	3114
2333.64	3130
2334.57	3108
2335.51	3032
2336.44	3168
2337.38	3094
2338.31	3102
2339.24	3092
2340.18	3112
2341.11	3054
2342.04	3054
2342.98	3058
2343.91	3102
2344.84	3074
2345.78	3112
2346.71	3078
2347.64	3040
2348.57	3094
2349.51	3066
2350.44	3086
2351.37	3102
2352.3	3074
2353.24	3092
2354.17	3108
2355.1	3072
2356.03	3142
2356.96	3112
2357.89	3090
2358.82	3080
2359.75	3020
2360.68	3082
2361.62	3080
2362.55	3116
2363.48	3082
2364.41	3040
2365.34	3118
2366.27	3112
2367.2	3154
2368.13	3106
2369.05	3042
2369.98	3072
2370.91	3086
2371.84	3068
2372.77	3068
2373.7	3098
2374.63	3026
2375.56	3014
2376.49	3032
2377.41	3072
2378.34	3050
2379.27	3030
2380.2	3058
2381.12	3068
2382.05	3082
2382.98	3020
2383.91	3058
2384.83	3036
2385.76	3004
2386.69	3042
2387.61	3054
2388.54	3048
2389.47	3046
2390.39	3092
2391.32	3024
2392.25	3016
2393.17	3076
2394.1	3020
2395.02	3018
2395.95	3010
2396.87	3012
2397.8	3006
2398.72	3026
2399.65	3060
2400.57	3046
2401.5	3012
2402.42	2994
2403.35	2970
2404.27	3026
2405.2	3084
2406.12	3012
2407.04	2964
2407.97	2988
2408.89	3004
2409.81	3064
2410.74	3008
2411.66	3024
2412.58	3008
2413.51	2952
2414.43	3034
2415.35	3040
2416.27	3052
2417.2	3024
2418.12	2968
2419.04	2984
2419.96	3004
2420.88	3016
2421.81	3020
2422.73	2952
2423.65	3076
2424.57	3014
2425.49	2958
2426.41	3010
2427.33	3002
2428.25	2960
2429.17	2942
2430.1	2954
2431.02	2954
2431.94	2904
2432.85	3000
2433.77	3028
2434.7	2944
2435.61	2972
2436.53	3000
2437.45	2910
2438.37	2962
2439.29	2920
2440.21	2950
2441.13	2924
2442.05	3000
2442.97	2894
2443.88	2948
2444.8	2960
2445.72	2918
2446.64	2930
2447.56	2928
2448.47	2980
2449.39	2974
2450.31	2982
2451.23	2938
2452.14	3020
2453.06	2944
2453.98	3012
2454.89	2956
2455.81	2934
2456.73	3030
2457.64	3000
2458.56	2920
2459.48	2982
2460.39	2950
2461.31	2956
2462.22	2964
2463.14	3000
2464.05	2944
2464.97	2908
2465.88	2898
2466.8	2906
2467.71	2936
2468.63	2974
2469.54	2850
2470.46	2948
2471.37	2978
2472.29	2930
2473.2	2962
2474.11	2916
2475.03	2986
2475.94	2866
2476.86	2950
2477.77	2878
2478.68	2872
2479.59	2922
2480.51	2838
2481.42	2922
2482.33	2886
2483.25	2884
2484.16	2908
2485.07	2908
2485.98	2908
2486.9	2882
2487.81	2884
2488.72	2900
2489.63	2922
2490.54	2934
2491.45	2890
2492.36	2928
2493.28	2930
2494.19	2912
2495.1	2846
2496.01	2870
2496.92	2892
2497.83	2932
2498.74	2896
2499.65	2850
2500.56	2856
2501.47	2902
2502.38	2874
2503.29	2938
2504.2	2870
2505.11	2884
2506.02	2930
2506.93	2848
2507.83	2842
2508.74	2898
2509.65	2934
2510.56	2918
2511.47	2888
2512.38	2818
2513.29	2826
2514.19	2844
2515.1	2878
2516.01	2834
2516.92	2866
2517.82	2894
2518.73	2912
2519.64	2848
2520.55	2910
2521.45	2838
2522.36	2836
2523.27	2858
2524.17	2840
2525.08	2814
2525.99	2770
2526.89	2758
2527.8	2872
2528.7	2890
2529.61	2804
2530.51	2848
2531.42	2796
2532.33	2824
2533.23	2846
2534.14	2792
2535.04	2798
2535.95	2806
2536.85	2794
2537.75	2836
2538.66	2872
2539.56	2800
2540.47	2788
2541.37	2816
2542.28	2828
2543.18	2796
2544.08	2806
2544.99	2864
2545.89	2838
2546.79	2772
2547.7	2820
2548.6	2826
2549.5	2844
2550.4	2838
2551.31	2818
2552.21	2798
2553.11	2796
2554.01	2804
2554.92	2850
2555.82	2786
2556.72	2788
2557.62	2778
2558.52	2796
2559.42	2778
2560.32	2800
2561.23	2728
2562.13	2768
2563.03	2762
2563.93	2808
2564.83	2726
2565.73	2820
2566.63	2812
2567.53	2770
2568.43	2816
2569.33	2722
2570.23	2810
2571.13	2818
2572.03	2718
2572.93	2766
2573.83	2746
2574.73	2754
2575.63	2730
2576.52	2784
2577.42	2770
2578.32	2750
2579.22	2788
2580.12	2738
2581.02	2736
2581.91	2766
2582.81	2712
2583.71	2820
2584.61	2724
2585.51	2770
2586.4	2782
2587.3	2700
2588.2	2760
2589.09	2768
2589.99	2742
2590.89	2758
2591.78	2660
2592.68	2700
2593.58	2672
2594.47	2704
2595.37	2612
2596.26	2748
2597.16	2760
2598.06	2698
2598.95	2722
2599.85	2766
2600.74	2742
2601.64	2670
2602.53	2736
2603.43	2702
2604.32	2718
2605.22	2730
2606.11	2692
2607.01	2748
2607.9	2740
2608.79	2726
2609.69	2742
2610.58	2714
2611.48	2694
2612.37	2680
2613.26	2688
2614.16	2648
2615.05	2662
2615.94	2738
2616.84	2676
2617.73	2712
2618.62	2678
2619.51	2684
2620.41	2684
2621.3	2724
2622.19	2756
2623.08	2676
2623.97	2678
2624.87	2622
2625.76	2670
2626.65	2662
2627.54	2676
2628.43	2670
2629.32	2670
2630.21	2656
2631.1	2674
2631.99	2614
2632.89	2648
2633.78	2696
2634.67	2590
2635.56	2696
2636.45	2628
2637.34	2662
2638.23	2638
2639.12	2578
2640.01	2640
2640.9	2664
2641.78	2680
2642.67	2634
2643.56	2644
2644.45	2644
2645.34	2666
2646.23	2604
2647.12	2616
2648.01	2650
2648.89	2638
2649.78	2600
2650.67	2592
2651.56	2634
2652.45	2676
2653.33	2614
2654.22	2622
2655.11	2628
2656	2598
2656.88	2598
2657.77	2594
2658.66	2634
2659.54	2612
2660.43	2592
2661.32	2620
2662.2	2598
2663.09	2654
2663.97	2616
2664.86	2622
2665.75	2586
2666.63	2588
2667.52	2586
2668.4	2624
2669.29	2642
2670.17	2582
2671.06	2662
2671.94	2646
2672.83	2616
2673.71	2650
2674.6	2640
2675.48	2566
2676.37	2576
2677.25	2652
2678.13	2666
2679.02	2652
2679.9	2600
2680.78	2588
2681.67	2612
2682.55	2564
2683.43	2562
2684.32	2626
2685.2	2580
2686.08	2578
2686.97	2524
2687.85	2544
2688.73	2588
2689.61	2618
2690.5	2538
2691.38	2544
2692.26	2570
2693.14	2556
2694.02	2540
2694.9	2494
2695.79	2538
2696.67	2524
2697.55	2582
2698.43	2512
2699.31	2504
2700.19	2534
2701.07	2548
2701.95	2558
2702.83	2604
2703.71	2520
2704.59	2552
2705.47	2584
2706.35	2526
2707.23	2522
2708.11	2562
2708.99	2494
2709.87	2580
2710.75	2526
2711.63	2528
2712.51	2514
2713.39	2544
2714.27	2542
2715.14	2520
2716.02	2516
2716.9	2402
2717.78	2518
2718.66	2500
2719.54	2476
2720.41	2540
2721.29	2488
2722.17	2508
2723.05	2512
2723.92	2532
2724.8	2492
2725.68	2506
2726.55	2502
2727.43	2514
2728.31	2546
2729.18	2524
2730.06	2534
2730.94	2512
2731.81	2462
2732.69	2524
2733.57	2448
2734.44	2464
2735.32	2496
2736.19	2474
2737.07	2498
2737.94	2538
2738.82	2402
2739.69	2408
2740.57	2460
2741.44	2408
2742.32	2482
2743.19	2492
2744.07	2554
2744.94	2448
2745.81	2494
2746.69	2422
2747.56	2428
2748.44	2460
2749.31	2432
2750.18	2446
2751.06	2394
2751.93	2424
2752.8	2444
2753.68	2490
2754.55	2404
2755.42	2420
2756.29	2454
2757.17	2492
2758.04	2436
2758.91	2442
2759.78	2432
2760.65	2430
2761.53	2436
2762.4	2462
2763.27	2418
2764.14	2456
2765.01	2412
2765.88	2452
2766.76	2452
2767.63	2418
2768.5	2384
2769.37	2458
2770.24	2372
2771.11	2368
2771.98	2412
2772.85	2408
2773.72	2426
2774.59	2488
2775.46	2410
2776.33	2426
2777.2	2416
2778.07	2372
2778.94	2368
2779.81	2352
2780.67	2410
2781.54	2344
2782.41	2418
2783.28	2414
2784.15	2428
2785.02	2350
2785.89	2438
2786.75	2396
2787.62	2468
2788.49	2460
2789.36	2378
2790.23	2372
2791.09	2440
2791.96	2372
2792.83	2394
2793.7	2340
2794.56	2344
2795.43	2384
2796.3	2400
2797.16	2362
2798.03	2376
2798.9	2350
2799.76	2324
2800.63	2368
2801.49	2358
2802.36	2334
2803.23	2434
2804.09	2338
2804.96	2322
2805.82	2354
2806.69	2432
2807.55	2406
2808.42	2360
2809.28	2384
2810.15	2410
2811.01	2324
2811.88	2292
2812.74	2334
2813.61	2472
2814.47	2384
2815.33	2350
2816.2	2326
2817.06	2370
2817.93	2364
2818.79	2378
2819.65	2322
2820.52	2334
2821.38	2336
2822.24	2354
2823.11	2290
2823.97	2378
2824.83	2346
2825.69	2308
2826.55	2278
2827.42	2352
2828.28	2348
2829.14	2364
2830	2306
2830.87	2334
2831.73	2296
2832.59	2310
2833.45	2258
2834.31	2304
2835.17	2396
2836.03	2272
2836.89	2324
2837.76	2284
2838.62	2326
2839.48	2308
2840.34	2302
2841.2	2330
2842.06	2292
2842.92	2282
2843.78	2312
2844.64	2326
2845.5	2266
2846.36	2320
2847.22	2260
2848.07	2294
2848.93	2270
2849.79	2304
2850.65	2262
2851.51	2308
2852.37	2324
2853.23	2298
2854.09	2340
2854.95	2240
2855.8	2346
2856.66	2236
2857.52	2246
2858.38	2252
2859.24	2214
2860.09	2222
2860.95	2214
2861.81	2242
2862.66	2232
2863.52	2260
2864.38	2232
2865.24	2224
2866.09	2222
2866.95	2244
2867.81	2198
2868.66	2266
2869.52	2248
2870.37	2214
2871.23	2180
2872.09	2188
2872.94	2208
2873.8	2236
2874.65	2228
2875.51	2222
2876.36	2198
2877.22	2178
2878.07	2214
2878.93	2194
2879.78	2214
2880.64	2232
2881.49	2236
2882.35	2142
2883.2	2222
2884.05	2196
2884.91	2192
2885.76	2216
2886.62	2154
2887.47	2206
2888.32	2158
2889.18	2204
2890.03	2178
2890.88	2160
2891.74	2254
2892.59	2204
2893.44	2260
2894.29	2194
2895.15	2170
2896	2222
2896.85	2166
2897.7	2168
2898.55	2176
2899.41	2216
2900.26	2176
2901.11	2180
2901.96	2216
2902.81	2162
2903.66	2164
2904.52	2194
2905.37	2196
2906.22	2146
2907.07	2158
2907.92	2160
2908.77	2172
2909.62	2168
2910.47	2142
2911.32	2200
2912.17	2204
2913.02	2178
2913.87	2158
2914.72	2218
2915.57	2214
2916.42	2148
2917.27	2204
2918.12	2198
2918.97	2150
2919.82	2124
2920.66	2204
2921.51	2132
2922.36	2178
2923.21	2180
2924.06	2150
2924.91	2170
2925.75	2170
2926.6	2160
2927.45	2206
2928.3	2224
2929.15	2216
2929.99	2186
2930.84	2130
2931.69	2100
2932.54	2146
2933.38	2150
2934.23	2144
2935.08	2152
2935.92	2092
2936.77	2162
2937.62	2148
2938.46	2140
2939.31	2110
2940.15	2156
2941	2124
2941.85	2134
2942.69	2140
2943.54	2144
2944.38	2096
2945.23	2140
2946.07	2094
2946.92	2174
2947.76	2136
2948.61	2114
2949.45	2086
2950.3	2058
2951.14	2104
2951.99	2134
2952.83	2156
2953.67	2144
2954.52	2062
2955.36	2116
2956.21	2056
2957.05	2118
2957.89	2056
2958.74	2096
2959.58	2084
2960.42	2078
2961.27	2126
2962.11	2090
2962.95	2084
2963.79	2086
2964.64	2078
2965.48	2064
2966.32	2112
2967.16	2088
2968.01	2050
2968.85	2062
2969.69	2044
2970.53	2040
2971.37	2028
2972.21	2042
2973.05	2092
2973.9	2082
2974.74	2080
2975.58	2066
2976.42	2094
2977.26	2050
2978.1	2104
2978.94	1982
2979.78	2014
2980.62	2034
2981.46	2018
2982.3	2046
2983.14	2038
2983.98	2104
2984.82	2026
2985.66	2024
2986.5	2066
2987.34	2008
2988.18	2004
2989.02	1998
2989.86	2042
2990.69	1968
2991.53	2028
2992.37	1992
2993.21	2026
2994.05	2064
2994.89	1974
2995.72	1994
2996.56	2002
2997.4	2014
2998.24	1994
2999.08	2024
2999.91	2026
3000.75	2000
3001.59	2012
3002.43	1986
3003.26	2038
3004.1	2022
3004.94	2020
3005.77	1996
3006.61	2004
3007.45	1954
3008.28	2002
3009.12	1970
3009.95	1970
3010.79	1978
3011.63	1968
3012.46	1954
3013.3	1940
3014.13	1980
3014.97	1976
3015.8	1980
3016.64	1938
3017.47	1946
3018.31	1952
3019.14	1910
3019.98	1886
3020.81	1944
3021.65	1986
3022.48	1944
3023.31	1962
3024.15	1920
3024.98	1922
3025.82	1902
3026.65	1948
3027.48	1870
3028.32	1900
3029.15	1934
3029.98	1928
3030.82	1952
3031.65	1914
3032.48	1902
3033.31	1902
3034.15	1948
3034.98	1932
3035.81	1958
3036.64	1928
3037.48	1910
3038.31	1934
3039.14	1882
3039.97	1934
3040.8	1969.84
3041.63	1956.45
3042.47	1897.28
3043.3	1918.59
3044.13	1900.81
3044.96	1895.05
3045.79	1896.34
3046.62	1943.47
3047.45	1899.99
3048.28	1887.13
3049.11	1858
3049.94	1872.36
3050.77	1895.41
3051.6	1899.11
3052.43	1871.59
3053.26	1874.3
3054.09	1892.74
3054.92	1930.9
3055.75	1894.98
3056.58	1890.94
3057.41	1897.69
3058.24	1938.45
3059.07	1867.53
3059.9	1887.86
3060.73	1881.53
3061.55	1861.73
3062.38	1917.82
3063.21	1829.53
3064.04	1876.62
3064.87	1909.03
3065.7	1877.72
3066.52	1851.33
3067.35	1862.76
3068.18	1846.93
3069.01	1898.3
3069.83	1833.44
3070.66	1844.21
3071.49	1841.11
3072.32	1822.49
3073.14	1850.2
3073.97	1857.23
3074.8	1841.99
3075.62	1856.34
3076.45	1824.25
3077.28	1847.67
3078.1	1838.29
3078.93	1874.31
3079.75	1805.14
3080.58	1800.35
3081.41	1840.33
3082.23	1831.79
3083.06	1832.97
3083.88	1816.67
3084.71	1820.89
3085.53	1872.63
3086.36	1832.93
3087.18	1819.74
3088.01	1825.77
3088.83	1840.13
3089.66	1813.63
3090.48	1820.5
3091.31	1829.97
3092.13	1815.32
3092.96	1811.29
3093.78	1779.06
3094.6	1787.63
3095.43	1794.58
3096.25	1801.12
3097.07	1797.01
3097.9	1777.94
3098.72	1785.71
3099.54	1794.59
3100.37	1782.68
3101.19	1766.34
3102.01	1770.83
3102.84	1748.78
3103.66	1783.42
3104.48	1783.96
3105.3	1762.19
3106.13	1761.47
3106.95	1757.24
3107.77	1775.54
3108.59	1758.52
3109.41	1741.71
3110.24	1730.48
3111.06	1708.93
3111.88	1724.12
3112.7	1723.24
3113.52	1727.82
3114.34	1737.7
3115.16	1742.06
3115.98	1734.4
3116.81	1725.98
3117.63	1717.56
3118.45	1710.14
3119.27	1701.47
3120.09	1715.55
3120.91	1727.66
3121.73	1736.78
3122.55	1734.28
3123.37	1733.05
3123.73	1738
3124.56	1730
3125.38	1716
3126.21	1782
3127.03	1768
3127.85	1720
3128.68	1712
3129.5	1718
3130.32	1764
3131.15	1700
3131.97	1740
3132.79	1662
3133.62	1702
3134.44	1662
3135.26	1760
3136.08	1742
3136.91	1724
3137.73	1674
3138.55	1718
3139.37	1738
3140.19	1696
3141.02	1702
3141.84	1690
3142.66	1680
3143.48	1682
3144.3	1724
3145.13	1636
3145.95	1718
3146.77	1692
3147.59	1664
3148.41	1672
3149.23	1666
3150.05	1692
3150.87	1628
3151.69	1676
3152.51	1646
3153.33	1656
3154.15	1658
3154.97	1682
3155.79	1648
3156.61	1688
3157.43	1658
3158.25	1634
3159.07	1650
3159.89	1712
3160.71	1672
3161.53	1640
3162.35	1678
3163.17	1594
3163.98	1654
3164.8	1642
3165.62	1632
3166.44	1644
3167.26	1646
3168.08	1610
3168.89	1650
3169.71	1674
3170.53	1644
3171.35	1654
3172.17	1594
3172.98	1606
3173.8	1632
3174.62	1698
3175.43	1622
3176.25	1630
3177.07	1606
3177.89	1566
3178.7	1624
3179.52	1646
3180.33	1634
3181.15	1658
3181.97	1654
3182.78	1592
3183.6	1648
3184.41	1630
3185.23	1638
3186.05	1624
3186.86	1636
3187.68	1636
3188.49	1646
3189.31	1588
3190.12	1626
3190.94	1634
3191.75	1580
3192.57	1608
3193.38	1632
3194.2	1590
3195.01	1640
3195.82	1634
3196.64	1648
3197.45	1640
3198.27	1592
3199.08	1634
3199.89	1612
3200.71	1604
3201.52	1624
3202.33	1564
3203.15	1652
3203.96	1584
3204.77	1646
3205.59	1562
3206.4	1570
3207.21	1648
3208.02	1614
3208.84	1592
3209.65	1618
3210.46	1580
3211.27	1616
3212.09	1590
3212.9	1556
3213.71	1626
3214.52	1556
3215.33	1604
3216.14	1576
3216.96	1622
3217.77	1582
3218.58	1604
3219.39	1580
3220.2	1572
3221.01	1598
3221.82	1620
3222.63	1614
3223.44	1580
3224.25	1598
3225.06	1600
3225.87	1618
3226.68	1572
3227.49	1584
3228.3	1604
3229.11	1566
3229.92	1548
3230.73	1578
3231.54	1620
3232.35	1574
3233.16	1594
3233.97	1600
3234.77	1558
3235.58	1582
3236.39	1526
3237.2	1532
3238.01	1522
3238.82	1564
3239.63	1514
3240.43	1556
3241.24	1592
3242.05	1548
3242.86	1526
3243.66	1594
3244.47	1530
3245.28	1610
3246.09	1596
3246.89	1516
3247.7	1492
3248.51	1586
3249.31	1514
3250.12	1556
3250.93	1534
3251.73	1498
3252.54	1546
3253.35	1602
3254.15	1532
3254.96	1524
3255.76	1576
3256.57	1490
3257.38	1526
3258.18	1524
3258.99	1506
3259.79	1518
3260.6	1536
3261.4	1478
3262.21	1514
3263.01	1530
3263.82	1512
3264.62	1516
3265.43	1510
3266.23	1536
3267.04	1522
3267.84	1532
3268.64	1462
3269.45	1528
3270.25	1508
3271.06	1456
3271.86	1502
3272.66	1532
3273.47	1518
3274.27	1500
3275.07	1528
3275.88	1506
3276.68	1484
3277.48	1460
3278.28	1496
3279.09	1440
3279.89	1498
3280.69	1482
3281.49	1462
3282.3	1472
3283.1	1494
3283.9	1502
3284.7	1478
3285.5	1476
3286.31	1522
3287.11	1446
3287.91	1534
3288.71	1472
3289.51	1538
3290.31	1478
3291.11	1508
3291.91	1512
3292.71	1506
3293.51	1480
3294.31	1454
3295.12	1414
3295.92	1502
3296.72	1460
3297.52	1446
3298.32	1486
3299.12	1474
3299.92	1436
3300.72	1432
3301.51	1464
3302.31	1496
3303.11	1492
3303.91	1464
3304.71	1444
3305.51	1440
3306.31	1472
3307.11	1468
3307.91	1526
3308.71	1432
3309.5	1478
3310.3	1438
3311.1	1434
3311.9	1436
3312.7	1462
3313.49	1464
3314.29	1532
3315.09	1412
3315.89	1450
3316.69	1472
3317.48	1418
3318.28	1426
3319.08	1436
3319.87	1440
3320.67	1426
3321.47	1392
3322.26	1452
3323.06	1444
3323.86	1430
3324.65	1482
3325.45	1436
3326.25	1462
3327.04	1434
3327.84	1432
3328.63	1408
3329.43	1452
3330.22	1394
3331.02	1396
3331.81	1412
3332.61	1452
3333.4	1406
3334.2	1438
3334.99	1436
3335.79	1470
3336.58	1420
3337.38	1448
3338.17	1440
3338.97	1420
3339.76	1430
3340.56	1436
3341.35	1432
3342.14	1440
3342.94	1402
3343.73	1472
3344.52	1422
3345.32	1398
3346.11	1442
3346.9	1400
3347.7	1426
3348.49	1420
3349.28	1412
3350.08	1418
3350.87	1402
3351.66	1372
3352.45	1428
3353.25	1376
3354.04	1390
3354.83	1438
3355.62	1394
3356.41	1406
3357.21	1418
3358	1384
3358.79	1408
3359.58	1380
3360.37	1410
3361.16	1356
3361.95	1396
3362.75	1400
3363.54	1408
3364.33	1376
3365.12	1390
3365.91	1392
3366.7	1384
3367.49	1380
3368.28	1430
3369.07	1388
3369.86	1398
3370.65	1350
3371.44	1392
3372.23	1396
3373.02	1388
3373.81	1396
3374.6	1396
3375.39	1376
3376.18	1422
3376.97	1378
3377.75	1408
3378.54	1410
3379.33	1402
3380.12	1388
3380.91	1360
3381.7	1376
3382.49	1394
3383.27	1354
3384.06	1376
3384.85	1384
3385.64	1380
3386.43	1384
3387.21	1370
3388	1358
3388.79	1360
3389.58	1402
3390.36	1366
3391.15	1390
3391.94	1352
3392.72	1386
3393.51	1310
3394.3	1352
3395.08	1366
3395.87	1348
3396.66	1354
3397.44	1296
3398.23	1344
3399.01	1380
3399.8	1386
3400.59	1356
3401.37	1340
3402.16	1316
3402.94	1344
3403.73	1348
3404.51	1330
3405.3	1366
3406.08	1336
3406.87	1342
3407.65	1346
3408.44	1342
3409.22	1322
3410.01	1364
3410.79	1362
3411.58	1340
3412.36	1332
3413.14	1308
3413.93	1346
3414.71	1304
3415.5	1336
3416.28	1288
3417.06	1364
3417.85	1306
3418.63	1306
3419.41	1316
3420.2	1290
3420.98	1392
3421.76	1352
3422.54	1304
3423.33	1286
3424.11	1338
3424.89	1334
3425.67	1308
3426.46	1276
3427.24	1328
3428.02	1314
3428.8	1284
3429.58	1326
3430.36	1298
3431.15	1286
3431.93	1268
3432.71	1306
3433.49	1254
3434.27	1292
3435.05	1302
3435.83	1298
3436.61	1276
3437.4	1256
3438.18	1294
3438.96	1312
3439.74	1308
3440.52	1296
3441.3	1270
3442.08	1244
3442.86	1292
3443.64	1288
3444.42	1316
3445.2	1304
3445.98	1284
3446.76	1310
3447.53	1266
3448.31	1226
3449.09	1318
3449.87	1250
3450.65	1270
3451.43	1286
3452.21	1304
3452.99	1310
3453.77	1272
3454.54	1304
3455.32	1272
3456.1	1266
3456.88	1280
3457.66	1254
3458.43	1276
3459.21	1254
3459.99	1274
3460.77	1270
3461.54	1228
3462.32	1276
3463.1	1248
3463.88	1286
3464.65	1276
3465.43	1260
3466.21	1262
3466.98	1210
3467.76	1292
3468.53	1266
3469.31	1246
3470.09	1260
3470.86	1246
3471.64	1256
3472.42	1254
3473.19	1256
3473.97	1228
3474.74	1274
3475.52	1256
3476.29	1188
3477.07	1262
3477.84	1272
3478.62	1262
3479.39	1280
3480.17	1246
3480.94	1294
3481.72	1274
3482.49	1216
3483.27	1214
3484.04	1216
3484.82	1220
3485.59	1256
3486.36	1226
3487.14	1260
3487.91	1250
3488.68	1278
3489.46	1218
3490.23	1248
3491	1274
3491.78	1210
3492.55	1298
3493.32	1204
3494.1	1214
3494.87	1250
3495.64	1242
3496.42	1198
3497.19	1206
3497.96	1190
3498.73	1236
3499.5	1218
3500.28	1216
3501.05	1242
3501.82	1210
3502.59	1208
3503.36	1242
3504.14	1240
3504.91	1228
3505.68	1224
3506.45	1196
3507.22	1216
3507.99	1252
3508.76	1228
3509.53	1252
3510.3	1224
3511.07	1210
3511.84	1234
3512.61	1218
3513.38	1180
3514.16	1228
3514.92	1230
3515.7	1232
3516.46	1232
3517.23	1246
3518	1222
3518.77	1246
3519.54	1222
3520.31	1186
3521.08	1214
3521.85	1224
3522.62	1198
3523.39	1182
3524.16	1204
3524.93	1194
3525.69	1200
3526.46	1232
3527.23	1234
3528	1184
3528.77	1238
3529.53	1222
3530.3	1208
3531.07	1214
3531.84	1204
3532.61	1238
3533.37	1152
3534.14	1198
3534.91	1170
3535.68	1162
3536.44	1194
3537.21	1192
3537.98	1212
3538.74	1158
3539.51	1192
3540.28	1200
3541.04	1190
3541.81	1132
3542.58	1186
3543.34	1166
3544.11	1168
3544.87	1180
3545.64	1180
3546.4	1188
3547.17	1188
3547.94	1186
3548.7	1218
3549.47	1176
3550.23	1204
3551	1182
3551.76	1146
3552.53	1206
3553.29	1116
3554.06	1230
3554.82	1182
3555.59	1158
3556.35	1204
3557.11	1204
3557.88	1174
3558.64	1158
3559.41	1132
3560.17	1162
3560.93	1190
3561.7	1204
3562.46	1172
3563.22	1158
3563.99	1170
3564.75	1154
3565.51	1220
3566.28	1150
3567.04	1194
3567.8	1174
3568.56	1176
3569.33	1152
3570.09	1156
3570.85	1140
3571.61	1176
3572.38	1176
3573.14	1162
3573.9	1136
3574.66	1162
3575.42	1172
3576.19	1174
3576.95	1192
3577.71	1158
3578.47	1162
3579.23	1158
3579.99	1192
3580.75	1132
3581.51	1152
3582.28	1158
3583.04	1134
3583.8	1178
3584.56	1140
3585.32	1142
3586.08	1134
3586.84	1154
3587.6	1126
3588.36	1140
3589.12	1110
3589.88	1156
3590.64	1112
3591.4	1134
3592.16	1112
3592.92	1154
3593.67	1116
3594.43	1168
3595.19	1134
3595.95	1098
3596.71	1148
3597.47	1144
3598.23	1156
3598.99	1132
3599.75	1140
3600.5	1126
3601.26	1136
3602.02	1112
3602.78	1114
3603.54	1096
3604.29	1160
3605.05	1138
3605.81	1118
3606.57	1148
3607.32	1086
3608.08	1150
3608.84	1122
3609.59	1136
3610.35	1114
3611.11	1092
3611.87	1134
3612.62	1142
3613.38	1108
3614.13	1116
3614.89	1124
3615.65	1166
3616.4	1112
3617.16	1088
3617.92	1066
3618.67	1120
3619.43	1118
3620.18	1072
3620.94	1110
3621.69	1114
3622.45	1132
3623.2	1110
3623.96	1098
3624.71	1124
3625.47	1090
3626.22	1086
3626.98	1092
3627.73	1062
3628.49	1076
3629.24	1082
3630	1122
3630.75	1120
3631.5	1100
3632.26	1084
3633.01	1044
3633.77	1110
3634.52	1122
3635.27	1092
3636.03	1088
3636.78	1092
3637.53	1090
3638.29	1072
3639.04	1078
3639.79	1120
3640.55	1070
3641.3	1096
3642.05	1114
3642.8	1080
3643.56	1080
3644.31	1078
3645.06	1058
3645.81	1098
3646.56	1044
3647.32	1074
3648.07	1084
3648.82	1100
3649.57	1078
3650.32	1140
3651.07	1096
3651.83	1076
3652.58	1068
3653.33	1084
3654.08	1106
3654.83	1082
3655.58	1086
3656.33	1094
3657.08	1048
3657.83	1126
3658.58	1038
3659.33	1088
3660.08	1100
3660.83	1078
3661.58	1076
3662.33	1068
3663.08	1064
3663.83	1030
3664.58	1110
3665.33	1050
3666.08	1112
3666.83	1092
3667.58	1062
3668.33	1096
3669.08	1076
3669.83	1086
3670.57	1064
3671.32	1042
3672.07	1046
3672.82	1094
3673.57	1100
3674.32	1050
3675.07	1038
3675.81	1070
3676.56	1054
3677.31	1056
3678.06	1052
3678.8	1028
3679.55	1072
3680.3	1052
3681.05	1074
3681.79	1072
3682.54	992
3683.29	1070
3684.04	1032
3684.78	1060
3685.53	1078
3686.28	1082
3687.02	1048
3687.77	1002
3688.51	1068
3689.26	1030
3690.01	1068
3690.75	1044
3691.5	1042
3692.24	1024
3692.99	1040
3693.74	1020
3694.48	1040
3695.23	1002
3695.97	1070
3696.72	1074
3697.46	1032
3698.21	1026
3698.95	1044
3699.7	1050
3700.44	1008
3701.19	1054
3701.93	1044
3702.68	1034
3703.42	1024
3704.16	1010
3704.91	1052
3705.65	1040
3706.4	1042
3707.14	1050
3707.88	1040
3708.63	1010
3709.37	1016
3710.11	1004
3710.86	1058
3711.6	990
3712.34	1002
3713.09	1058
3713.83	1004
3714.57	1030
3715.31	1054
3716.06	1032
3716.8	1022
3717.54	1050
3718.28	1034
3719.03	988
3719.77	1004
3720.51	1038
3721.25	992
3721.99	1026
3722.74	1022
3723.48	958
3724.22	1014
3724.96	990
3725.7	1040
3726.44	1044
3727.18	996
3727.92	1032
3728.67	1016
3729.41	972
3730.15	1022
3730.89	1040
3731.63	966
3732.37	1020
3733.11	1036
3733.85	958
3734.59	996
3735.33	994
3736.07	978
3736.81	1004
3737.55	1002
3738.29	1020
3739.03	1030
3739.77	998
3740.51	1016
3741.24	1022
3741.98	1020
3742.72	984
3743.46	990
3744.2	1016
3744.94	1024
3745.68	1008
3746.42	992
3747.15	988
3747.89	992
3748.63	1004
3749.37	980
3750.11	970
3750.84	956
3751.58	1024
3752.32	1004
3753.06	982
3753.79	1036
3754.53	988
3755.27	970
3756.01	974
3756.74	984
3757.48	1014
3758.22	996
3758.95	1008
3759.69	964
3760.43	998
3761.16	954
3761.9	988
3762.64	990
3763.37	996
3764.11	966.324
3764.84	993.47
3765.58	1009.14
3766.32	993.892
3767.05	1002.67
3767.79	981.216
3768.52	985.797
3769.26	956.449
3769.99	961.034
3770.73	991.904
3771.46	1001.89
3772.2	990.393
3772.93	992.339
3773.67	998.424
3774.4	964.861
3775.14	994.673
3775.87	952.003
3776.61	951.772
3777.34	986.884
3778.07	992.018
3778.81	990.276
3779.54	1001.15
3780.28	975.809
3781.01	1000.96
3781.74	986.248
3782.48	989.449
3783.21	965.563
3783.94	975.176
3784.68	995.981
3785.41	966.776
3786.14	951.095
3786.88	960.979
3787.61	975.353
3788.34	980.763
3789.07	951.446
3789.81	960.476
3790.54	984.394
3791.27	961.474
3792	964.58
3792.74	953.143
3793.47	953.083
3794.2	996.998
3794.93	957.766
3795.66	944.336
3796.4	966.784
3797.13	969.484
3797.86	964.316
3798.59	969.343
3799.32	969.102
3800.05	958.013
3800.78	978.529
3801.52	966.826
3802.25	940.181
3802.98	969.906
3803.71	959.941
3804.44	972.321
3805.17	939.632
3805.9	956.518
3806.63	942.214
3807.36	956.966
3808.09	956.455
3808.82	961.834
3809.55	947.69
3810.28	961.238
3811.01	957.743
3811.74	950.111
3812.47	940.605
3813.2	941.295
3813.93	943.787
3814.66	961.384
3815.38	958.419
3816.11	951.229
3816.84	948.543
3817.57	937.242
3818.3	942.387
3819.03	927.261
3819.76	939.436
3820.49	930.006
3821.21	942.646
3821.94	930.844
3822.67	919.684
3823.4	922.58
3824.13	948.977
3824.85	941.821
3825.58	940.335
3826.31	921.36
3827.04	912.465
3827.77	923.857
3828.49	937.226
3829.22	938.168
3829.95	934.849
3830.67	923.112
3831.4	944.595
3832.13	955.138
3832.85	939.56
3833.58	950.214
3834.31	937.33
3835.03	928.349
3835.76	913.207
3836.49	926.937
3837.21	919.128
3837.94	889.261
3838.52	932
3839.25	924
3839.98	960
3840.71	970
3841.44	944
3842.17	930
3842.9	920
3843.63	914
3844.36	924
3845.09	900
3845.82	950
3846.55	950
3847.28	920
3848	916
3848.73	906
3849.46	922
3850.19	910
3850.92	900
3851.65	900
3852.38	936
3853.1	924
3853.83	936
3854.56	918
3855.29	930
3856.02	908
3856.74	908
3857.47	880
3858.2	872
3858.93	892
3859.65	968
3860.38	920
3861.11	920
3861.84	898
3862.56	896
3863.29	900
3864.02	890
3864.74	920
3865.47	908
3866.2	908
3866.92	926
3867.65	930
3868.38	900
3869.1	900
3869.83	904
3870.55	906
3871.28	926
3872.01	918
3872.73	880
3873.46	860
3874.18	900
3874.91	912
3875.63	878
3876.36	866
3877.08	900
3877.81	912
3878.53	884
3879.26	902
3879.98	912
3880.71	906
3881.43	894
3882.16	916
3882.88	932
3883.6	880
3884.33	884
3885.05	910
3885.78	928
3886.5	898
3887.22	892
3887.95	888
3888.67	876
3889.4	890
3890.12	908
3890.84	892
3891.57	888
3892.29	926
3893.01	938
3893.73	876
3894.46	920
3895.18	856
3895.9	874
3896.63	870
3897.35	892
3898.07	862
3898.79	882
3899.51	882
3900.24	912
3900.96	896
3901.68	894
3902.4	866
3903.12	884
3903.84	880
3904.57	904
3905.29	884
3906.01	880
3906.73	872
3907.45	922
3908.17	892
3908.89	872
3909.61	876
3910.33	846
3911.06	880
3911.78	852
3912.5	860
3913.22	912
3913.94	874
3914.66	878
3915.38	882
3916.1	878
3916.82	890
3917.54	850
3918.26	882
3918.98	874
3919.69	866
3920.41	870
3921.13	878
3921.85	872
3922.57	894
3923.29	862
3924.01	898
3924.73	896
3925.45	880
3926.17	848
3926.88	840
3927.6	874
3928.32	878
3929.04	876
3929.76	882
3930.47	852
3931.19	836
3931.91	856
3932.63	888
3933.35	862
3934.06	864
3934.78	864
3935.5	884
3936.22	856
3936.93	862
3937.65	866
3938.37	852
3939.08	858
3939.8	874
3940.52	904
3941.23	850
3941.95	832
3942.67	874
3943.38	872
3944.1	860
3944.82	870
3945.53	832
3946.25	870
3946.96	858
3947.68	842
3948.4	848
3949.11	858
3949.83	850
3950.54	838
3951.26	866
3951.97	842
3952.69	862
3953.4	856
3954.12	840
3954.83	860
3955.55	876
3956.26	892
3956.98	856
3957.69	824
3958.4	860
3959.12	860
3959.83	832
3960.55	834
3961.26	870
3961.97	840
3962.69	806
3963.4	828
3964.12	848
3964.83	822
3965.54	870
3966.26	840
3966.97	822
3967.68	834
3968.4	838
3969.11	864
3969.82	832
3970.53	832
3971.25	812
3971.96	824
3972.67	850
3973.38	834
3974.1	850
3974.81	812
3975.52	824
3976.23	818
3976.94	856
3977.66	890
3978.37	846
3979.08	814
3979.79	858
3980.5	814
3981.21	838
3981.92	832
3982.64	806
3983.35	860
3984.06	822
3984.77	862
3985.48	822
3986.19	844
3986.9	816
3987.61	812
3988.32	808
3989.03	834
3989.74	852
3990.45	800
3991.16	808
3991.87	814
3992.58	830
3993.29	804
3994	820
3994.71	820
3995.42	838
3996.13	850
3996.84	818
3997.55	818
3998.26	834
3998.97	806
3999.67	826
