#Acq. time (s)=	10
#Accumulations=	1
#Range (cm-¹)=	200...4000
#Windows=	5
#Autofocus=	Off
#AutoExposure=	Off
#Spike filter=	Off
#Delay time (s)=	0
#Binning=	1
#Readout mode=	Signal
#DeNoise=	Off
#ICS correction=	Off
#Dark correction=	Off
#Inst. Process=	Off
#Instrument=	LabRAM HR Evol
#Detector=	Syncerity OE
#Objective=	x100_VIS
#Grating=	600 (500nm)
#ND Filter=	25%
#Laser=	633nm_Edge
#Hole=	100.021
#Range=	Visible
#Project=	Omar
#Sample=	03-07-23
#Site=	1
#Title=	OR
#Remark=	
#Date=	03.07.2023 13:29
#Acquired=	03.07.2023 13:29:37
200.404	3366
201.671	3360
202.938	3372
204.205	3368
205.472	3428
206.737	3368
208.003	3374
209.269	3408
210.535	3450
211.799	3340
213.064	3398
214.33	3346
215.595	3418
216.858	3392
218.122	3320
219.387	3374
220.649	3442
221.913	3460
223.177	3338
224.439	3464
225.703	3392
226.966	3428
228.227	3464
229.49	3398
230.752	3418
232.013	3502
233.275	3502
234.536	3352
235.798	3498
237.059	3432
238.319	3458
239.58	3498
240.839	3502
242.1	3540
243.361	3494
244.619	3400
245.879	3478
247.138	3576
248.398	3554
249.655	3566
250.915	3506
252.172	3554
253.431	3528
254.688	3578
255.947	3556
257.204	3456
258.462	3546
259.718	3492
260.976	3552
262.232	3592
263.487	3546
264.744	3516
266	3550
267.256	3496
268.511	3554
269.767	3564
271.022	3506
272.276	3542
273.532	3518
274.786	3440
276.04	3568
277.295	3518
278.548	3564
279.801	3554
281.055	3528
282.308	3618
283.561	3624
284.814	3610
286.066	3580
287.318	3614
288.572	3614
289.823	3666
291.074	3576
292.327	3644
293.578	3612
294.828	3590
296.079	3622
297.331	3688
298.581	3652
299.831	3700
301.08	3726
302.33	3720
303.581	3708
304.83	3754
306.079	3736
307.327	3642
308.576	3692
309.825	3736
311.073	3702
312.321	3696
313.569	3744
314.816	3732
316.064	3732
317.311	3696
318.558	3752
319.806	3738
321.052	3682
322.299	3760
323.545	3716
324.79	3750
326.036	4420
327.282	3814
328.527	3792
329.772	3736
331.017	3760
332.261	3752
333.506	3764
334.75	3702
335.994	3724
337.238	3730
338.482	3734
339.725	3788
340.968	3758
342.211	3762
343.454	3814
344.697	3818
345.939	3826
347.182	3824
348.424	3820
349.666	3872
350.907	3860
352.149	3806
353.39	3844
354.631	3754
355.87	3890
357.111	3774
358.352	3796
359.592	3858
360.832	3854
362.072	3872
363.311	3870
364.549	3950
365.789	3896
367.028	3826
368.267	3876
369.505	3812
370.742	3846
371.981	3820
373.219	3860
374.457	3920
375.694	3842
376.93	3908
378.168	3896
379.405	3830
380.642	3874
381.877	3854
383.113	3936
384.35	3884
385.584	3878
386.82	3872
388.056	3882
389.291	3822
390.525	3834
391.76	3892
392.995	3992
394.228	3936
395.463	3954
396.696	3900
397.93	4006
399.164	3948
400.396	3912
401.63	3936
402.863	3926
404.095	3964
405.328	3906
406.559	3944
407.791	4070
409.022	4060
410.254	3988
411.486	4030
412.717	3988
413.948	4036
415.178	4016
416.409	4136
417.639	4078
418.87	4110
420.099	4116
421.329	4092
422.558	4038
423.788	4116
425.016	4080
426.244	4102
427.474	4108
428.701	4172
429.93	4094
431.158	4084
432.386	4212
433.613	4184
434.84	4180
436.068	4144
437.294	4198
438.522	4154
439.748	4104
440.974	4172
442.201	4218
443.426	4146
444.651	4204
445.878	4242
447.103	4152
448.327	4186
449.553	4156
450.777	4208
452.001	4214
453.225	4172
454.45	4210
455.674	4188
456.897	4246
458.121	4296
459.344	4172
460.567	4184
461.789	4262
463.012	4232
464.235	4140
465.457	4184
466.679	4162
467.9	4174
469.122	4092
470.344	4206
471.565	4210
472.786	4262
474.006	4158
475.227	4186
476.447	4190
477.668	4252
478.888	4306
480.107	4270
481.327	4280
482.546	4220
483.765	4338
484.984	4412
486.202	4334
487.421	4356
488.639	4302
489.857	4340
491.075	4254
492.292	4252
493.51	4316
494.727	4338
495.944	4328
497.161	4392
498.377	4332
499.594	4322
500.81	4362
502.026	4316
503.242	4382
504.458	4384
505.673	4286
506.888	4322
508.104	4356
509.318	4296
510.533	4324
511.748	4308
512.962	4418
514.176	4338
515.39	4332
516.602	4396
517.816	4378
519.029	4364
520.242	4360
521.455	4306
522.668	4362
523.881	4406
525.092	4352
526.304	4372
527.516	4348
528.728	4382
529.939	4324
531.149	4402
532.361	4412
533.572	4350
534.783	4344
535.992	4404
537.202	4400
538.413	4342
539.623	4346
540.831	4354
542.041	4376
543.25	4388
544.458	4390
545.667	4412
546.876	4284
548.084	4442
549.292	4314
550.501	4354
551.707	4340
552.915	4390
554.123	4466
555.329	4388
556.537	4426
557.743	4456
558.95	4422
560.156	4390
561.362	4440
562.568	4474
563.773	4422
564.979	4434
566.184	4436
567.389	4318
568.595	4384
569.799	4384
571.004	4426
572.207	4442
573.412	4424
574.615	4460
575.82	4416
577.022	4466
578.226	4502
579.429	4326
580.631	4480
581.834	4466
583.036	4470
584.239	4546
585.44	4466
586.643	4476
587.844	4456
589.045	4446
590.247	4526
591.448	4510
592.649	4522
593.849	4506
595.049	4434
596.25	4508
597.45	4496
598.649	4516
599.85	4476
601.049	4496
602.248	4548
603.448	4576
604.646	4510
605.844	4588
607.042	4628
608.241	4600
609.439	4600
610.637	4586
611.834	4538
613.032	4600
614.229	4606
615.426	4550
616.622	4586
617.819	4622
619.016	4584
620.212	4636
621.408	4762
622.603	4574
623.799	4658
624.994	4646
626.19	4650
627.385	4616
628.58	4590
629.774	4640
630.969	4738
632.163	4618
633.356	4722
634.55	4638
635.744	4782
636.938	4654
638.131	4698
639.324	4712
640.517	4730
641.71	4768
642.902	4696
644.094	4706
645.286	4726
646.478	4836
647.67	4716
648.861	4794
650.052	4756
651.243	4674
652.434	4720
653.625	4798
654.815	4798
656.006	4758
657.196	4774
658.384	4706
659.574	4724
660.764	4734
661.953	4816
663.142	4814
664.331	4744
665.52	4744
666.709	4770
667.897	4754
669.084	4836
670.272	4672
671.46	4846
672.648	4818
673.835	4796
675.021	4746
676.208	4730
677.395	4798
678.582	4868
679.768	4828
680.953	4796
682.14	4778
683.326	4778
684.512	4680
685.696	4696
686.881	4718
688.067	4798
689.252	4740
690.435	4826
691.62	4782
692.804	4702
693.987	4748
695.171	4690
696.355	4792
697.538	4822
698.721	4874
699.905	4796
701.087	4788
702.27	4794
703.451	4880
704.634	4830
705.816	4782
706.997	4838
708.179	4788
709.36	4766
710.542	4780
711.722	4840
712.903	4928
714.083	4852
715.264	4834
716.445	4890
717.624	4880
718.805	4860
719.984	4814
721.162	4812
722.342	4870
723.52	4914
724.7	4990
725.878	4874
727.057	4858
728.235	4888
729.414	4930
730.591	4834
731.768	4882
732.946	4914
734.123	4986
735.301	4912
736.477	4882
737.653	4822
738.83	4908
740.006	4978
741.182	5002
742.358	4910
743.534	4936
744.709	4902
745.885	4934
747.06	4948
748.234	4846
749.41	4964
750.584	5030
751.758	4904
752.931	4896
754.106	5002
755.28	4956
756.453	4912
757.626	4972
758.8	4962
759.973	4968
761.145	4924
762.318	4964
763.49	4914
764.662	4900
765.835	4938
767.006	4902
768.178	4946
769.349	4916
770.52	4922
771.691	4898
772.861	4998
774.033	4928
775.203	4910
776.373	4858
777.543	4966
778.713	4942
779.883	4978
781.052	4974
782.221	4938
783.39	4958
784.559	5006
785.727	4940
786.896	4982
788.064	4970
789.232	4848
790.4	4914
791.568	4988
792.735	4990
793.903	4970
795.07	4982
796.237	5058
797.404	4966
798.57	4970
799.737	5000
800.903	4982
802.068	5012
803.234	4994
804.399	5040
805.565	5020
806.73	5124
807.896	4998
809.061	4984
810.224	4958
811.389	5150
812.553	5042
813.717	5010
814.881	5074
816.045	5102
817.208	5156
818.371	5106
819.535	5064
820.698	5072
821.859	5094
823.022	5164
824.185	5018
825.347	5096
826.508	5098
827.67	5078
828.832	5090
829.993	5082
831.154	5158
832.316	5130
833.476	5100
834.637	5106
835.797	5038
836.957	5126
838.117	5102
839.278	5072
840.436	5168
841.596	5186
842.755	5112
843.914	5214
845.074	5196
846.232	5108
847.391	5140
848.548	5290
849.707	5234
850.864	5236
852.022	5144
853.179	5114
854.337	5160
855.493	5156
856.651	5152
857.807	5250
858.964	5232
860.12	5206
861.277	5232
862.432	5314
863.589	5276
864.744	5184
865.9	5254
867.055	5228
868.209	5238
869.365	5220
870.519	5152
871.674	5272
872.828	5290
873.982	5244
875.136	5168
876.29	5272
877.443	5204
878.597	5296
879.75	5180
880.902	5246
882.056	5238
883.208	5212
884.36	5244
885.512	5266
886.665	5188
887.816	5262
888.967	5154
890.118	5222
891.271	5314
892.421	5254
893.572	5276
894.722	5270
895.874	5204
897.024	5172
898.174	5204
899.323	5058
900.473	5154
901.622	5076
902.771	5286
903.922	5100
905.07	5154
906.219	5182
907.367	5196
908.516	5180
909.664	5218
910.811	5190
911.959	5172
913.107	5214
914.254	5188
915.401	5138
916.55	5132
917.696	5240
918.843	5292
919.99	5232
921.136	5162
922.282	5292
923.428	5306
924.574	5196
925.719	5250
926.863	5124
928.009	5180
929.154	5194
930.299	5200
931.443	5280
932.588	5338
933.732	5308
934.876	5252
936.02	5234
937.164	5136
938.308	5274
939.45	5296
940.593	5196
941.736	5226
942.879	5312
944.022	5312
945.165	5262
946.306	5334
947.448	5400
948.59	5332
949.732	5334
950.874	5276
952.014	5360
953.155	5308
954.296	5336
955.437	5290
956.577	5250
957.718	5426
958.858	5354
959.997	5352
961.137	5382
962.277	5314
963.416	5392
964.555	5286
965.695	5316
966.833	5512
967.972	5406
969.111	5332
970.248	5364
971.387	5374
972.524	5416
973.662	5402
974.8	5330
975.936	5426
977.074	5392
978.21	5408
979.348	5418
980.483	5390
981.62	5358
982.757	5462
983.893	5280
985.029	5304
986.164	5358
987.299	5374
988.435	5422
989.569	5366
990.705	5336
991.839	5356
992.974	5364
994.108	5312
995.243	5344
996.376	5370
997.509	5396
998.644	5324
999.777	5354
1000.91	5286
1002.04	5428
1003.18	5364
1004.31	5386
1005.44	5424
1006.57	5440
1007.71	5442
1008.84	5360
1009.97	5456
1011.1	5442
1012.23	5488
1013.36	5394
1014.49	5426
1015.63	5398
1016.76	5438
1017.89	5388
1019.02	5378
1020.15	5498
1021.28	5374
1022.41	5422
1023.54	5420
1024.66	5492
1025.79	5478
1026.92	5418
1028.05	5558
1029.18	5514
1030.31	5410
1031.44	5484
1032.56	5468
1033.69	5538
1034.82	5476
1035.95	5464
1037.08	5564
1038.2	5572
1039.33	5502
1040.46	5414
1041.58	5480
1042.71	5494
1043.83	5482
1044.96	5530
1046.09	5522
1047.21	5606
1048.34	5560
1049.46	5688
1050.59	5616
1051.71	5584
1052.84	5594
1053.96	5612
1055.09	5620
1056.21	5498
1057.33	5518
1058.46	5586
1059.58	5654
1060.71	5670
1061.83	5508
1062.95	5662
1064.07	5584
1065.2	5528
1066.32	5496
1067.44	5648
1068.56	5628
1069.69	5536
1070.81	5506
1071.93	5592
1073.05	5634
1074.17	5640
1075.29	5602
1076.41	5630
1077.54	5576
1078.66	5502
1079.78	5580
1080.9	5546
1082.02	5608
1083.14	5556
1084.25	5612
1085.37	5486
1086.49	5538
1087.61	5556
1088.73	5542
1089.85	5554
1090.97	5494
1092.09	5584
1093.21	5596
1094.32	5576
1095.44	5488
1096.56	5486
1097.68	5544
1098.79	5528
1099.91	5592
1101.03	5530
1102.14	5544
1103.26	5538
1104.38	5576
1105.49	5466
1106.61	5558
1107.72	5476
1108.84	5448
1109.96	5512
1111.07	5460
1112.19	5514
1113.3	5494
1114.42	5500
1115.53	5450
1116.64	5510
1117.76	5610
1118.87	5554
1119.99	5458
1121.1	5534
1122.21	5568
1123.33	5518
1124.44	5548
1125.55	5624
1126.66	5518
1127.78	5516
1128.89	5558
1130	5532
1131.11	5538
1132.23	5542
1133.34	5512
1134.45	5584
1135.56	5566
1136.67	5530
1137.78	5684
1138.89	5598
1140	5612
1141.11	5636
1142.22	5598
1143.33	5664
1144.44	5602
1145.55	5600
1146.66	5706
1147.77	5608
1148.88	5524
1149.99	5740
1151.1	5730
1152.21	5604
1153.32	5548
1154.42	5646
1155.53	5596
1156.64	5688
1157.75	5762
1158.85	5748
1159.96	5680
1161.07	5754
1162.17	5678
1163.28	5606
1164.39	5712
1165.49	5754
1166.6	5726
1167.71	5844
1168.81	5754
1169.92	5752
1171.02	5706
1172.13	5644
1173.23	5704
1174.34	5702
1175.44	5778
1176.55	5742
1177.65	5712
1178.76	5804
1179.86	5676
1180.97	5650
1182.07	5596
1183.17	5756
1184.28	5654
1185.38	5552
1186.48	5704
1187.58	5702
1188.69	5626
1189.79	5686
1190.89	5676
1191.99	5660
1193.1	5724
1194.2	5638
1195.3	5646
1196.4	5720
1197.5	5670
1198.6	5614
1199.7	5554
1200.8	5630
1201.9	5680
1203	5598
1204.1	5624
1205.2	5606
1206.3	5594
1207.4	5682
1208.5	5634
1209.6	5696
1210.7	5582
1211.8	5646
1212.9	5584
1214	5548
1215.1	5530
1216.19	5608
1217.29	5726
1218.39	5622
1219.49	5608
1220.58	5600
1221.68	5642
1222.78	5628
1223.88	5608
1224.97	5560
1226.07	5588
1227.17	5678
1228.26	5594
1229.36	5658
1230.45	5644
1231.55	5608
1232.65	5556
1233.74	5600
1234.84	5658
1235.93	5536
1237.02	5558
1238.12	5612
1239.21	5578
1240.31	5616
1241.4	5664
1242.5	5576
1243.59	5514
1244.68	5610
1245.78	5616
1246.87	5650
1247.96	5556
1249.06	5670
1250.15	5700
1251.24	5668
1252.33	5670
1253.43	5696
1254.52	5666
1255.61	5672
1256.7	5606
1257.79	5654
1258.88	5664
1259.98	5660
1261.07	5726
1262.16	5650
1263.25	5644
1264.34	5722
1265.43	5670
1266.52	5754
1267.61	5676
1268.7	5674
1269.79	5738
1270.88	5742
1271.96	5794
1273.05	5716
1274.14	5762
1275.23	5660
1276.32	5844
1277.41	5776
1278.5	5712
1279.58	5806
1280.67	5740.73
1281.76	5753.97
1282.85	5812.22
1283.93	5736.24
1285.02	5700.01
1286.11	5761.91
1287.19	5708.95
1288.28	5814.02
1289.37	5698.17
1290.45	5790.2
1291.54	5833.35
1292.63	5776.54
1293.71	5793.15
1294.8	5696.61
1295.88	5729.55
1296.97	5761.13
1298.05	5793.66
1299.14	5832.24
1300.22	5860.3
1301.31	5762.26
1302.39	5745.25
1303.47	5753.48
1304.56	5755.14
1305.64	5845.16
1306.72	5738.15
1307.81	5768.72
1308.89	5822.9
1309.97	5762.35
1311.06	5773.9
1312.14	5763.88
1313.22	5818.12
1314.3	5795.73
1315.39	5801.32
1316.47	5897.49
1317.55	5767.81
1318.63	5820.58
1319.71	5785.13
1320.79	5770.73
1321.88	5870.38
1322.96	5840.51
1324.04	5855.24
1325.12	5811.26
1326.2	5829.23
1327.28	5883.89
1328.36	5772.94
1329.44	5813.76
1330.52	5856.12
1331.6	5772.04
1332.68	5883.33
1333.76	5833.41
1334.84	5798.96
1335.91	5832.49
1336.99	5878.84
1338.07	5795.56
1339.15	5848.9
1340.23	5859.98
1341.31	5826.26
1342.38	5889.01
1343.46	5878.35
1344.54	5877.07
1345.62	5866.51
1346.69	5831.14
1347.77	5814.06
1348.85	5849.64
1349.92	5801.63
1351	5831.37
1352.08	5788.13
1353.15	5886.41
1354.23	5852.15
1355.3	5819.74
1356.38	5881.27
1357.46	5882.89
1358.53	5851.59
1359.6	5854.58
1360.68	5803.94
1361.75	5881.18
1362.83	5864.36
1363.9	5894.78
1364.98	5889.27
1366.05	5867.26
1367.13	5869.76
1368.2	5818.57
1369.27	5872.88
1370.35	5854.32
1371.42	5824.78
1372.49	5878.35
1373.56	5846.84
1374.64	5866.79
1375.71	5858.12
1376.78	5877.97
1377.85	5863.55
1378.93	5792.53
1380	5842.77
1381.07	5886.55
1382.14	5894.55
1383.21	5878.69
1384.28	5834.62
1385.35	5881.06
1386.43	5934.49
1387.5	5881.87
1388.57	5852.94
1389.64	5892.84
1390.13	5910
1391.2	5916
1392.28	5868
1393.35	5936
1394.43	5846
1395.5	5836
1396.57	5946
1397.65	5842
1398.72	5876
1399.8	5870
1400.87	5892
1401.94	5890
1403.02	5846
1404.09	5890
1405.17	5876
1406.24	5812
1407.31	5838
1408.38	5866
1409.46	5836
1410.53	5860
1411.6	5800
1412.67	5806
1413.74	5840
1414.82	5810
1415.89	5864
1416.96	5788
1418.03	5756
1419.1	5824
1420.17	5846
1421.24	5808
1422.31	5780
1423.38	5834
1424.45	5832
1425.52	5822
1426.59	5758
1427.66	5810
1428.73	5770
1429.8	5892
1430.87	5834
1431.94	5836
1433.01	5848
1434.08	5722
1435.14	5804
1436.21	5812
1437.28	5804
1438.35	5832
1439.42	5828
1440.48	5778
1441.55	5716
1442.62	5892
1443.68	5818
1444.75	5798
1445.82	5748
1446.89	5798
1447.95	5766
1449.02	5806
1450.08	5840
1451.15	5824
1452.22	5830
1453.28	5814
1454.35	5802
1455.41	5862
1456.48	5850
1457.54	5772
1458.61	5820
1459.67	5824
1460.73	5866
1461.8	5806
1462.86	5814
1463.93	5828
1464.99	5898
1466.05	5894
1467.12	5870
1468.18	5792
1469.24	5826
1470.31	5908
1471.37	5850
1472.43	5900
1473.49	5924
1474.56	5810
1475.62	5820
1476.68	5902
1477.74	5808
1478.8	5762
1479.86	5822
1480.93	5920
1481.99	5860
1483.05	5906
1484.11	5752
1485.17	5944
1486.23	5866
1487.29	5868
1488.35	5932
1489.41	5772
1490.47	5872
1491.53	5908
1492.59	5858
1493.65	5936
1494.71	5872
1495.76	5812
1496.82	5870
1497.88	5804
1498.94	5922
1500	5940
1501.06	5806
1502.11	5840
1503.17	5944
1504.23	5888
1505.29	5842
1506.34	5806
1507.4	5868
1508.46	5886
1509.51	5786
1510.57	5792
1511.63	5746
1512.68	5796
1513.74	5822
1514.8	5848
1515.85	5870
1516.91	5794
1517.96	5820
1519.02	5784
1520.07	5834
1521.13	5804
1522.18	5880
1523.24	5896
1524.29	5796
1525.34	5870
1526.4	5762
1527.45	5796
1528.51	5826
1529.56	5782
1530.61	5814
1531.67	5758
1532.72	5822
1533.77	5874
1534.82	5868
1535.88	5848
1536.93	5798
1537.98	5740
1539.03	5742
1540.08	5750
1541.14	5718
1542.19	5794
1543.24	5782
1544.29	5706
1545.34	5756
1546.39	5704
1547.44	5736
1548.49	5684
1549.54	5746
1550.59	5778
1551.64	5786
1552.69	5748
1553.74	5800
1554.79	5700
1555.84	5776
1556.89	5820
1557.94	5756
1558.99	5720
1560.04	5848
1561.09	5714
1562.14	5732
1563.18	5842
1564.23	5834
1565.28	5774
1566.33	5844
1567.37	5702
1568.42	5834
1569.47	5828
1570.52	5800
1571.56	5808
1572.61	5742
1573.66	5878
1574.7	5772
1575.75	5710
1576.79	5714
1577.84	5722
1578.89	5752
1579.93	5770
1580.98	5702
1582.02	5762
1583.07	5716
1584.11	5774
1585.16	5708
1586.2	5882
1587.25	5730
1588.29	5750
1589.34	5698
1590.38	5718
1591.42	5792
1592.47	5708
1593.51	5708
1594.55	5734
1595.6	5750
1596.64	5820
1597.68	5736
1598.72	5760
1599.77	5600
1600.81	5734
1601.85	5684
1602.89	5772
1603.94	5794
1604.98	5648
1606.02	5742
1607.06	5758
1608.1	5738
1609.14	5812
1610.18	5810
1611.22	5792
1612.26	5726
1613.3	5742
1614.34	5740
1615.38	5692
1616.42	5694
1617.46	5808
1618.5	5756
1619.54	5728
1620.58	5742
1621.62	5820
1622.66	5740
1623.7	5810
1624.74	5750
1625.78	5796
1626.81	5734
1627.85	5724
1628.89	5726
1629.93	5826
1630.97	5734
1632	5728
1633.04	5816
1634.08	5752
1635.11	5716
1636.15	5684
1637.19	5794
1638.22	5714
1639.26	5706
1640.3	5718
1641.33	5608
1642.37	5598
1643.4	5732
1644.44	5722
1645.47	5654
1646.51	5640
1647.55	5632
1648.58	5634
1649.61	5648
1650.65	5560
1651.68	5544
1652.72	5616
1653.75	5562
1654.79	5504
1655.82	5474
1656.85	5548
1657.89	5512
1658.92	5566
1659.95	5502
1660.98	5502
1662.02	5542
1663.05	5490
1664.08	5522
1665.12	5510
1666.15	5486
1667.18	5514
1668.21	5572
1669.24	5482
1670.27	5480
1671.3	5456
1672.34	5490
1673.37	5454
1674.4	5362
1675.43	5368
1676.46	5482
1677.49	5454
1678.52	5392
1679.55	5384
1680.58	5410
1681.61	5456
1682.64	5388
1683.67	5406
1684.7	5422
1685.73	5314
1686.75	5422
1687.78	5452
1688.81	5406
1689.84	5380
1690.87	5404
1691.9	5380
1692.93	5384
1693.95	5278
1694.98	5356
1696.01	5328
1697.03	5314
1698.06	5358
1699.09	5378
1700.12	5450
1701.14	5352
1702.17	5332
1703.2	5302
1704.22	5322
1705.25	5268
1706.27	5316
1707.3	5234
1708.32	5258
1709.35	5324
1710.37	5314
1711.4	5350
1712.42	5268
1713.45	5232
1714.47	5300
1715.5	5262
1716.52	5282
1717.55	5308
1718.57	5292
1719.59	5302
1720.62	5252
1721.64	5218
1722.67	5200
1723.69	5224
1724.71	5260
1725.73	5360
1726.76	5234
1727.78	5246
1728.8	5158
1729.82	5298
1730.84	5172
1731.87	5320
1732.89	5252
1733.91	5262
1734.93	5370
1735.95	5268
1736.97	5222
1737.99	5332
1739.01	5302
1740.04	5204
1741.06	5302
1742.08	5256
1743.1	5182
1744.12	5218
1745.14	5298
1746.16	5226
1747.18	5258
1748.19	5134
1749.21	5270
1750.23	5302
1751.25	5146
1752.27	5292
1753.29	5218
1754.31	5268
1755.33	5214
1756.34	5356
1757.36	5258
1758.38	5230
1759.4	5186
1760.41	5268
1761.43	5276
1762.45	5220
1763.47	5214
1764.48	5150
1765.5	5282
1766.51	5326
1767.53	5250
1768.55	5242
1769.56	5240
1770.58	5168
1771.6	5240
1772.61	5300
1773.63	5192
1774.64	5262
1775.66	5212
1776.67	5332
1777.69	5190
1778.7	5232
1779.71	5224
1780.73	5270
1781.74	5194
1782.76	5244
1783.77	5256
1784.78	5246
1785.8	5232
1786.81	5298
1787.82	5300
1788.84	5196
1789.85	5192
1790.86	5176
1791.88	5258
1792.89	5252
1793.9	5182
1794.91	5162
1795.92	5182
1796.94	5246
1797.95	5300
1798.96	5232
1799.97	5242
1800.98	5148
1801.99	5124
1803	5208
1804.01	5244
1805.02	5104
1806.03	5270
1807.04	5222
1808.05	5144
1809.06	5220
1810.07	5222
1811.08	5112
1812.09	5176
1813.1	5136
1814.11	5232
1815.12	5082
1816.13	5218
1817.14	5142
1818.14	5164
1819.15	5172
1820.16	5202
1821.17	5134
1822.18	5176
1823.18	5168
1824.19	5134
1825.2	5124
1826.21	5074
1827.21	5084
1828.22	5140
1829.23	5074
1830.23	5086
1831.24	5174
1832.25	5040
1833.25	5120
1834.26	5114
1835.27	5050
1836.27	5108
1837.28	5032
1838.28	5088
1839.29	5090
1840.29	4976
1841.3	5030
1842.3	5034
1843.31	5116
1844.31	5064
1845.31	5068
1846.32	5048
1847.32	5012
1848.33	5012
1849.33	5032
1850.33	5056
1851.34	5012
1852.34	5028
1853.34	5022
1854.35	5016
1855.35	5024
1856.35	4962
1857.35	5000
1858.36	5026
1859.36	4962
1860.36	5064
1861.36	4954
1862.36	4984
1863.36	4972
1864.36	5084
1865.37	5018
1866.37	5024
1867.37	4956
1868.37	4972
1869.37	5032
1870.37	4992
1871.37	4918
1872.37	4930
1873.37	5042
1874.37	4890
1875.37	4994
1876.37	4916
1877.37	4982
1878.37	4904
1879.37	4942
1880.36	5004
1881.36	5002
1882.36	5026
1883.36	5008
1884.36	4896
1885.36	5010
1886.35	4990
1887.35	5070
1888.35	4924
1889.35	4888
1890.34	4908
1891.34	5022
1892.34	4944
1893.34	4970
1894.33	4932
1895.33	4946
1896.33	4916
1897.32	4954
1898.32	4934
1899.31	4912
1900.31	4940
1901.3	4900
1902.3	5020
1903.3	4922
1904.29	4996
1905.29	4934
1906.28	4882
1907.27	4932
1908.27	4952
1909.26	4890
1910.26	4828
1911.25	4952
1912.25	4884
1913.24	4930
1914.23	4910
1915.23	4970
1916.22	4896
1917.21	4886
1918.21	4952
1919.2	4874
1920.19	4852
1921.18	4952
1922.18	4884
1923.17	5062
1924.16	4944
1925.15	4940
1926.14	4838
1927.14	4924
1928.13	4848
1929.12	4922
1930.11	4920
1931.1	4926
1932.09	5002
1933.08	4872
1934.07	4938
1935.06	4924
1936.05	4834
1937.04	4888
1938.03	4856
1939.02	4848
1940.01	4894
1941	4940
1941.99	4858
1942.98	4854
1943.97	4838
1944.96	4832
1945.95	4930
1946.94	4874
1947.92	4896
1948.91	4876
1949.9	4898
1950.89	4856
1951.88	4924
1952.86	4898
1953.85	4868
1954.84	4886
1955.83	4846
1956.81	4822
1957.8	4828
1958.79	4804
1959.77	4922
1960.76	4834
1961.75	4806
1962.73	4778
1963.72	4766
1964.7	4806
1965.69	4856
1966.68	4938
1967.66	4912
1968.65	4826
1969.63	4780
1970.62	4824
1971.6	4798
1972.59	4738
1973.57	4776
1974.55	4772
1975.54	4728
1976.52	4744
1977.51	4768
1978.49	4796
1979.47	4782
1980.46	4716
1981.44	4782
1982.42	4748
1983.41	4700
1984.39	4704
1985.37	4748
1986.35	4698
1987.34	4804
1988.32	4726
1989.3	4710
1990.28	4824
1991.27	4734
1992.25	4846
1993.23	4690
1994.21	4790
1995.19	4710
1996.17	4714
1997.15	4668
1998.13	4730
1999.11	4752
2000.09	4782
2001.07	4714
2002.05	4738
2003.03	4690
2004.01	4824
2004.99	4798
2005.97	4748
2006.95	4816
2007.93	4682
2008.91	4682
2009.89	4806
2010.87	4598
2011.85	4742
2012.82	4736
2013.8	4682
2014.78	4744
2015.76	4776
2016.74	4762
2017.72	4676
2018.69	4698
2019.67	4728
2020.65	4752
2021.62	4732
2022.6	4680
2023.58	4712
2024.55	4786
2025.53	4765
2026.51	4744
2027.48	4672
2028.46	4684
2029.44	4730
2030.41	4688
2031.39	4716
2032.36	4658
2033.34	4726
2034.31	4654
2035.29	4658
2036.26	4612
2037.24	4642
2038.21	4598
2039.19	4666
2040.16	4650
2041.14	4652
2042.11	4668
2043.08	4636
2044.06	4664
2045.03	4650
2046	4618
2046.98	4684
2047.95	4678
2048.92	4542
2049.9	4688
2050.87	4586
2051.84	4648
2052.81	4726
2053.79	4628
2054.76	4646
2055.73	4652
2056.7	4588
2057.67	4656
2058.64	4624
2059.61	4646
2060.59	4602
2061.56	4744
2062.53	4552
2063.5	4516
2064.47	4666
2065.44	4550
2066.41	4496
2067.38	4592
2068.35	4536
2069.32	4606
2070.29	4554
2071.26	4572
2072.23	4604
2073.2	4528
2074.17	4560
2075.14	4552
2076.1	4608
2077.07	4538
2078.04	4510
2079.01	4526
2079.98	4628
2080.95	4520
2081.91	4604
2082.88	4564
2083.85	4560
2084.82	4550
2085.78	4502
2086.75	4532
2087.72	4472
2088.68	4560
2089.65	4564
2090.62	4526
2091.58	4554
2092.55	4490
2093.52	4524
2094.48	4520
2095.45	4450
2096.41	4468
2097.38	4490
2098.35	4500
2099.31	4500
2100.28	4464
2101.24	4548
2102.21	4516
2103.17	4474
2104.14	4418
2105.1	4466
2106.06	4470
2107.03	4468
2107.99	4436
2108.96	4530
2109.92	4456
2110.88	4484
2111.85	4466
2112.81	4458
2113.77	4424
2114.73	4374
2115.7	4408
2116.66	4512
2117.62	4454
2118.58	4398
2119.55	4448
2120.51	4388
2121.47	4466
2122.43	4440
2123.39	4474
2124.36	4474
2125.32	4420
2126.28	4398
2127.24	4464
2128.2	4474
2129.16	4422
2130.12	4420
2131.08	4396
2132.04	4406
2133	4368
2133.96	4328
2134.92	4406
2135.88	4360
2136.84	4326
2137.8	4434
2138.76	4388
2139.72	4418
2140.68	4446
2141.64	4394
2142.59	4466
2143.55	4440
2144.51	4268
2145.47	4324
2146.43	4300
2147.39	4370
2148.34	4324
2149.3	4376
2150.26	4328
2151.22	4320
2152.17	4372
2153.13	4348
2154.09	4340
2155.04	4360
2156	4310
2156.96	4294
2157.91	4348
2158.87	4306
2159.82	4392
2160.78	4368
2161.74	4236
2162.69	4236
2163.65	4258
2164.6	4330
2165.56	4208
2166.51	4228
2167.47	4216
2168.42	4318
2169.38	4314
2170.33	4254
2171.29	4254
2172.24	4176
2173.19	4290
2174.15	4240
2175.1	4304
2176.05	4238
2177.01	4278
2177.96	4328
2178.91	4258
2179.87	4146
2180.82	4270
2181.77	4274
2182.73	4250
2183.68	4218
2184.63	4170
2185.58	4200
2186.53	4204
2187.49	4144
2188.44	4182
2189.39	4202
2190.34	4210
2191.29	4234
2192.24	4144
2193.19	4166
2194.14	4234
2195.09	4184
2196.05	4220
2197	4216
2197.95	4090
2198.9	4120
2199.85	4126
2200.8	4128
2201.75	4094
2202.7	4138
2203.64	4032
2204.59	4084
2205.54	4140
2206.49	4150
2207.44	4146
2208.39	4090
2209.34	4174
2210.29	4088
2211.23	4142
2212.18	4240
2213.13	4058
2214.08	4032
2215.03	4094
2215.97	4164
2216.92	4064
2217.87	4038
2218.81	4078
2219.76	4100.8
2220.71	4076.46
2221.66	4187.39
2222.6	4165.79
2223.55	4017.04
2224.49	4102.48
2225.44	4052.95
2226.39	4119.53
2227.33	4102.05
2228.28	4145.31
2229.22	4123.93
2230.17	4057.56
2231.11	4079.21
2232.06	4124.76
2233	4133.72
2233.95	4151.51
2234.89	4074.84
2235.84	4155.44
2236.78	4104.2
2237.73	4070.74
2238.67	4126.36
2239.61	4140.26
2240.56	4088.25
2241.5	4083.61
2242.45	4107.41
2243.39	4091.84
2244.33	4138.28
2245.28	4050.85
2246.22	4184.08
2247.16	4064.46
2248.1	4087.75
2249.05	4076.33
2249.99	4097.52
2250.93	4089.57
2251.87	4080.91
2252.81	4057.77
2253.76	4114.74
2254.7	4064.9
2255.64	4097.9
2256.58	4134.18
2257.52	4124.05
2258.46	4100.73
2259.4	4124.35
2260.34	4084.81
2261.28	4098.85
2262.23	4096.44
2263.17	4064.54
2264.11	4137.36
2265.05	4130.37
2265.99	4095.88
2266.93	4053
2267.87	4099.55
2268.8	4105.99
2269.74	4091.4
2270.68	4034.75
2271.62	4065.68
2272.56	4055.99
2273.5	4085.68
2274.44	4080.05
2275.38	4132.08
2276.32	4073.86
2277.25	4063.39
2278.19	4113.76
2279.13	4068.77
2280.07	4065.63
2281.01	4099.01
2281.94	3996.6
2282.88	4086.94
2283.82	4080.85
2284.76	4075.73
2285.69	4033.15
2286.63	4054.51
2287.57	4035.25
2288.5	4077.17
2289.44	4081.33
2290.37	4076.98
2291.31	4042.4
2292.25	4061.92
2293.18	4046.9
2294.12	4073.57
2295.05	4093.36
2295.99	4135.37
2296.92	4109.49
2297.86	4051.56
2298.79	4083.51
2299.73	4085.9
2300.66	4107.28
2301.6	4040.91
2302.53	4072.54
2303.47	4029.88
2304.4	4026.1
2305.34	4006.1
2306.27	4072.19
2307.2	4063.82
2308.14	4059.62
2309.07	4063.79
2310	4074.6
2310.94	4042.05
2311.87	4064.76
2312.8	4052.46
2313.74	4054.2
2313.98	4058
2314.92	4056
2315.86	4052
2316.79	4000
2317.73	4056
2318.67	4042
2319.6	3982
2320.54	3936
2321.48	4030
2322.41	3986
2323.35	4048
2324.29	4034
2325.22	4054
2326.16	4020
2327.09	4076
2328.03	4080
2328.96	4044
2329.9	4046
2330.83	4022
2331.77	4038
2332.7	4042
2333.64	4016
2334.57	4042
2335.51	4040
2336.44	3988
2337.38	4036
2338.31	3970
2339.24	3950
2340.18	4118
2341.11	4004
2342.04	4002
2342.98	4040
2343.91	3970
2344.84	4018
2345.78	4000
2346.71	3984
2347.64	3958
2348.57	4022
2349.51	3928
2350.44	4016
2351.37	3938
2352.3	3970
2353.24	3976
2354.17	4060
2355.1	3912
2356.03	3972
2356.96	4032
2357.89	3916
2358.82	3974
2359.75	3998
2360.68	4004
2361.62	4060
2362.55	3922
2363.48	3946
2364.41	3900
2365.34	3956
2366.27	3978
2367.2	3916
2368.13	3950
2369.05	3912
2369.98	4022
2370.91	3940
2371.84	3892
2372.77	4022
2373.7	4022
2374.63	3934
2375.56	3912
2376.49	3890
2377.41	3964
2378.34	3956
2379.27	3980
2380.2	3916
2381.12	3996
2382.05	3998
2382.98	3936
2383.91	4004
2384.83	3860
2385.76	3914
2386.69	3842
2387.61	3936
2388.54	3940
2389.47	3882
2390.39	3950
2391.32	3880
2392.25	3874
2393.17	3844
2394.1	3844
2395.02	3894
2395.95	3886
2396.87	3924
2397.8	3962
2398.72	3842
2399.65	3854
2400.57	3926
2401.5	3874
2402.42	3888
2403.35	3832
2404.27	3928
2405.2	3876
2406.12	3846
2407.04	3860
2407.97	3918
2408.89	3872
2409.81	3826
2410.74	3900
2411.66	3806
2412.58	3868
2413.51	3878
2414.43	3814
2415.35	3794
2416.27	3908
2417.2	3888
2418.12	3880
2419.04	3950
2419.96	3836
2420.88	3792
2421.81	3792
2422.73	3834
2423.65	3846
2424.57	3804
2425.49	3772
2426.41	3766
2427.33	3856
2428.25	3770
2429.17	3848
2430.1	3820
2431.02	3780
2431.94	3866
2432.85	3922
2433.77	3858
2434.7	3828
2435.61	3818
2436.53	3802
2437.45	3764
2438.37	3894
2439.29	3800
2440.21	3822
2441.13	3724
2442.05	3772
2442.97	3784
2443.88	3816
2444.8	3746
2445.72	3870
2446.64	3840
2447.56	3774
2448.47	3788
2449.39	3762
2450.31	3738
2451.23	3788
2452.14	3706
2453.06	3768
2453.98	3806
2454.89	3740
2455.81	3802
2456.73	3724
2457.64	3762
2458.56	3734
2459.48	3796
2460.39	3812
2461.31	3664
2462.22	3786
2463.14	3690
2464.05	3792
2464.97	3774
2465.88	3764
2466.8	3848
2467.71	3684
2468.63	3730
2469.54	3768
2470.46	3742
2471.37	3724
2472.29	3740
2473.2	3710
2474.11	3762
2475.03	3694
2475.94	3668
2476.86	3820
2477.77	3742
2478.68	3796
2479.59	3706
2480.51	3768
2481.42	3674
2482.33	3772
2483.25	3774
2484.16	3740
2485.07	3696
2485.98	3684
2486.9	3768
2487.81	3684
2488.72	3722
2489.63	3812
2490.54	3664
2491.45	3730
2492.36	3704
2493.28	3700
2494.19	3738
2495.1	3736
2496.01	3666
2496.92	3718
2497.83	3630
2498.74	3700
2499.65	3608
2500.56	3694
2501.47	3694
2502.38	3670
2503.29	3678
2504.2	3672
2505.11	3602
2506.02	3610
2506.93	3672
2507.83	3664
2508.74	3612
2509.65	3698
2510.56	3736
2511.47	3662
2512.38	3634
2513.29	3670
2514.19	3638
2515.1	3674
2516.01	3720
2516.92	3570
2517.82	3638
2518.73	3632
2519.64	3622
2520.55	3664
2521.45	3674
2522.36	3624
2523.27	3556
2524.17	3610
2525.08	3638
2525.99	3618
2526.89	3596
2527.8	3576
2528.7	3568
2529.61	3602
2530.51	3624
2531.42	3598
2532.33	3672
2533.23	3592
2534.14	3598
2535.04	3500
2535.95	3598
2536.85	3628
2537.75	3642
2538.66	3610
2539.56	3618
2540.47	3590
2541.37	3632
2542.28	3588
2543.18	3568
2544.08	3650
2544.99	3668
2545.89	3572
2546.79	3512
2547.7	3572
2548.6	3638
2549.5	3564
2550.4	3630
2551.31	3584
2552.21	3548
2553.11	3582
2554.01	3614
2554.92	3534
2555.82	3540
2556.72	3592
2557.62	3582
2558.52	3550
2559.42	3522
2560.32	3508
2561.23	3524
2562.13	3532
2563.03	3578
2563.93	3566
2564.83	3514
2565.73	3550
2566.63	3554
2567.53	3588
2568.43	3458
2569.33	3510
2570.23	3514
2571.13	3544
2572.03	3504
2572.93	3506
2573.83	3464
2574.73	3500
2575.63	3482
2576.52	3574
2577.42	3508
2578.32	3476
2579.22	3454
2580.12	3490
2581.02	3510
2581.91	3514
2582.81	3518
2583.71	3496
2584.61	3520
2585.51	3546
2586.4	3482
2587.3	3426
2588.2	3476
2589.09	3452
2589.99	3416
2590.89	3460
2591.78	3560
2592.68	3452
2593.58	3464
2594.47	3410
2595.37	3472
2596.26	3438
2597.16	3424
2598.06	3396
2598.95	3452
2599.85	3464
2600.74	3450
2601.64	3474
2602.53	3460
2603.43	3414
2604.32	3466
2605.22	3414
2606.11	3428
2607.01	3454
2607.9	3408
2608.79	3356
2609.69	3346
2610.58	3482
2611.48	3508
2612.37	3460
2613.26	3396
2614.16	3466
2615.05	3362
2615.94	3448
2616.84	3404
2617.73	3378
2618.62	3394
2619.51	3372
2620.41	3440
2621.3	3338
2622.19	3402
2623.08	3392
2623.97	3356
2624.87	3378
2625.76	3370
2626.65	3396
2627.54	3392
2628.43	3356
2629.32	3392
2630.21	3316
2631.1	3362
2631.99	3348
2632.89	3314
2633.78	3380
2634.67	3290
2635.56	3356
2636.45	3342
2637.34	3356
2638.23	3384
2639.12	3350
2640.01	3294
2640.9	3294
2641.78	3392
2642.67	3314
2643.56	3350
2644.45	3342
2645.34	3324
2646.23	3284
2647.12	3240
2648.01	3294
2648.89	3264
2649.78	3300
2650.67	3214
2651.56	3324
2652.45	3268
2653.33	3336
2654.22	3280
2655.11	3292
2656	3168
2656.88	3274
2657.77	3304
2658.66	3358
2659.54	3328
2660.43	3212
2661.32	3336
2662.2	3330
2663.09	3348
2663.97	3284
2664.86	3244
2665.75	3298
2666.63	3294
2667.52	3300
2668.4	3292
2669.29	3262
2670.17	3242
2671.06	3290
2671.94	3302
2672.83	3284
2673.71	3294
2674.6	3324
2675.48	3280
2676.37	3254
2677.25	3332
2678.13	3256
2679.02	3324
2679.9	3320
2680.78	3354
2681.67	3308
2682.55	3212
2683.43	3256
2684.32	3202
2685.2	3308
2686.08	3182
2686.97	3284
2687.85	3294
2688.73	3322
2689.61	3214
2690.5	3226
2691.38	3244
2692.26	3222
2693.14	3218
2694.02	3228
2694.9	3234
2695.79	3312
2696.67	3308
2697.55	3226
2698.43	3218
2699.31	3182
2700.19	3240
2701.07	3228
2701.95	3216
2702.83	3232
2703.71	3182
2704.59	3182
2705.47	3210
2706.35	3178
2707.23	3224
2708.11	3168
2708.99	3122
2709.87	3240
2710.75	3208
2711.63	3190
2712.51	3176
2713.39	3176
2714.27	3220
2715.14	3178
2716.02	3218
2716.9	3168
2717.78	3170
2718.66	3158
2719.54	3238
2720.41	3132
2721.29	3188
2722.17	3152
2723.05	3114
2723.92	3224
2724.8	3180
2725.68	3176
2726.55	3198
2727.43	3184
2728.31	3134
2729.18	3144
2730.06	3122
2730.94	3150
2731.81	3110
2732.69	3170
2733.57	3170
2734.44	3094
2735.32	3116
2736.19	3056
2737.07	3040
2737.94	3142
2738.82	3092
2739.69	3092
2740.57	3094
2741.44	3134
2742.32	3092
2743.19	3112
2744.07	3108
2744.94	3084
2745.81	3030
2746.69	3060
2747.56	3114
2748.44	3038
2749.31	3024
2750.18	3024
2751.06	3130
2751.93	3076
2752.8	3072
2753.68	3062
2754.55	3020
2755.42	3104
2756.29	3040
2757.17	2998
2758.04	3092
2758.91	3026
2759.78	3076
2760.65	3088
2761.53	3066
2762.4	3080
2763.27	3034
2764.14	3048
2765.01	3050
2765.88	3048
2766.76	3022
2767.63	2996
2768.5	3008
2769.37	3066
2770.24	3026
2771.11	2962
2771.98	2998
2772.85	3010
2773.72	3030
2774.59	3012
2775.46	3062
2776.33	2956
2777.2	2994
2778.07	3068
2778.94	3014
2779.81	2964
2780.67	2950
2781.54	2992
2782.41	2948
2783.28	2968
2784.15	3024
2785.02	2984
2785.89	3020
2786.75	3052
2787.62	2974
2788.49	3038
2789.36	3000
2790.23	3032
2791.09	3014
2791.96	2958
2792.83	3024
2793.7	3004
2794.56	2976
2795.43	3002
2796.3	2954
2797.16	2948
2798.03	2920
2798.9	2930
2799.76	2984
2800.63	2914
2801.49	2972
2802.36	2968
2803.23	2914
2804.09	2986
2804.96	2996
2805.82	2976
2806.69	2958
2807.55	3000
2808.42	2906
2809.28	2988
2810.15	2952
2811.01	2942
2811.88	2964
2812.74	2970
2813.61	2930
2814.47	2888
2815.33	2930
2816.2	2932
2817.06	2906
2817.93	2966
2818.79	2926
2819.65	2940
2820.52	2940
2821.38	2842
2822.24	2936
2823.11	2840
2823.97	2932
2824.83	2964
2825.69	2886
2826.55	2878
2827.42	2938
2828.28	2928
2829.14	2952
2830	2902
2830.87	2824
2831.73	2892
2832.59	2878
2833.45	2856
2834.31	2850
2835.17	2874
2836.03	2886
2836.89	2922
2837.76	2818
2838.62	2850
2839.48	2840
2840.34	2856
2841.2	2824
2842.06	2838
2842.92	2788
2843.78	2922
2844.64	2796
2845.5	2856
2846.36	2790
2847.22	2872
2848.07	2846
2848.93	2788
2849.79	2888
2850.65	2780
2851.51	2848
2852.37	2814
2853.23	2846
2854.09	2802
2854.95	2772
2855.8	2820
2856.66	2776
2857.52	2814
2858.38	2812
2859.24	2858
2860.09	2762
2860.95	2788
2861.81	2782
2862.66	2818
2863.52	2778
2864.38	2766
2865.24	2780
2866.09	2808
2866.95	2780
2867.81	2770
2868.66	2840
2869.52	2808
2870.37	2775
2871.23	2742
2872.09	2714
2872.94	2676
2873.8	2756
2874.65	2784
2875.51	2822
2876.36	2808
2877.22	2760
2878.07	2754
2878.93	2748
2879.78	2788
2880.64	2716
2881.49	2734
2882.35	2750
2883.2	2674
2884.05	2776
2884.91	2726
2885.76	2692
2886.62	2706
2887.47	2728
2888.32	2688
2889.18	2710
2890.03	2646
2890.88	2670
2891.74	2710
2892.59	2718
2893.44	2702
2894.29	2658
2895.15	2756
2896	2696
2896.85	2770
2897.7	2740
2898.55	2748
2899.41	2722
2900.26	2644
2901.11	2696
2901.96	2722
2902.81	2744
2903.66	2692
2904.52	2686
2905.37	2694
2906.22	2732
2907.07	2654
2907.92	2628
2908.77	2714
2909.62	2632
2910.47	2632
2911.32	2682
2912.17	2634
2913.02	2652
2913.87	2638
2914.72	2732
2915.57	2684
2916.42	2664
2917.27	2718
2918.12	2670
2918.97	2706
2919.82	2704
2920.66	2666
2921.51	2632
2922.36	2722
2923.21	2676
2924.06	2672
2924.91	2728
2925.75	2700
2926.6	2672
2927.45	2666
2928.3	2638
2929.15	2656
2929.99	2670
2930.84	2664
2931.69	2604
2932.54	2644
2933.38	2608
2934.23	2642
2935.08	2612
2935.92	2632
2936.77	2626
2937.62	2646
2938.46	2580
2939.31	2630
2940.15	2648
2941	2654
2941.85	2628
2942.69	2640
2943.54	2592
2944.38	2646
2945.23	2674
2946.07	2600
2946.92	2638
2947.76	2596
2948.61	2586
2949.45	2616
2950.3	2666
2951.14	2634
2951.99	2518
2952.83	2574
2953.67	2606
2954.52	2572
2955.36	2598
2956.21	2592
2957.05	2578
2957.89	2614
2958.74	2606
2959.58	2562
2960.42	2550
2961.27	2570
2962.11	2568
2962.95	2518
2963.79	2556
2964.64	2560
2965.48	2554
2966.32	2578
2967.16	2570
2968.01	2512
2968.85	2526
2969.69	2588
2970.53	2498
2971.37	2552
2972.21	2564
2973.05	2514
2973.9	2518
2974.74	2476
2975.58	2608
2976.42	2488
2977.26	2560
2978.1	2472
2978.94	2540
2979.78	2520
2980.62	2510
2981.46	2500
2982.3	2486
2983.14	2548
2983.98	2520
2984.82	2496
2985.66	2484
2986.5	2470
2987.34	2412
2988.18	2482
2989.02	2466
2989.86	2492
2990.69	2448
2991.53	2476
2992.37	2458
2993.21	2464
2994.05	2494
2994.89	2496
2995.72	2434
2996.56	2476
2997.4	2428
2998.24	2458
2999.08	2500
2999.91	2492
3000.75	2444
3001.59	2450
3002.43	2446
3003.26	2414
3004.1	2426
3004.94	2464
3005.77	2412
3006.61	2432
3007.45	2396
3008.28	2446
3009.12	2418
3009.95	2406
3010.79	2370
3011.63	2392
3012.46	2410
3013.3	2364
3014.13	2410
3014.97	2406
3015.8	2416
3016.64	2448
3017.47	2362
3018.31	2422
3019.14	2380
3019.98	2410
3020.81	2386
3021.65	2380
3022.48	2410
3023.31	2424
3024.15	2380
3024.98	2408
3025.82	2336
3026.65	2364
3027.48	2326
3028.32	2374
3029.15	2362
3029.98	2378
3030.82	2302
3031.65	2384
3032.48	2308
3033.31	2370
3034.15	2392
3034.98	2362
3035.81	2404
3036.64	2380
3037.48	2420
3038.31	2346
3039.14	2368
3039.97	2370
3040.8	2331.66
3041.63	2357.03
3042.47	2392.64
3043.3	2348.3
3044.13	2311.65
3044.96	2360.1
3045.79	2321.33
3046.62	2336.5
3047.45	2384.24
3048.28	2338.05
3049.11	2295.2
3049.94	2324.22
3050.77	2347.42
3051.6	2309.86
3052.43	2346.06
3053.26	2310.62
3054.09	2272.58
3054.92	2326.21
3055.75	2267.68
3056.58	2315.11
3057.41	2339.98
3058.24	2268.08
3059.07	2280.42
3059.9	2283.73
3060.73	2302.9
3061.55	2283.13
3062.38	2278.37
3063.21	2307.66
3064.04	2316.15
3064.87	2231.04
3065.7	2252.22
3066.52	2279
3067.35	2321.32
3068.18	2244.91
3069.01	2273.15
3069.83	2221.37
3070.66	2212.53
3071.49	2237.91
3072.32	2244.03
3073.14	2246.89
3073.97	2259.97
3074.8	2246.35
3075.62	2255.08
3076.45	2224.12
3077.28	2195.22
3078.1	2224.03
3078.93	2227.86
3079.75	2233.78
3080.58	2224.49
3081.41	2228.53
3082.23	2233.21
3083.06	2201.65
3083.88	2189.92
3084.71	2200.27
3085.53	2235.97
3086.36	2207.64
3087.18	2221.49
3088.01	2191.68
3088.83	2218.14
3089.66	2219.43
3090.48	2201.93
3091.31	2173.06
3092.13	2155.17
3092.96	2160.21
3093.78	2180.38
3094.6	2174.46
3095.43	2167
3096.25	2180.46
3097.07	2173.03
3097.9	2152.18
3098.72	2153.62
3099.54	2144.75
3100.37	2133.16
3101.19	2141.79
3102.01	2138.07
3102.84	2130.56
3103.66	2099.84
3104.48	2094.35
3105.3	2121.27
3106.13	2121.71
3106.95	2083.18
3107.77	2100.17
3108.59	2063.55
3109.41	2062.34
3110.24	2098.49
3111.06	2101.9
3111.88	2103.02
3112.7	2102.52
3113.52	2122.26
3114.34	2092.65
3115.16	2077.35
3115.98	2065.58
3116.81	2115.93
3117.63	2099.76
3118.45	2049.68
3119.27	2061.32
3120.09	2069.75
3120.91	2053.97
3121.73	2049.16
3122.55	2052.21
3123.37	2051.51
3123.73	2050
3124.56	2034
3125.38	2056
3126.21	2054
3127.03	2072
3127.85	2008
3128.68	2066
3129.5	2002
3130.32	2018
3131.15	2032
3131.97	2022
3132.79	2028
3133.62	2046
3134.44	1996
3135.26	2012
3136.08	2010
3136.91	2000
3137.73	1976
3138.55	2014
3139.37	2056
3140.19	2004
3141.02	2026
3141.84	1984
3142.66	2016
3143.48	2026
3144.3	2036
3145.13	2044
3145.95	1968
3146.77	2036
3147.59	1990
3148.41	1984
3149.23	2024
3150.05	2058
3150.87	1932
3151.69	2028
3152.51	2004
3153.33	2018
3154.15	1940
3154.97	1948
3155.79	2028
3156.61	2006
3157.43	1974
3158.25	1970
3159.07	1944
3159.89	2002
3160.71	2000
3161.53	1976
3162.35	1914
3163.17	1984
3163.98	1960
3164.8	1978
3165.62	1926
3166.44	1920
3167.26	1948
3168.08	1870
3168.89	2008
3169.71	1940
3170.53	1944
3171.35	1952
3172.17	1992
3172.98	2026
3173.8	1954
3174.62	1966
3175.43	1940
3176.25	1912
3177.07	1878
3177.89	1914
3178.7	1982
3179.52	1946
3180.33	1928
3181.15	1890
3181.97	1936
3182.78	1968
3183.6	1974
3184.41	1948
3185.23	1958
3186.05	1962
3186.86	1914
3187.68	1946
3188.49	1900
3189.31	1938
3190.12	1934
3190.94	1932
3191.75	1978
3192.57	1908
3193.38	1950
3194.2	1958
3195.01	1962
3195.82	1886
3196.64	1934
3197.45	1896
3198.27	1964
3199.08	1882
3199.89	1920
3200.71	1898
3201.52	1878
3202.33	1936
3203.15	1946
3203.96	1924
3204.77	1938
3205.59	1952
3206.4	1916
3207.21	1914
3208.02	1900
3208.84	1828
3209.65	1894
3210.46	1886
3211.27	1852
3212.09	1934
3212.9	1882
3213.71	1904
3214.52	1862
3215.33	1894
3216.14	1908
3216.96	1918
3217.77	1984
3218.58	1914
3219.39	1872
3220.2	1862
3221.01	1886
3221.82	1896
3222.63	1880
3223.44	1862
3224.25	1908
3225.06	1854
3225.87	1902
3226.68	1852
3227.49	1862
3228.3	1848
3229.11	1860
3229.92	1860
3230.73	1834
3231.54	1890
3232.35	1870
3233.16	1876
3233.97	1860
3234.77	1884
3235.58	1834
3236.39	1818
3237.2	1840
3238.01	1798
3238.82	1880
3239.63	1836
3240.43	1854
3241.24	1822
3242.05	1874
3242.86	1896
3243.66	1790
3244.47	1858
3245.28	1766
3246.09	1816
3246.89	1860
3247.7	1826
3248.51	1856
3249.31	1868
3250.12	1856
3250.93	1816
3251.73	1804
3252.54	1798
3253.35	1834
3254.15	1856
3254.96	1786
3255.76	1794
3256.57	1864
3257.38	1794
3258.18	1776
3258.99	1806
3259.79	1826
3260.6	1780
3261.4	1810
3262.21	1782
3263.01	1778
3263.82	1812
3264.62	1804
3265.43	1798
3266.23	1790
3267.04	1788
3267.84	1794
3268.64	1786
3269.45	1788
3270.25	1732
3271.06	1826
3271.86	1764
3272.66	1790
3273.47	1764
3274.27	1822
3275.07	1712
3275.88	1774
3276.68	1762
3277.48	1728
3278.28	1800
3279.09	1762
3279.89	1770
3280.69	1848
3281.49	1752
3282.3	1772
3283.1	1794
3283.9	1740
3284.7	1750
3285.5	1710
3286.31	1736
3287.11	1768
3287.91	1752
3288.71	1726
3289.51	1706
3290.31	1778
3291.11	1724
3291.91	1744
3292.71	1758
3293.51	1784
3294.31	1758
3295.12	1764
3295.92	1752
3296.72	1720
3297.52	1730
3298.32	1748
3299.12	1788
3299.92	1688
3300.72	1742
3301.51	1706
3302.31	1726
3303.11	1752
3303.91	1734
3304.71	1768
3305.51	1696
3306.31	1682
3307.11	1672
3307.91	1742
3308.71	1712
3309.5	1756
3310.3	1672
3311.1	1712
3311.9	1744
3312.7	1704
3313.49	1722
3314.29	1696
3315.09	1704
3315.89	1706
3316.69	1700
3317.48	1672
3318.28	1672
3319.08	1746
3319.87	1690
3320.67	1704
3321.47	1714
3322.26	1658
3323.06	1690
3323.86	1698
3324.65	1694
3325.45	1666
3326.25	1678
3327.04	1694
3327.84	1674
3328.63	1724
3329.43	1680
3330.22	1716
3331.02	1690
3331.81	1678
3332.61	1748
3333.4	1708
3334.2	1700
3334.99	1704
3335.79	1658
3336.58	1750
3337.38	1674
3338.17	1684
3338.97	1692
3339.76	1734
3340.56	1684
3341.35	1672
3342.14	1620
3342.94	1674
3343.73	1650
3344.52	1688
3345.32	1678
3346.11	1662
3346.9	1696
3347.7	1676
3348.49	1714
3349.28	1662
3350.08	1604
3350.87	1616
3351.66	1618
3352.45	1686
3353.25	1672
3354.04	1650
3354.83	1644
3355.62	1688
3356.41	1636
3357.21	1618
3358	1672
3358.79	1636
3359.58	1660
3360.37	1688
3361.16	1638
3361.95	1590
3362.75	1662
3363.54	1594
3364.33	1658
3365.12	1678
3365.91	1640
3366.7	1606
3367.49	1652
3368.28	1640
3369.07	1624
3369.86	1604
3370.65	1644
3371.44	1636
3372.23	1646
3373.02	1616
3373.81	1602
3374.6	1628
3375.39	1644
3376.18	1580
3376.97	1632
3377.75	1614
3378.54	1626
3379.33	1618
3380.12	1604
3380.91	1578
3381.7	1604
3382.49	1618
3383.27	1582
3384.06	1590
3384.85	1586
3385.64	1644
3386.43	1662
3387.21	1608
3388	1588
3388.79	1612
3389.58	1604
3390.36	1568
3391.15	1578
3391.94	1586
3392.72	1544
3393.51	1614
3394.3	1572
3395.08	1626
3395.87	1602
3396.66	1606
3397.44	1596
3398.23	1522
3399.01	1570
3399.8	1604
3400.59	1582
3401.37	1574
3402.16	1628
3402.94	1596
3403.73	1550
3404.51	1606
3405.3	1562
3406.08	1538
3406.87	1604
3407.65	1520
3408.44	1554
3409.22	1560
3410.01	1592
3410.79	1536
3411.58	1542
3412.36	1514
3413.14	1578
3413.93	1532
3414.71	1518
3415.5	1532
3416.28	1566
3417.06	1556
3417.85	1580
3418.63	1598
3419.41	1586
3420.2	1590
3420.98	1566
3421.76	1524
3422.54	1516
3423.33	1576
3424.11	1580
3424.89	1558
3425.67	1526
3426.46	1516
3427.24	1556
3428.02	1516
3428.8	1484
3429.58	1580
3430.36	1512
3431.15	1562
3431.93	1506
3432.71	1510
3433.49	1540
3434.27	1520
3435.05	1562
3435.83	1504
3436.61	1506
3437.4	1544
3438.18	1506
3438.96	1516
3439.74	1482
3440.52	1466
3441.3	1498
3442.08	1528
3442.86	1518
3443.64	1490
3444.42	1526
3445.2	1534
3445.98	1508
3446.76	1484
3447.53	1504
3448.31	1490
3449.09	1504
3449.87	1556
3450.65	1502
3451.43	1460
3452.21	1510
3452.99	1474
3453.77	1508
3454.54	1496
3455.32	1508
3456.1	1516
3456.88	1484
3457.66	1506
3458.43	1504
3459.21	1470
3459.99	1512
3460.77	1504
3461.54	1526
3462.32	1470
3463.1	1492
3463.88	1514
3464.65	1436
3465.43	1508
3466.21	1460
3466.98	1472
3467.76	1490
3468.53	1434
3469.31	1466
3470.09	1454
3470.86	1526
3471.64	1462
3472.42	1488
3473.19	1466
3473.97	1456
3474.74	1492
3475.52	1418
3476.29	1456
3477.07	1454
3477.84	1462
3478.62	1472
3479.39	1462
3480.17	1492
3480.94	1460
3481.72	1482
3482.49	1434
3483.27	1480
3484.04	1474
3484.82	1442
3485.59	1440
3486.36	1448
3487.14	1490
3487.91	1430
3488.68	1462
3489.46	1430
3490.23	1484
3491	1390
3491.78	1412
3492.55	1488
3493.32	1416
3494.1	1434
3494.87	1452
3495.64	1404
3496.42	1416
3497.19	1450
3497.96	1478
3498.73	1422
3499.5	1430
3500.28	1418
3501.05	1410
3501.82	1458
3502.59	1394
3503.36	1412
3504.14	1430
3504.91	1460
3505.68	1458
3506.45	1452
3507.22	1406
3507.99	1434
3508.76	1402
3509.53	1444
3510.3	1398
3511.07	1488
3511.84	1412
3512.61	1404
3513.38	1432
3514.16	1438
3514.92	1464
3515.7	1448
3516.46	1398
3517.23	1394
3518	1386
3518.77	1450
3519.54	1398
3520.31	1392
3521.08	1356
3521.85	1402
3522.62	1380
3523.39	1410
3524.16	1400
3524.93	1472
3525.69	1376
3526.46	1404
3527.23	1400
3528	1410
3528.77	1424
3529.53	1418
3530.3	1406
3531.07	1388
3531.84	1388
3532.61	1418
3533.37	1426
3534.14	1392
3534.91	1370
3535.68	1380
3536.44	1366
3537.21	1412
3537.98	1424
3538.74	1404
3539.51	1388
3540.28	1370
3541.04	1384
3541.81	1444
3542.58	1450
3543.34	1400
3544.11	1384
3544.87	1344
3545.64	1374
3546.4	1398
3547.17	1420
3547.94	1352
3548.7	1378
3549.47	1368
3550.23	1372
3551	1368
3551.76	1344
3552.53	1416
3553.29	1354
3554.06	1370
3554.82	1390
3555.59	1358
3556.35	1352
3557.11	1380
3557.88	1410
3558.64	1352
3559.41	1370
3560.17	1410
3560.93	1336
3561.7	1348
3562.46	1372
3563.22	1376
3563.99	1334
3564.75	1352
3565.51	1386
3566.28	1336
3567.04	1364
3567.8	1378
3568.56	1350
3569.33	1392
3570.09	1308
3570.85	1340
3571.61	1364
3572.38	1372
3573.14	1336
3573.9	1330
3574.66	1328
3575.42	1386
3576.19	1350
3576.95	1322
3577.71	1348
3578.47	1324
3579.23	1342
3579.99	1322
3580.75	1340
3581.51	1360
3582.28	1312
3583.04	1354
3583.8	1350
3584.56	1298
3585.32	1340
3586.08	1332
3586.84	1322
3587.6	1362
3588.36	1316
3589.12	1336
3589.88	1358
3590.64	1308
3591.4	1322
3592.16	1306
3592.92	1332
3593.67	1276
3594.43	1314
3595.19	1264
3595.95	1334
3596.71	1352
3597.47	1338
3598.23	1316
3598.99	1316
3599.75	1314
3600.5	1298
3601.26	1298
3602.02	1340
3602.78	1294
3603.54	1296
3604.29	1300
3605.05	1256
3605.81	1338
3606.57	1272
3607.32	1322
3608.08	1306
3608.84	1306
3609.59	1288
3610.35	1294
3611.11	1272
3611.87	1302
3612.62	1260
3613.38	1306
3614.13	1289
3614.89	1272
3615.65	1290
3616.4	1292
3617.16	1304
3617.92	1290
3618.67	1294
3619.43	1300
3620.18	1230
3620.94	1276
3621.69	1278
3622.45	1252
3623.2	1280
3623.96	1242
3624.71	1270
3625.47	1248
3626.22	1266
3626.98	1292
3627.73	1244
3628.49	1250
3629.24	1286
3630	1238
3630.75	1320
3631.5	1268
3632.26	1252
3633.01	1278
3633.77	1266
3634.52	1288
3635.27	1252
3636.03	1258
3636.78	1248
3637.53	1306
3638.29	1274
3639.04	1270
3639.79	1270
3640.55	1240
3641.3	1248
3642.05	1252
3642.8	1280
3643.56	1240
3644.31	1256
3645.06	1258
3645.81	1236
3646.56	1266
3647.32	1226
3648.07	1234
3648.82	1234
3649.57	1258
3650.32	1240
3651.07	1224
3651.83	1242
3652.58	1232
3653.33	1244
3654.08	1268
3654.83	1276
3655.58	1250
3656.33	1256
3657.08	1210
3657.83	1290
3658.58	1220
3659.33	1240
3660.08	1230
3660.83	1248
3661.58	1248
3662.33	1234
3663.08	1242
3663.83	1242
3664.58	1284
3665.33	1216
3666.08	1236
3666.83	1230
3667.58	1220
3668.33	1214
3669.08	1212
3669.83	1246
3670.57	1222
3671.32	1242
3672.07	1234
3672.82	1238
3673.57	1228
3674.32	1228
3675.07	1240
3675.81	1242
3676.56	1198
3677.31	1192
3678.06	1220
3678.8	1200
3679.55	1206
3680.3	1254
3681.05	1204
3681.79	1242
3682.54	1202
3683.29	1182
3684.04	1226
3684.78	1210
3685.53	1166
3686.28	1226
3687.02	1182
3687.77	1206
3688.51	1216
3689.26	1262
3690.01	1220
3690.75	1186
3691.5	1226
3692.24	1216
3692.99	1194
3693.74	1182
3694.48	1178
3695.23	1234
3695.97	1222
3696.72	1178
3697.46	1208
3698.21	1190
3698.95	1182
3699.7	1174
3700.44	1234
3701.19	1210
3701.93	1196
3702.68	1178
3703.42	1220
3704.16	1182
3704.91	1202
3705.65	1218
3706.4	1236
3707.14	1176
3707.88	1170
3708.63	1202
3709.37	1200
3710.11	1218
3710.86	1224
3711.6	1212
3712.34	1204
3713.09	1176
3713.83	1208
3714.57	1224
3715.31	1218
3716.06	1156
3716.8	1190
3717.54	1206
3718.28	1164
3719.03	1158
3719.77	1176
3720.51	1188
3721.25	1182
3721.99	1200
3722.74	1152
3723.48	1182
3724.22	1190
3724.96	1170
3725.7	1140
3726.44	1142
3727.18	1162
3727.92	1190
3728.67	1186
3729.41	1166
3730.15	1188
3730.89	1160
3731.63	1170
3732.37	1176
3733.11	1186
3733.85	1148
3734.59	1180
3735.33	1194
3736.07	1160
3736.81	1160
3737.55	1152
3738.29	1154
3739.03	1174
3739.77	1098
3740.51	1160
3741.24	1156
3741.98	1202
3742.72	1146
3743.46	1186
3744.2	1128
3744.94	1148
3745.68	1126
3746.42	1162
3747.15	1168
3747.89	1132
3748.63	1138
3749.37	1162
3750.11	1166
3750.84	1132
3751.58	1150
3752.32	1144
3753.06	1136
3753.79	1156
3754.53	1148
3755.27	1096
3756.01	1146
3756.74	1142
3757.48	1140
3758.22	1128
3758.95	1126
3759.69	1170
3760.43	1108
3761.16	1118
3761.9	1158
3762.64	1090
3763.37	1096.16
3764.11	1169.23
3764.84	1144.24
3765.58	1156.29
3766.32	1081.23
3767.05	1146.95
3767.79	1158.55
3768.52	1106.77
3769.26	1145.18
3769.99	1125.81
3770.73	1109.04
3771.46	1172.12
3772.2	1151.56
3772.93	1076.71
3773.67	1100.3
3774.4	1134.68
3775.14	1139.07
3775.87	1083.46
3776.61	1095.93
3777.34	1107.35
3778.07	1125.63
3778.81	1150.2
3779.54	1122.4
3780.28	1122.61
3781.01	1121.79
3781.74	1143.63
3782.48	1146.03
3783.21	1101.62
3783.94	1153.36
3784.68	1115.1
3785.41	1114.99
3786.14	1130.29
3786.88	1147.14
3787.61	1110.16
3788.34	1088.77
3789.07	1100.41
3789.81	1111.69
3790.54	1094.64
3791.27	1132.02
3792	1132.89
3792.74	1130.14
3793.47	1103.86
3794.2	1099.96
3794.93	1111
3795.66	1115.08
3796.4	1129.01
3797.13	1116.32
3797.86	1130.77
3798.59	1101.07
3799.32	1087.61
3800.05	1100.85
3800.78	1106.99
3801.52	1121.98
3802.25	1103.94
3802.98	1078.12
3803.71	1092.18
3804.44	1099.05
3805.17	1111.04
3805.9	1079.83
3806.63	1075
3807.36	1076.59
3808.09	1109.48
3808.82	1094.74
3809.55	1111.79
3810.28	1091.58
3811.01	1084.56
3811.74	1077.29
3812.47	1091.72
3813.2	1077.29
3813.93	1084.41
3814.66	1084.21
3815.38	1096.06
3816.11	1097.92
3816.84	1096.17
3817.57	1095.47
3818.3	1088.13
3819.03	1090.35
3819.76	1065.18
3820.49	1058.4
3821.21	1077.4
3821.94	1098.2
3822.67	1091.52
3823.4	1081.86
3824.13	1070.38
3824.85	1065.2
3825.58	1094.5
3826.31	1093.35
3827.04	1070.81
3827.77	1056.29
3828.49	1068.62
3829.22	1085.29
3829.95	1062.59
3830.67	1072.97
3831.4	1061.75
3832.13	1051.26
3832.85	1058.06
3833.58	1042.61
3834.31	1036.68
3835.03	1052.62
3835.76	1097.03
3836.49	1072.94
3837.21	1033.81
3837.94	1080.73
3838.52	1068
3839.25	1054
3839.98	1102
3840.71	1056
3841.44	1032
3842.17	1060
3842.9	1076
3843.63	1080
3844.36	1042
3845.09	1032
3845.82	1088
3846.55	1046
3847.28	1052
3848	1088
3848.73	1016
3849.46	1042
3850.19	1058
3850.92	1042
3851.65	1074
3852.38	1060
3853.1	1048
3853.83	1028
3854.56	1032
3855.29	1066
3856.02	1038
3856.74	1056
3857.47	1032
3858.2	1042
3858.93	1050
3859.65	1028
3860.38	1040
3861.11	1008
3861.84	1044
3862.56	1046
3863.29	1020
3864.02	1030
3864.74	1038
3865.47	1008
3866.2	1076
3866.92	1042
3867.65	998
3868.38	1032
3869.1	1010
3869.83	1034
3870.55	1030
3871.28	1042
3872.01	1056
3872.73	1018
3873.46	1020
3874.18	1046
3874.91	1028
3875.63	1022
3876.36	1026
3877.08	1050
3877.81	1074
3878.53	1036
3879.26	1034
3879.98	1032
3880.71	1082
3881.43	998
3882.16	1040
3882.88	1028
3883.6	1012
3884.33	1042
3885.05	1022
3885.78	1058
3886.5	1054
3887.22	1010
3887.95	1002
3888.67	1022
3889.4	1018
3890.12	1036
3890.84	1042
3891.57	1010
3892.29	1028
3893.01	1046
3893.73	1044
3894.46	1008
3895.18	1028
3895.9	1046
3896.63	1016
3897.35	1044
3898.07	1022
3898.79	990
3899.51	1004
3900.24	1018
3900.96	1046
3901.68	1044
3902.4	960
3903.12	996
3903.84	1056
3904.57	986
3905.29	1016
3906.01	1024
3906.73	1024
3907.45	1026
3908.17	1046
3908.89	1012
3909.61	998
3910.33	996
3911.06	1004
3911.78	1028
3912.5	956
3913.22	980
3913.94	1016
3914.66	1032
3915.38	992
3916.1	1028
3916.82	974
3917.54	986
3918.26	1020
3918.98	996
3919.69	1020
3920.41	1034
3921.13	984
3921.85	1012
3922.57	1010
3923.29	976
3924.01	982
3924.73	988
3925.45	970
3926.17	1006
3926.88	988
3927.6	1002
3928.32	992
3929.04	984
3929.76	998
3930.47	966
3931.19	1008
3931.91	982
3932.63	992
3933.35	974
3934.06	996
3934.78	1042
3935.5	974
3936.22	996
3936.93	986
3937.65	974
3938.37	1012
3939.08	1022
3939.8	980
3940.52	1004
3941.23	978
3941.95	962
3942.67	962
3943.38	1008
3944.1	992
3944.82	964
3945.53	1020
3946.25	922
3946.96	962
3947.68	970
3948.4	980
3949.11	942
3949.83	968
3950.54	954
3951.26	974
3951.97	970
3952.69	986
3953.4	940
3954.12	970
3954.83	974
3955.55	1002
3956.26	946
3956.98	962
3957.69	988
3958.4	954
3959.12	990
3959.83	934
3960.55	936
3961.26	980
3961.97	964
3962.69	964
3963.4	930
3964.12	978
3964.83	970
3965.54	960
3966.26	946
3966.97	968
3967.68	946
3968.4	988
3969.11	982
3969.82	972
3970.53	960
3971.25	988
3971.96	964
3972.67	954
3973.38	972
3974.1	968
3974.81	978
3975.52	948
3976.23	932
3976.94	950
3977.66	938
3978.37	954
3979.08	962
3979.79	920
3980.5	952
3981.21	954
3981.92	936
3982.64	954
3983.35	954
3984.06	946
3984.77	944
3985.48	946
3986.19	914
3986.9	946
3987.61	950
3988.32	966
3989.03	942
3989.74	926
3990.45	964
3991.16	986
3991.87	958
3992.58	906
3993.29	958
3994	918
3994.71	916
3995.42	930
3996.13	928
3996.84	934
3997.55	914
3998.26	918
3998.97	936
3999.67	932
