#Acq. time (s)=	10
#Accumulations=	1
#Range (cm-¹)=	200...4000
#Windows=	5
#Autofocus=	Off
#AutoExposure=	Off
#Spike filter=	Off
#Delay time (s)=	0
#Binning=	1
#Readout mode=	Signal
#DeNoise=	Off
#ICS correction=	Off
#Dark correction=	Off
#Inst. Process=	Off
#Instrument=	LabRAM HR Evol
#Detector=	Syncerity OE
#Objective=	x100_VIS
#Grating=	600 (500nm)
#ND Filter=	25%
#Laser=	633nm_Edge
#Hole=	100.021
#Range=	Visible
#Project=	Omar
#Sample=	03-07-23
#Site=	1
#Title=	OR
#Remark=	
#Date=	03.07.2023 13:31
#Acquired=	03.07.2023 13:31:24
200.404	2908
201.671	2876
202.938	2912
204.205	2886
205.472	2946
206.737	2928
208.003	2930
209.269	2960
210.535	2960
211.799	2894
213.064	2940
214.33	2952
215.595	2938
216.858	2946
218.122	2980
219.387	2962
220.649	2960
221.913	2940
223.177	2982
224.439	2984
225.703	2954
226.966	2970
228.227	2938
229.49	2968
230.752	2998
232.013	3062
233.275	3000
234.536	2964
235.798	2944
237.059	3032
238.319	3126
239.58	3026
240.839	2972
242.1	3052
243.361	3042
244.619	3004
245.879	3022
247.138	2988
248.398	3034
249.655	3026
250.915	3068
252.172	2996
253.431	3028
254.688	3064
255.947	3076
257.204	3004
258.462	2988
259.718	3078
260.976	3108
262.232	2996
263.487	3058
264.744	3086
266	3046
267.256	3040
268.511	3042
269.767	3038
271.022	3056
272.276	3086
273.532	3018
274.786	3046
276.04	3062
277.295	3110
278.548	2968
279.801	3064
281.055	3100
282.308	3028
283.561	3116
284.814	3046
286.066	3070
287.318	3142
288.572	3136
289.823	3100
291.074	3114
292.327	3174
293.578	3096
294.828	3092
296.079	3142
297.331	3152
298.581	3182
299.831	3144
301.08	3178
302.33	3234
303.581	3232
304.83	3214
306.079	3188
307.327	3216
308.576	3230
309.825	3228
311.073	3242
312.321	3156
313.569	3138
314.816	3120
316.064	3258
317.311	3228
318.558	3172
319.806	3182
321.052	3194
322.299	3260
323.545	3192
324.79	3218
326.036	3158
327.282	3286
328.527	3296
329.772	3282
331.017	3322
332.261	3312
333.506	3212
334.75	3318
335.994	3278
337.238	3196
338.482	3250
339.725	3264
340.968	3230
342.211	3254
343.454	3304
344.697	3300
345.939	3246
347.182	3364
348.424	3348
349.666	3310
350.907	3252
352.149	3356
353.39	3320
354.631	3322
355.87	3262
357.111	3340
358.352	3318
359.592	3356
360.832	3324
362.072	3294
363.311	3356
364.549	3372
365.789	3306
367.028	3326
368.267	3392
369.505	3324
370.742	3386
371.981	3296
373.219	3260
374.457	3316
375.694	3322
376.93	3364
378.168	3370
379.405	3378
380.642	3328
381.877	3390
383.113	3338
384.35	3292
385.584	3368
386.82	3322
388.056	3362
389.291	3398
390.525	3328
391.76	3298
392.995	3400
394.228	3314
395.463	3360
396.696	3390
397.93	3326
399.164	3370
400.396	3364
401.63	3394
402.863	3364
404.095	3386
405.328	3468
406.559	3420
407.791	3352
409.022	3428
410.254	3454
411.486	3466
412.717	3450
413.948	3466
415.178	3400
416.409	3472
417.639	3498
418.87	3486
420.099	3536
421.329	3510
422.558	3488
423.788	3536
425.016	3526
426.244	3612
427.474	3504
428.701	3556
429.93	3574
431.158	3542
432.386	3652
433.613	3618
434.84	3612
436.068	3542
437.294	3652
438.522	3564
439.748	3578
440.974	3554
442.201	3614
443.426	3578
444.651	3552
445.878	3632
447.103	3600
448.327	3650
449.553	3598
450.777	3534
452.001	3554
453.225	3642
454.45	3630
455.674	3658
456.897	3534
458.121	3578
459.344	3608
460.567	3596
461.789	3652
463.012	3610
464.235	3618
465.457	3618
466.679	3606
467.9	3560
469.122	3642
470.344	3632
471.565	3628
472.786	3610
474.006	3606
475.227	3696
476.447	3710
477.668	3664
478.888	3702
480.107	3626
481.327	3614
482.546	3758
483.765	3634
484.984	3674
486.202	3716
487.421	3710
488.639	3680
489.857	3750
491.075	3704
492.292	3794
493.51	3754
494.727	3630
495.944	3726
497.161	3774
498.377	3806
499.594	3736
500.81	3674
502.026	3812
503.242	3736
504.458	3720
505.673	3752
506.888	3766
508.104	3730
509.318	3788
510.533	3756
511.748	3800
512.962	3696
514.176	3754
515.39	3854
516.602	3678
517.816	3748
519.029	3808
520.242	3718
521.455	3784
522.668	3716
523.881	3786
525.092	3792
526.304	3660
527.516	3724
528.728	3740
529.939	3728
531.149	3714
532.361	3754
533.572	3728
534.783	3738
535.992	3760
537.202	3764
538.413	3766
539.623	3742
540.831	3758
542.041	3780
543.25	3756
544.458	3720
545.667	3710
546.876	3796
548.084	3774
549.292	3752
550.501	3736
551.707	3782
552.915	3730
554.123	3804
555.329	3756
556.537	3730
557.743	3810
558.95	3780
560.156	3824
561.362	3770
562.568	3740
563.773	3754
564.979	3788
566.184	3796
567.389	3846
568.595	3770
569.799	3784
571.004	3802
572.207	3830
573.412	3772
574.615	3694
575.82	3864
577.022	3794
578.226	3824
579.429	3848
580.631	3826
581.834	3788
583.036	3864
584.239	3840
585.44	3856
586.643	3886
587.844	3850
589.045	3842
590.247	3824
591.448	3836
592.649	3866
593.849	3866
595.049	3788
596.25	3866
597.45	3942
598.649	3862
599.85	3876
601.049	3858
602.248	3992
603.448	3830
604.646	3946
605.844	3876
607.042	3902
608.241	3874
609.439	3896
610.637	3888
611.834	3916
613.032	3886
614.229	3936
615.426	3960
616.622	3952
617.819	3942
619.016	3962
620.212	3988
621.408	3978
622.603	3920
623.799	3982
624.994	4058
626.19	3982
627.385	3952
628.58	3968
629.774	4030
630.969	4006
632.163	3934
633.356	4020
634.55	4022
635.744	4018
636.938	3976
638.131	4094
639.324	4028
640.517	4046
641.71	4050
642.902	4082
644.094	4060
645.286	4042
646.478	4048
647.67	4016
648.861	4050
650.052	4066
651.243	4202
652.434	4144
653.625	4024
654.815	4120
656.006	4100
657.196	4040
658.384	4052
659.574	4122
660.764	3996
661.953	4082
663.142	3980
664.331	4080
665.52	4128
666.709	4110
667.897	4038
669.084	4096
670.272	4104
671.46	4070
672.648	4036
673.835	4052
675.021	4022
676.208	4114
677.395	4140
678.582	4062
679.768	4062
680.953	4154
682.14	4138
683.326	4012
684.512	4096
685.696	4084
686.881	4084
688.067	4122
689.252	4082
690.435	4084
691.62	4124
692.804	4132
693.987	4086
695.171	4080
696.355	4176
697.538	4082
698.721	4118
699.905	4058
701.087	4072
702.27	4118
703.451	4164
704.634	4092
705.816	4088
706.997	4190
708.179	3990
709.36	4116
710.542	4076
711.722	4092
712.903	4118
714.083	4074
715.264	4098
716.445	4118
717.624	4176
718.805	4146
719.984	4144
721.162	4174
722.342	4246
723.52	4188
724.7	4216
725.878	4194
727.057	4180
728.235	4158
729.414	4174
730.591	4200
731.768	4194
732.946	4122
734.123	4178
735.301	4238
736.477	4182
737.653	4192
738.83	4160
740.006	4242
741.182	4176
742.358	4212
743.534	4228
744.709	4242
745.885	4172
747.06	4196
748.234	4206
749.41	4248
750.584	4226
751.758	4174
752.931	4206
754.106	4312
755.28	4182
756.453	4180
757.626	4168
758.8	4204
759.973	4266
761.145	4220
762.318	4260
763.49	4130
764.662	4176
765.835	4158
767.006	4160
768.178	4188
769.349	4270
770.52	4162
771.691	4222
772.861	4276
774.033	4194
775.203	4144
776.373	4216
777.543	4188
778.713	4144
779.883	4272
781.052	4210
782.221	4192
783.39	4222
784.559	4234
785.727	4268
786.896	4232
788.064	4144
789.232	4252
790.4	4186
791.568	4256
792.735	4212
793.903	4290
795.07	4210
796.237	4248
797.404	4324
798.57	4300
799.737	4420
800.903	4234
802.068	4352
803.234	4302
804.399	4220
805.565	4274
806.73	4370
807.896	4248
809.061	4346
810.224	4282
811.389	4220
812.553	4250
813.717	4274
814.881	4292
816.045	4376
817.208	4292
818.371	4306
819.535	4300
820.698	4354
821.859	4336
823.022	4226
824.185	4350
825.347	4396
826.508	4352
827.67	4324
828.832	4354
829.993	4316
831.154	4446
832.316	4416
833.476	4380
834.637	4426
835.797	4364
836.957	4328
838.117	4420
839.278	4394
840.436	4350
841.596	4434
842.755	4432
843.914	4370
845.074	4468
846.232	4402
847.391	4452
848.548	4470
849.707	4470
850.864	4374
852.022	4432
853.179	4412
854.337	4402
855.493	4480
856.651	4382
857.807	4474
858.964	4424
860.12	4430
861.277	4472
862.432	4508
863.589	4486
864.744	4494
865.9	4474
867.055	4416
868.209	4460
869.365	4374
870.519	4506
871.674	4426
872.828	4472
873.982	4488
875.136	4498
876.29	4442
877.443	4510
878.597	4388
879.75	4398
880.902	4418
882.056	4466
883.208	4518
884.36	4434
885.512	4500
886.665	4402
887.816	4378
888.967	4506
890.118	4442
891.271	4420
892.421	4430
893.572	4434
894.722	4430
895.874	4438
897.024	4400
898.174	4534
899.323	4422
900.473	4444
901.622	4474
902.771	4388
903.922	4474
905.07	4546
906.219	4488
907.367	4422
908.516	4430
909.664	4406
910.811	4522
911.959	4538
913.107	4440
914.254	4368
915.401	4396
916.55	4416
917.696	4420
918.843	4458
919.99	4468
921.136	4410
922.282	4452
923.428	4424
924.574	4414
925.719	4420
926.863	4506
928.009	4426
929.154	4476
930.299	4540
931.443	4402
932.588	4468
933.732	4490
934.876	4480
936.02	4396
937.164	4510
938.308	4552
939.45	4464
940.593	4440
941.736	4528
942.879	4524
944.022	4488
945.165	4518
946.306	4532
947.448	4506
948.59	4454
949.732	4458
950.874	4562
952.014	4532
953.155	4550
954.296	4578
955.437	4544
956.577	4578
957.718	4486
958.858	4570
959.997	4618
961.137	4522
962.277	4596
963.416	4584
964.555	4552
965.695	4478
966.833	4602
967.972	4626
969.111	4576
970.248	4580
971.387	4488
972.524	4630
973.662	4626
974.8	4514
975.936	4536
977.074	4596
978.21	4604
979.348	4562
980.483	4614
981.62	4582
982.757	4496
983.893	4588
985.029	4560
986.164	4586
987.299	4556
988.435	4554
989.569	4604
990.705	4590
991.839	4658
992.974	4570
994.108	4598
995.243	4614
996.376	4648
997.509	4626
998.644	4660
999.777	4568
1000.91	4578
1002.04	4644
1003.18	4624
1004.31	4618
1005.44	4640
1006.57	4728
1007.71	4620
1008.84	4646
1009.97	4598
1011.1	4610
1012.23	4582
1013.36	4656
1014.49	4644
1015.63	4604
1016.76	4622
1017.89	4592
1019.02	4668
1020.15	4662
1021.28	4690
1022.41	4644
1023.54	4654
1024.66	4678
1025.79	4626
1026.92	4698
1028.05	4692
1029.18	4758
1030.31	4666
1031.44	4688
1032.56	4724
1033.69	4676
1034.82	4718
1035.95	4690
1037.08	4776
1038.2	4788
1039.33	4758
1040.46	4724
1041.58	4658
1042.71	4716
1043.83	4818
1044.96	4832
1046.09	4732
1047.21	4710
1048.34	4770
1049.46	4768
1050.59	4826
1051.71	4748
1052.84	4742
1053.96	4716
1055.09	4816
1056.21	4840
1057.33	4754
1058.46	4756
1059.58	4758
1060.71	4830
1061.83	4736
1062.95	4758
1064.07	4820
1065.2	4776
1066.32	4742
1067.44	4728
1068.56	4796
1069.69	4770
1070.81	4750
1071.93	4744
1073.05	4826
1074.17	4778
1075.29	4708
1076.41	4860
1077.54	4780
1078.66	4810
1079.78	4762
1080.9	4708
1082.02	4734
1083.14	4786
1084.25	4758
1085.37	4780
1086.49	4724
1087.61	4848
1088.73	4752
1089.85	4724
1090.97	4772
1092.09	4758
1093.21	4738
1094.32	4726
1095.44	4688
1096.56	4768
1097.68	4738
1098.79	4766
1099.91	4734
1101.03	4728
1102.14	4706
1103.26	4702
1104.38	4698
1105.49	4680
1106.61	4712
1107.72	4668
1108.84	4772
1109.96	4684
1111.07	4670
1112.19	4810
1113.3	4710
1114.42	4656
1115.53	4696
1116.64	4744
1117.76	4744
1118.87	4702
1119.99	4646
1121.1	4734
1122.21	4730
1123.33	4744
1124.44	4786
1125.55	4766
1126.66	4810
1127.78	4690
1128.89	4738
1130	4778
1131.11	4758
1132.23	4692
1133.34	4864
1134.45	4764
1135.56	4774
1136.67	4828
1137.78	4786
1138.89	4870
1140	4822
1141.11	4728
1142.22	4786
1143.33	4816
1144.44	4810
1145.55	4730
1146.66	4896
1147.77	4812
1148.88	4790
1149.99	4846
1151.1	4864
1152.21	4938
1153.32	4910
1154.42	4878
1155.53	4846
1156.64	4848
1157.75	4944
1158.85	4862
1159.96	4886
1161.07	4832
1162.17	4890
1163.28	4862
1164.39	4888
1165.49	4924
1166.6	4876
1167.71	4910
1168.81	4916
1169.92	4868
1171.02	4924
1172.13	4950
1173.23	4910
1174.34	4868
1175.44	4876
1176.55	4906
1177.65	4950
1178.76	4922
1179.86	4954
1180.97	4846
1182.07	4904
1183.17	4874
1184.28	4826
1185.38	4874
1186.48	4962
1187.58	4886
1188.69	4942
1189.79	4910
1190.89	4914
1191.99	4860
1193.1	4896
1194.2	4826
1195.3	4908
1196.4	4894
1197.5	4852
1198.6	4914
1199.7	4896
1200.8	4944
1201.9	4848
1203	4806
1204.1	4826
1205.2	4880
1206.3	4766
1207.4	4860
1208.5	4840
1209.6	4858
1210.7	4894
1211.8	4820
1212.9	4914
1214	4814
1215.1	4890
1216.19	4820
1217.29	4834
1218.39	4834
1219.49	4790
1220.58	4712
1221.68	4870
1222.78	4776
1223.88	4804
1224.97	4828
1226.07	4868
1227.17	4836
1228.26	4770
1229.36	4810
1230.45	4878
1231.55	4958
1232.65	4778
1233.74	4828
1234.84	4734
1235.93	4782
1237.02	4940
1238.12	4826
1239.21	4788
1240.31	4842
1241.4	4816
1242.5	4840
1243.59	4958
1244.68	4902
1245.78	4856
1246.87	4844
1247.96	4808
1249.06	4860
1250.15	4826
1251.24	4884
1252.33	4872
1253.43	4870
1254.52	4906
1255.61	4810
1256.7	4910
1257.79	4894
1258.88	4874
1259.98	4892
1261.07	4926
1262.16	4944
1263.25	4998
1264.34	4860
1265.43	4844
1266.52	4920
1267.61	4854
1268.7	4916
1269.79	4882
1270.88	4968
1271.96	4984
1273.05	4986
1274.14	4898
1275.23	4878
1276.32	4920
1277.41	4908
1278.5	4952
1279.58	4946
1280.67	4904.92
1281.76	5017.8
1282.85	4954.83
1283.93	4979.04
1285.02	4999.36
1286.11	4946.65
1287.19	4922.01
1288.28	5002.1
1289.37	4999
1290.45	4975.76
1291.54	4906.63
1292.63	4967.46
1293.71	4956.61
1294.8	5029.71
1295.88	5010.13
1296.97	4967
1298.05	5032.94
1299.14	5023.35
1300.22	5035.7
1301.31	5034.37
1302.39	5055.49
1303.47	5040.43
1304.56	5013.06
1305.64	5035.7
1306.72	4997.53
1307.81	5032.69
1308.89	5071.11
1309.97	5006.54
1311.06	5060.62
1312.14	4991.52
1313.22	5070.83
1314.3	5020.06
1315.39	5053.12
1316.47	5119.71
1317.55	4990.95
1318.63	5068.9
1319.71	5065.41
1320.79	5056.53
1321.88	5034.01
1322.96	5031.17
1324.04	5110.08
1325.12	5093.39
1326.2	5038.51
1327.28	5036.29
1328.36	5073.75
1329.44	5094.32
1330.52	5082.11
1331.6	5109.63
1332.68	5101.15
1333.76	5072.32
1334.84	5084.32
1335.91	5140.43
1336.99	5069.53
1338.07	5089.51
1339.15	5145.29
1340.23	5146.21
1341.31	5166.2
1342.38	5102.13
1343.46	5155.1
1344.54	5122.63
1345.62	5140.12
1346.69	5141.9
1347.77	5076.07
1348.85	5163
1349.92	5160.08
1351	5122.44
1352.08	5189.88
1353.15	5166.67
1354.23	5132.18
1355.3	5138.05
1356.38	5115.53
1357.46	5141.25
1358.53	5144.6
1359.6	5097.71
1360.68	5144.91
1361.75	5132.03
1362.83	5117.48
1363.9	5084.26
1364.98	5108.35
1366.05	5172.47
1367.13	5170.97
1368.2	5179.54
1369.27	5170.82
1370.35	5160.1
1371.42	5173.6
1372.49	5169.71
1373.56	5177.09
1374.64	5145.23
1375.71	5119.01
1376.78	5118.61
1377.85	5135.64
1378.93	5159.45
1380	5187.84
1381.07	5175.08
1382.14	5157.99
1383.21	5188.88
1384.28	5269.38
1385.35	5220.83
1386.43	5126.32
1387.5	5136.44
1388.57	5147.49
1389.64	5111.65
1390.13	5090
1391.2	5258
1392.28	5184
1393.35	5128
1394.43	5180
1395.5	5262
1396.57	5198
1397.65	5156
1398.72	5144
1399.8	5070
1400.87	5134
1401.94	5130
1403.02	5168
1404.09	5190
1405.17	5102
1406.24	5110
1407.31	5124
1408.38	5130
1409.46	5158
1410.53	5098
1411.6	5086
1412.67	5186
1413.74	5156
1414.82	5222
1415.89	5064
1416.96	5162
1418.03	5194
1419.1	5126
1420.17	5156
1421.24	5086
1422.31	5102
1423.38	5164
1424.45	5066
1425.52	5052
1426.59	5116
1427.66	5108
1428.73	5100
1429.8	5084
1430.87	5132
1431.94	5076
1433.01	5116
1434.08	5040
1435.14	5128
1436.21	5194
1437.28	5074
1438.35	5142
1439.42	5044
1440.48	5098
1441.55	5100
1442.62	5114
1443.68	5092
1444.75	5208
1445.82	5172
1446.89	5138
1447.95	5128
1449.02	5088
1450.08	5106
1451.15	5126
1452.22	5134
1453.28	5180
1454.35	5122
1455.41	5206
1456.48	5116
1457.54	5130
1458.61	5114
1459.67	5090
1460.73	5118
1461.8	5144
1462.86	5206
1463.93	5138
1464.99	5176
1466.05	5242
1467.12	5136
1468.18	5098
1469.24	5186
1470.31	5156
1471.37	5148
1472.43	5186
1473.49	5138
1474.56	5184
1475.62	5180
1476.68	5116
1477.74	5162
1478.8	5144
1479.86	5190
1480.93	5116
1481.99	5224
1483.05	5168
1484.11	5168
1485.17	5152
1486.23	5104
1487.29	5162
1488.35	5158
1489.41	5130
1490.47	5202
1491.53	5184
1492.59	5218
1493.65	5102
1494.71	5170
1495.76	5204
1496.82	5168
1497.88	5160
1498.94	5204
1500	5110
1501.06	5238
1502.11	5212
1503.17	5122
1504.23	5068
1505.29	5146
1506.34	5096
1507.4	5156
1508.46	5194
1509.51	5062
1510.57	5188
1511.63	5186
1512.68	5156
1513.74	5112
1514.8	5118
1515.85	5052
1516.91	5136
1517.96	5146
1519.02	5140
1520.07	5124
1521.13	5046
1522.18	5016
1523.24	5148
1524.29	5080
1525.34	5122
1526.4	5118
1527.45	5086
1528.51	5160
1529.56	5048
1530.61	5210
1531.67	5156
1532.72	5080
1533.77	5126
1534.82	5218
1535.88	5024
1536.93	5064
1537.98	5138
1539.03	5190
1540.08	5128
1541.14	5152
1542.19	5094
1543.24	5182
1544.29	5184
1545.34	5024
1546.39	5198
1547.44	5198
1548.49	5072
1549.54	5118
1550.59	5066
1551.64	5144
1552.69	5150
1553.74	5078
1554.79	5132
1555.84	5110
1556.89	5072
1557.94	5136
1558.99	5148
1560.04	5072
1561.09	5086
1562.14	5066
1563.18	5142
1564.23	5066
1565.28	5122
1566.33	5176
1567.37	5162
1568.42	5178
1569.47	5138
1570.52	5044
1571.56	5124
1572.61	5116
1573.66	5174
1574.7	5066
1575.75	5200
1576.79	5132
1577.84	5026
1578.89	5068
1579.93	5096
1580.98	5174
1582.02	5088
1583.07	5042
1584.11	5120
1585.16	5052
1586.2	5034
1587.25	5150
1588.29	5086
1589.34	5144
1590.38	5134
1591.42	5088
1592.47	5130
1593.51	5078
1594.55	5112
1595.6	5086
1596.64	5134
1597.68	5084
1598.72	5094
1599.77	5114
1600.81	5126
1601.85	5138
1602.89	5140
1603.94	5108
1604.98	5060
1606.02	5098
1607.06	5118
1608.1	5186
1609.14	5046
1610.18	5190
1611.22	5086
1612.26	5110
1613.3	5080
1614.34	5084
1615.38	5106
1616.42	5052
1617.46	5178
1618.5	5074
1619.54	5132
1620.58	5138
1621.62	5120
1622.66	5142
1623.7	5116
1624.74	5054
1625.78	5150
1626.81	5110
1627.85	5172
1628.89	5066
1629.93	5132
1630.97	5146
1632	5176
1633.04	5082
1634.08	5142
1635.11	5044
1636.15	5140
1637.19	5034
1638.22	5084
1639.26	5170
1640.3	5182
1641.33	5056
1642.37	5030
1643.4	5108
1644.44	4976
1645.47	5072
1646.51	5006
1647.55	5086
1648.58	4996
1649.61	4964
1650.65	4950
1651.68	4960
1652.72	4942
1653.75	4880
1654.79	4866
1655.82	4918
1656.85	4908
1657.89	4858
1658.92	4850
1659.95	4910
1660.98	4914
1662.02	4758
1663.05	4788
1664.08	4848
1665.12	4888
1666.15	4802
1667.18	4788
1668.21	4818
1669.24	4810
1670.27	4890
1671.3	4852
1672.34	4900
1673.37	4822
1674.4	4806
1675.43	4894
1676.46	4802
1677.49	4790
1678.52	4806
1679.55	4876
1680.58	4740
1681.61	4776
1682.64	4746
1683.67	4716
1684.7	4756
1685.73	4722
1686.75	4784
1687.78	4726
1688.81	4690
1689.84	4738
1690.87	4704
1691.9	4778
1692.93	4746
1693.95	4702
1694.98	4760
1696.01	4774
1697.03	4760
1698.06	4742
1699.09	4716
1700.12	4610
1701.14	4618
1702.17	4720
1703.2	4710
1704.22	4672
1705.25	4720
1706.27	4734
1707.3	4714
1708.32	4722
1709.35	4668
1710.37	4688
1711.4	4674
1712.42	4738
1713.45	4768
1714.47	4614
1715.5	4726
1716.52	4718
1717.55	4722
1718.57	4674
1719.59	4646
1720.62	4582
1721.64	4732
1722.67	4674
1723.69	4632
1724.71	4726
1725.73	4666
1726.76	4678
1727.78	4664
1728.8	4656
1729.82	4664
1730.84	4650
1731.87	4614
1732.89	4698
1733.91	4586
1734.93	4646
1735.95	4608
1736.97	4628
1737.99	4752
1739.01	4650
1740.04	4680
1741.06	4724
1742.08	4638
1743.1	4664
1744.12	4618
1745.14	4600
1746.16	4662
1747.18	4610
1748.19	4742
1749.21	4712
1750.23	4618
1751.25	4694
1752.27	4710
1753.29	4658
1754.31	4650
1755.33	4708
1756.34	4666
1757.36	4724
1758.38	4604
1759.4	4620
1760.41	4524
1761.43	4672
1762.45	4668
1763.47	4802
1764.48	4658
1765.5	4676
1766.51	4556
1767.53	4668
1768.55	4616
1769.56	4682
1770.58	4684
1771.6	4634
1772.61	4692
1773.63	4718
1774.64	4626
1775.66	4704
1776.67	4716
1777.69	4672
1778.7	4618
1779.71	4636
1780.73	4680
1781.74	4676
1782.76	4604
1783.77	4672
1784.78	4588
1785.8	4654
1786.81	4682
1787.82	4630
1788.84	4732
1789.85	4590
1790.86	4684
1791.88	4640
1792.89	4624
1793.9	4576
1794.91	4626
1795.92	4572
1796.94	4626
1797.95	4672
1798.96	4568
1799.97	4628
1800.98	4620
1801.99	4582
1803	4538
1804.01	4680
1805.02	4626
1806.03	4602
1807.04	4560
1808.05	4508
1809.06	4600
1810.07	4628
1811.08	4594
1812.09	4612
1813.1	4664
1814.11	4578
1815.12	4562
1816.13	4596
1817.14	4568
1818.14	4642
1819.15	4604
1820.16	4558
1821.17	4512
1822.18	4620
1823.18	4578
1824.19	4572
1825.2	4598
1826.21	4580
1827.21	4540
1828.22	4572
1829.23	4554
1830.23	4532
1831.24	4574
1832.25	4650
1833.25	4544
1834.26	4462
1835.27	4454
1836.27	4548
1837.28	4574
1838.28	4502
1839.29	4446
1840.29	4488
1841.3	4528
1842.3	4494
1843.31	4536
1844.31	4538
1845.31	4500
1846.32	4460
1847.32	4456
1848.33	4524
1849.33	4508
1850.33	4406
1851.34	4412
1852.34	4546
1853.34	4490
1854.35	4542
1855.35	4440
1856.35	4446
1857.35	4536
1858.36	4446
1859.36	4386
1860.36	4400
1861.36	4462
1862.36	4386
1863.36	4462
1864.36	4412
1865.37	4356
1866.37	4436
1867.37	4458
1868.37	4418
1869.37	4378
1870.37	4438
1871.37	4514
1872.37	4460
1873.37	4470
1874.37	4410
1875.37	4446
1876.37	4384
1877.37	4420
1878.37	4482
1879.37	4414
1880.36	4454
1881.36	4434
1882.36	4376
1883.36	4376
1884.36	4450
1885.36	4392
1886.35	4418
1887.35	4398
1888.35	4402
1889.35	4350
1890.34	4372
1891.34	4428
1892.34	4396
1893.34	4466
1894.33	4460
1895.33	4410
1896.33	4432
1897.32	4400
1898.32	4428
1899.31	4482
1900.31	4400
1901.3	4398
1902.3	4464
1903.3	4442
1904.29	4390
1905.29	4400
1906.28	4416
1907.27	4348
1908.27	4406
1909.26	4410
1910.26	4440
1911.25	4356
1912.25	4342
1913.24	4434
1914.23	4366
1915.23	4440
1916.22	4378
1917.21	4424
1918.21	4392
1919.2	4386
1920.19	4376
1921.18	4412
1922.18	4414
1923.17	4428
1924.16	4394
1925.15	4442
1926.14	4390
1927.14	4398
1928.13	4348
1929.12	4446
1930.11	4354
1931.1	4338
1932.09	4310
1933.08	4378
1934.07	4384
1935.06	4332
1936.05	4386
1937.04	4384
1938.03	4368
1939.02	4406
1940.01	4348
1941	4376
1941.99	4378
1942.98	4356
1943.97	4386
1944.96	4356
1945.95	4398
1946.94	4290
1947.92	4352
1948.91	4400
1949.9	4368
1950.89	4362
1951.88	4290
1952.86	4366
1953.85	4310
1954.84	4288
1955.83	4232
1956.81	4296
1957.8	4220
1958.79	4358
1959.77	4288
1960.76	4306
1961.75	4334
1962.73	4254
1963.72	4292
1964.7	4324
1965.69	4284
1966.68	4318
1967.66	4334
1968.65	4242
1969.63	4280
1970.62	4360
1971.6	4304
1972.59	4280
1973.57	4330
1974.55	4342
1975.54	4248
1976.52	4196
1977.51	4242
1978.49	4348
1979.47	4248
1980.46	4200
1981.44	4282
1982.42	4224
1983.41	4276
1984.39	4286
1985.37	4298
1986.35	4222
1987.34	4282
1988.32	4288
1989.3	4250
1990.28	4248
1991.27	4300
1992.25	4196
1993.23	4204
1994.21	4240
1995.19	4186
1996.17	4278
1997.15	4300
1998.13	4286
1999.11	4232
2000.09	4244
2001.07	4240
2002.05	4222
2003.03	4248
2004.01	4272
2004.99	4202
2005.97	4240
2006.95	4232
2007.93	4250
2008.91	4202
2009.89	4294
2010.87	4220
2011.85	4332
2012.82	4214
2013.8	4170
2014.78	4234
2015.76	4196
2016.74	4236
2017.72	4266
2018.69	4216
2019.67	4178
2020.65	4224
2021.62	4196
2022.6	4144
2023.58	4122
2024.55	4252
2025.53	4214
2026.51	4176
2027.48	4238
2028.46	4218
2029.44	4206
2030.41	4198
2031.39	4202
2032.36	4234
2033.34	4172
2034.31	4198
2035.29	4158
2036.26	4238
2037.24	4210
2038.21	4192
2039.19	4140
2040.16	4208
2041.14	4152
2042.11	4158
2043.08	4164
2044.06	4192
2045.03	4088
2046	4166
2046.98	4210
2047.95	4142
2048.92	4138
2049.9	4076
2050.87	4156
2051.84	4098
2052.81	4112
2053.79	4090
2054.76	4158
2055.73	4184
2056.7	4198
2057.67	3994
2058.64	4124
2059.61	4096
2060.59	4172
2061.56	4192
2062.53	4184
2063.5	4186
2064.47	4158
2065.44	4088
2066.41	4096
2067.38	4102
2068.35	4100
2069.32	4052
2070.29	4154
2071.26	4142
2072.23	4146
2073.2	4030
2074.17	4096
2075.14	4110
2076.1	4078
2077.07	4056
2078.04	4102
2079.01	4076
2079.98	4088
2080.95	4108
2081.91	4124
2082.88	4098
2083.85	4074
2084.82	3972
2085.78	4044
2086.75	4052
2087.72	4088
2088.68	4058
2089.65	3976
2090.62	4128
2091.58	4084
2092.55	3988
2093.52	4126
2094.48	4004
2095.45	4060
2096.41	4072
2097.38	4044
2098.35	4030
2099.31	4030
2100.28	3972
2101.24	4042
2102.21	4060
2103.17	3950
2104.14	4076
2105.1	4054
2106.06	4026
2107.03	4058
2107.99	3996
2108.96	3974
2109.92	4034
2110.88	4036
2111.85	4022
2112.81	4010
2113.77	4018
2114.73	4038
2115.7	3990
2116.66	4016
2117.62	3994
2118.58	3980
2119.55	3966
2120.51	4052
2121.47	3988
2122.43	3988
2123.39	3972
2124.36	3960
2125.32	4052
2126.28	3960
2127.24	3962
2128.2	4066
2129.16	3970
2130.12	3996
2131.08	3984
2132.04	3878
2133	3936
2133.96	3964
2134.92	3924
2135.88	3972
2136.84	4026
2137.8	3954
2138.76	3974
2139.72	3920
2140.68	3956
2141.64	3950
2142.59	3960
2143.55	3924
2144.51	3942
2145.47	3960
2146.43	3868
2147.39	3918
2148.34	3916
2149.3	3960
2150.26	3986
2151.22	4026
2152.17	3920
2153.13	3926
2154.09	3968
2155.04	3934
2156	3918
2156.96	3814
2157.91	3844
2158.87	3804
2159.82	3902
2160.78	3866
2161.74	3942
2162.69	3928
2163.65	3772
2164.6	3864
2165.56	3840
2166.51	3850
2167.47	3826
2168.42	3896
2169.38	3826
2170.33	3850
2171.29	3892
2172.24	3848
2173.19	3958
2174.15	3788
2175.1	3790
2176.05	3796
2177.01	3818
2177.96	3854
2178.91	3814
2179.87	3784
2180.82	3782
2181.77	3814
2182.73	3866
2183.68	3762
2184.63	3742
2185.58	3806
2186.53	3722
2187.49	3830
2188.44	3770
2189.39	3770
2190.34	3770
2191.29	3774
2192.24	3814
2193.19	3776
2194.14	3738
2195.09	3750
2196.05	3694
2197	3784
2197.95	3724
2198.9	3706
2199.85	3730
2200.8	3682
2201.75	3792
2202.7	3722
2203.64	3750
2204.59	3740
2205.54	3718
2206.49	3732
2207.44	3742
2208.39	3706
2209.34	3718
2210.29	3744
2211.23	3668
2212.18	3714
2213.13	3710
2214.08	3666
2215.03	3722
2215.97	3692
2216.92	3672
2217.87	3668
2218.81	3634
2219.76	3618.77
2220.71	3731.2
2221.66	3784.65
2222.6	3679.35
2223.55	3690.75
2224.49	3727.08
2225.44	3694.6
2226.39	3762.78
2227.33	3724.47
2228.28	3717.81
2229.22	3663.67
2230.17	3713.63
2231.11	3713.94
2232.06	3757.29
2233	3665.94
2233.95	3730.65
2234.89	3724.49
2235.84	3654.87
2236.78	3676.73
2237.73	3735.24
2238.67	3669.87
2239.61	3727.15
2240.56	3767.63
2241.5	3703.14
2242.45	3703.98
2243.39	3703.25
2244.33	3665.14
2245.28	3644.38
2246.22	3678.69
2247.16	3698.43
2248.1	3694.37
2249.05	3672.09
2249.99	3670.66
2250.93	3693.05
2251.87	3740.45
2252.81	3683.55
2253.76	3698.59
2254.7	3730.46
2255.64	3744.59
2256.58	3752.82
2257.52	3685.89
2258.46	3687.88
2259.4	3686.25
2260.34	3741.53
2261.28	3734.41
2262.23	3738.31
2263.17	3708.33
2264.11	3695.52
2265.05	3747.33
2265.99	3753.99
2266.93	3690
2267.87	3673.75
2268.8	3727.3
2269.74	3696.47
2270.68	3736.81
2271.62	3744.34
2272.56	3650.69
2273.5	3692.38
2274.44	3739.73
2275.38	3741.78
2276.32	3709.49
2277.25	3681.98
2278.19	3742.97
2279.13	3713.31
2280.07	3727.25
2281.01	3741.75
2281.94	3707.65
2282.88	3719.47
2283.82	3757.62
2284.76	3661.99
2285.69	3694.8
2286.63	3684.55
2287.57	3668.09
2288.5	3640.04
2289.44	3672.18
2290.37	3706.37
2291.31	3649.14
2292.25	3692.61
2293.18	3699.11
2294.12	3717.94
2295.05	3654.82
2295.99	3687.05
2296.92	3665.05
2297.86	3701.45
2298.79	3689.3
2299.73	3687.88
2300.66	3697.92
2301.6	3676.33
2302.53	3717.42
2303.47	3721.47
2304.4	3722.82
2305.34	3701.17
2306.27	3712.67
2307.2	3709.38
2308.14	3749.44
2309.07	3664.52
2310	3683.41
2310.94	3683.45
2311.87	3645.87
2312.8	3713.3
2313.74	3652.11
2313.98	3620
2314.92	3732
2315.86	3656
2316.79	3696
2317.73	3674
2318.67	3710
2319.6	3708
2320.54	3696
2321.48	3688
2322.41	3662
2323.35	3658
2324.29	3708
2325.22	3700
2326.16	3666
2327.09	3666
2328.03	3648
2328.96	3626
2329.9	3608
2330.83	3674
2331.77	3632
2332.7	3662
2333.64	3628
2334.57	3618
2335.51	3686
2336.44	3666
2337.38	3570
2338.31	3708
2339.24	3620
2340.18	3616
2341.11	3616
2342.04	3648
2342.98	3650
2343.91	3598
2344.84	3638
2345.78	3610
2346.71	3612
2347.64	3642
2348.57	3642
2349.51	3594
2350.44	3734
2351.37	3612
2352.3	3572
2353.24	3614
2354.17	3640
2355.1	3622
2356.03	3610
2356.96	3656
2357.89	3644
2358.82	3616
2359.75	3604
2360.68	3596
2361.62	3634
2362.55	3632
2363.48	3604
2364.41	3594
2365.34	3642
2366.27	3578
2367.2	3622
2368.13	3678
2369.05	3664
2369.98	3602
2370.91	3586
2371.84	3580
2372.77	3640
2373.7	3548
2374.63	3544
2375.56	3608
2376.49	3672
2377.41	3634
2378.34	3530
2379.27	3580
2380.2	3640
2381.12	3578
2382.05	3646
2382.98	3610
2383.91	3578
2384.83	3576
2385.76	3510
2386.69	3540
2387.61	3568
2388.54	3652
2389.47	3546
2390.39	3596
2391.32	3486
2392.25	3628
2393.17	3560
2394.1	3562
2395.02	3522
2395.95	3566
2396.87	3576
2397.8	3556
2398.72	3518
2399.65	3552
2400.57	3554
2401.5	3532
2402.42	3596
2403.35	3506
2404.27	3480
2405.2	3538
2406.12	3520
2407.04	3546
2407.97	3584
2408.89	3556
2409.81	3524
2410.74	3524
2411.66	3462
2412.58	3466
2413.51	3448
2414.43	3526
2415.35	3528
2416.27	3550
2417.2	3550
2418.12	3478
2419.04	3510
2419.96	3516
2420.88	3462
2421.81	3550
2422.73	3514
2423.65	3490
2424.57	3484
2425.49	3476
2426.41	3470
2427.33	3536
2428.25	3538
2429.17	3522
2430.1	3552
2431.02	3504
2431.94	3484
2432.85	3478
2433.77	3520
2434.7	3514
2435.61	3458
2436.53	3474
2437.45	3444
2438.37	3508
2439.29	3528
2440.21	3482
2441.13	3510
2442.05	3468
2442.97	3394
2443.88	3436
2444.8	3558
2445.72	3498
2446.64	3450
2447.56	3444
2448.47	3438
2449.39	3460
2450.31	3444
2451.23	3420
2452.14	3442
2453.06	3484
2453.98	3478
2454.89	3542
2455.81	3526
2456.73	3470
2457.64	3446
2458.56	3406
2459.48	3368
2460.39	3474
2461.31	3442
2462.22	3430
2463.14	3380
2464.05	3468
2464.97	3396
2465.88	3466
2466.8	3438
2467.71	3312
2468.63	3424
2469.54	3452
2470.46	3460
2471.37	3478
2472.29	3450
2473.2	3370
2474.11	3414
2475.03	3388
2475.94	3352
2476.86	3484
2477.77	3404
2478.68	3376
2479.59	3418
2480.51	3410
2481.42	3416
2482.33	3406
2483.25	3432
2484.16	3390
2485.07	3394
2485.98	3390
2486.9	3418
2487.81	3422
2488.72	3364
2489.63	3466
2490.54	3404
2491.45	3332
2492.36	3378
2493.28	3322
2494.19	3382
2495.1	3378
2496.01	3332
2496.92	3382
2497.83	3474
2498.74	3366
2499.65	3390
2500.56	3306
2501.47	3370
2502.38	3362
2503.29	3374
2504.2	3410
2505.11	3324
2506.02	3366
2506.93	3348
2507.83	3300
2508.74	3298
2509.65	3352
2510.56	3396
2511.47	3388
2512.38	3326
2513.29	3350
2514.19	3360
2515.1	3314
2516.01	3292
2516.92	3316
2517.82	3350
2518.73	3336
2519.64	3302
2520.55	3352
2521.45	3318
2522.36	3386
2523.27	3296
2524.17	3304
2525.08	3320
2525.99	3344
2526.89	3256
2527.8	3328
2528.7	3370
2529.61	3312
2530.51	3278
2531.42	3322
2532.33	3324
2533.23	3292
2534.14	3330
2535.04	3274
2535.95	3270
2536.85	3300
2537.75	3264
2538.66	3290
2539.56	3278
2540.47	3324
2541.37	3294
2542.28	3330
2543.18	3308
2544.08	3312
2544.99	3288
2545.89	3298
2546.79	3314
2547.7	3232
2548.6	3302
2549.5	3266
2550.4	3256
2551.31	3208
2552.21	3306
2553.11	3244
2554.01	3306
2554.92	3254
2555.82	3286
2556.72	3274
2557.62	3244
2558.52	3258
2559.42	3284
2560.32	3284
2561.23	3214
2562.13	3268
2563.03	3274
2563.93	3306
2564.83	3236
2565.73	3234
2566.63	3226
2567.53	3238
2568.43	3262
2569.33	3230
2570.23	3252
2571.13	3272
2572.03	3202
2572.93	3232
2573.83	3228
2574.73	3294
2575.63	3272
2576.52	3156
2577.42	3172
2578.32	3252
2579.22	3172
2580.12	3240
2581.02	3138
2581.91	3208
2582.81	3202
2583.71	3258
2584.61	3100
2585.51	3164
2586.4	3204
2587.3	3188
2588.2	3192
2589.09	3142
2589.99	3118
2590.89	3246
2591.78	3126
2592.68	3150
2593.58	3212
2594.47	3180
2595.37	3168
2596.26	3228
2597.16	3120
2598.06	3160
2598.95	3146
2599.85	3174
2600.74	3092
2601.64	3110
2602.53	3174
2603.43	3160
2604.32	3170
2605.22	3146
2606.11	3192
2607.01	3144
2607.9	3102
2608.79	3156
2609.69	3108
2610.58	3120
2611.48	3180
2612.37	3092
2613.26	3136
2614.16	3090
2615.05	3138
2615.94	3088
2616.84	3164
2617.73	3072
2618.62	3132
2619.51	3106
2620.41	3100
2621.3	3084
2622.19	3074
2623.08	3124
2623.97	3140
2624.87	3104
2625.76	3104
2626.65	3098
2627.54	3024
2628.43	3068
2629.32	3152
2630.21	3114
2631.1	3088
2631.99	3106
2632.89	3062
2633.78	3062
2634.67	3046
2635.56	3084
2636.45	3044
2637.34	3096
2638.23	3026
2639.12	3046
2640.01	2968
2640.9	3040
2641.78	3084
2642.67	3038
2643.56	3078
2644.45	3072
2645.34	3082
2646.23	3048
2647.12	3118
2648.01	3046
2648.89	3066
2649.78	3072
2650.67	3002
2651.56	3016
2652.45	3030
2653.33	3066
2654.22	3010
2655.11	2996
2656	3028
2656.88	2964
2657.77	2988
2658.66	3084
2659.54	3020
2660.43	3054
2661.32	3006
2662.2	3004
2663.09	3000
2663.97	2978
2664.86	3016
2665.75	3036
2666.63	3094
2667.52	2988
2668.4	3052
2669.29	3014
2670.17	2994
2671.06	3036
2671.94	3022
2672.83	3042
2673.71	2936
2674.6	2960
2675.48	3016
2676.37	2994
2677.25	3046
2678.13	3078
2679.02	3056
2679.9	2934
2680.78	3012
2681.67	2914
2682.55	3014
2683.43	2982
2684.32	2994
2685.2	2934
2686.08	3022
2686.97	2944
2687.85	3010
2688.73	3020
2689.61	2996
2690.5	2986
2691.38	2980
2692.26	2968
2693.14	2964
2694.02	3018
2694.9	2968
2695.79	2990
2696.67	2988
2697.55	2988
2698.43	2934
2699.31	2912
2700.19	3034
2701.07	2954
2701.95	2878
2702.83	2936
2703.71	2984
2704.59	2932
2705.47	3006
2706.35	2938
2707.23	2946
2708.11	2900
2708.99	2984
2709.87	2980
2710.75	2958
2711.63	2954
2712.51	2900
2713.39	2922
2714.27	2934
2715.14	2876
2716.02	2890
2716.9	2932
2717.78	2936
2718.66	2962
2719.54	2970
2720.41	2892
2721.29	2936
2722.17	2872
2723.05	2910
2723.92	2914
2724.8	2838
2725.68	2916
2726.55	2872
2727.43	2898
2728.31	2878
2729.18	2916
2730.06	2962
2730.94	2818
2731.81	2866
2732.69	2882
2733.57	2836
2734.44	2868
2735.32	2826
2736.19	2864
2737.07	2836
2737.94	2892
2738.82	2814
2739.69	2800
2740.57	2888
2741.44	2798
2742.32	2804
2743.19	2844
2744.07	2794
2744.94	2808
2745.81	2806
2746.69	2802
2747.56	2842
2748.44	2824
2749.31	2856
2750.18	2772
2751.06	2826
2751.93	2850
2752.8	2898
2753.68	2830
2754.55	2794
2755.42	2842
2756.29	2830
2757.17	2768
2758.04	2856
2758.91	2844
2759.78	2836
2760.65	2780
2761.53	2792
2762.4	2832
2763.27	2912
2764.14	2710
2765.01	2818
2765.88	2830
2766.76	2814
2767.63	2818
2768.5	2748
2769.37	2820
2770.24	2778
2771.11	2756
2771.98	2770
2772.85	2788
2773.72	2820
2774.59	2760
2775.46	2738
2776.33	2764
2777.2	2772
2778.07	2810
2778.94	2786
2779.81	2812
2780.67	2722
2781.54	2750
2782.41	2778
2783.28	2732
2784.15	2750
2785.02	2814
2785.89	2722
2786.75	2750
2787.62	2846
2788.49	2772
2789.36	2712
2790.23	2680
2791.09	2832
2791.96	2748
2792.83	2764
2793.7	2800
2794.56	2776
2795.43	2702
2796.3	2730
2797.16	2726
2798.03	2724
2798.9	2724
2799.76	2714
2800.63	2700
2801.49	2728
2802.36	2672
2803.23	2688
2804.09	2682
2804.96	2780
2805.82	2778
2806.69	2724
2807.55	2728
2808.42	2740
2809.28	2692
2810.15	2702
2811.01	2660
2811.88	2754
2812.74	2684
2813.61	2734
2814.47	2672
2815.33	2742
2816.2	2682
2817.06	2706
2817.93	2734
2818.79	2756
2819.65	2696
2820.52	2722
2821.38	2762
2822.24	2700
2823.11	2660
2823.97	2626
2824.83	2692
2825.69	2602
2826.55	2716
2827.42	2730
2828.28	2658
2829.14	2688
2830	2742
2830.87	2662
2831.73	2692
2832.59	2666
2833.45	2710
2834.31	2664
2835.17	2594
2836.03	2652
2836.89	2632
2837.76	2636
2838.62	2600
2839.48	2654
2840.34	2604
2841.2	2710
2842.06	2600
2842.92	2618
2843.78	2626
2844.64	2624
2845.5	2620
2846.36	2542
2847.22	2598
2848.07	2632
2848.93	2622
2849.79	2594
2850.65	2606
2851.51	2588
2852.37	2644
2853.23	2606
2854.09	2614
2854.95	2552
2855.8	2620
2856.66	2626
2857.52	2580
2858.38	2530
2859.24	2544
2860.09	2612
2860.95	2512
2861.81	2602
2862.66	2542
2863.52	2538
2864.38	2590
2865.24	2578
2866.09	2588
2866.95	2596
2867.81	2592
2868.66	2588
2869.52	2580
2870.37	2570
2871.23	2560
2872.09	2534
2872.94	2530
2873.8	2600
2874.65	2550
2875.51	2512
2876.36	2526
2877.22	2586
2878.07	2534
2878.93	2570
2879.78	2570
2880.64	2536
2881.49	2530
2882.35	2494
2883.2	2548
2884.05	2494
2884.91	2508
2885.76	2550
2886.62	2488
2887.47	2528
2888.32	2596
2889.18	2484
2890.03	2512
2890.88	2452
2891.74	2514
2892.59	2474
2893.44	2520
2894.29	2496
2895.15	2530
2896	2480
2896.85	2554
2897.7	2482
2898.55	2472
2899.41	2456
2900.26	2534
2901.11	2488
2901.96	2544
2902.81	2488
2903.66	2534
2904.52	2506
2905.37	2518
2906.22	2518
2907.07	2494
2907.92	2506
2908.77	2520
2909.62	2460
2910.47	2452
2911.32	2474
2912.17	2448
2913.02	2504
2913.87	2524
2914.72	2480
2915.57	2462
2916.42	2510
2917.27	2450
2918.12	2466
2918.97	2500
2919.82	2476
2920.66	2482
2921.51	2470
2922.36	2470
2923.21	2418
2924.06	2488
2924.91	2480
2925.75	2462
2926.6	2494
2927.45	2462
2928.3	2466
2929.15	2466
2929.99	2424
2930.84	2422
2931.69	2374
2932.54	2474
2933.38	2480
2934.23	2398
2935.08	2434
2935.92	2446
2936.77	2404
2937.62	2444
2938.46	2416
2939.31	2410
2940.15	2440
2941	2414
2941.85	2420
2942.69	2390
2943.54	2478
2944.38	2398
2945.23	2402
2946.07	2454
2946.92	2450
2947.76	2386
2948.61	2400
2949.45	2426
2950.3	2400
2951.14	2418
2951.99	2406
2952.83	2450
2953.67	2374
2954.52	2362
2955.36	2410
2956.21	2326
2957.05	2424
2957.89	2382
2958.74	2394
2959.58	2312
2960.42	2370
2961.27	2416
2962.11	2384
2962.95	2346
2963.79	2374
2964.64	2398
2965.48	2350
2966.32	2356
2967.16	2370
2968.01	2360
2968.85	2344
2969.69	2402
2970.53	2366
2971.37	2332
2972.21	2378
2973.05	2408
2973.9	2328
2974.74	2332
2975.58	2378
2976.42	2338
2977.26	2330
2978.1	2294
2978.94	2352
2979.78	2340
2980.62	2358
2981.46	2252
2982.3	2328
2983.14	2354
2983.98	2322
2984.82	2300
2985.66	2278
2986.5	2302
2987.34	2338
2988.18	2342
2989.02	2240
2989.86	2284
2990.69	2246
2991.53	2330
2992.37	2258
2993.21	2266
2994.05	2342
2994.89	2272
2995.72	2254
2996.56	2252
2997.4	2346
2998.24	2234
2999.08	2256
2999.91	2248
3000.75	2252
3001.59	2268
3002.43	2326
3003.26	2208
3004.1	2270
3004.94	2260
3005.77	2278
3006.61	2262
3007.45	2224
3008.28	2248
3009.12	2232
3009.95	2218
3010.79	2236
3011.63	2250
3012.46	2228
3013.3	2248
3014.13	2174
3014.97	2206
3015.8	2260
3016.64	2182
3017.47	2268
3018.31	2250
3019.14	2222
3019.98	2234
3020.81	2218
3021.65	2224
3022.48	2250
3023.31	2206
3024.15	2226
3024.98	2226
3025.82	2242
3026.65	2234
3027.48	2236
3028.32	2206
3029.15	2230
3029.98	2204
3030.82	2216
3031.65	2230
3032.48	2244
3033.31	2178
3034.15	2214
3034.98	2204
3035.81	2160
3036.64	2196
3037.48	2188
3038.31	2218
3039.14	2184
3039.97	2182
3040.8	2175.64
3041.63	2197.72
3042.47	2202.7
3043.3	2214.02
3044.13	2145.33
3044.96	2167.16
3045.79	2156.61
3046.62	2152.05
3047.45	2172.01
3048.28	2193.62
3049.11	2153.51
3049.94	2164.1
3050.77	2093.79
3051.6	2157.75
3052.43	2110.3
3053.26	2146.25
3054.09	2153.94
3054.92	2184.98
3055.75	2143.99
3056.58	2127.22
3057.41	2149.19
3058.24	2122.19
3059.07	2102.18
3059.9	2145.3
3060.73	2162.71
3061.55	2143.67
3062.38	2104.99
3063.21	2167.09
3064.04	2113.87
3064.87	2143.05
3065.7	2115.63
3066.52	2133.01
3067.35	2105.84
3068.18	2119.34
3069.01	2114.58
3069.83	2154.68
3070.66	2095.81
3071.49	2115.27
3072.32	2112.68
3073.14	2073.75
3073.97	2084.42
3074.8	2089.02
3075.62	2065.17
3076.45	2091.64
3077.28	2097.06
3078.1	2076.91
3078.93	2104.56
3079.75	2074.23
3080.58	2072.99
3081.41	2046.75
3082.23	2071.82
3083.06	2037.68
3083.88	2057.9
3084.71	2063.34
3085.53	2070.09
3086.36	2059.67
3087.18	2032.83
3088.01	2016.51
3088.83	2058
3089.66	2041.52
3090.48	2035.04
3091.31	2003.56
3092.13	2048.55
3092.96	2032.97
3093.78	2029.3
3094.6	2028.82
3095.43	2038.05
3096.25	2023.32
3097.07	2043.91
3097.9	2031.05
3098.72	1999.88
3099.54	2060.97
3100.37	2049.14
3101.19	2006.93
3102.01	2005.52
3102.84	2007.38
3103.66	1997.82
3104.48	1990.07
3105.3	1997.54
3106.13	1992.15
3106.95	1987.76
3107.77	1991.88
3108.59	1998.59
3109.41	1986.82
3110.24	1988.93
3111.06	1979.01
3111.88	1968.12
3112.7	1958.57
3113.52	1960.13
3114.34	1955.15
3115.16	1976.27
3115.98	1987.27
3116.81	1985.18
3117.63	1982.18
3118.45	1962.12
3119.27	1929.87
3120.09	1923.66
3120.91	1946.41
3121.73	1944.85
3122.55	1940.87
3123.37	1956.61
3123.73	1968
3124.56	1950
3125.38	1952
3126.21	1938
3127.03	1916
3127.85	1916
3128.68	1918
3129.5	1942
3130.32	1920
3131.15	1894
3131.97	1956
3132.79	1872
3133.62	1930
3134.44	1902
3135.26	1882
3136.08	1942
3136.91	1894
3137.73	1860
3138.55	1928
3139.37	1980
3140.19	1926
3141.02	1842
3141.84	1904
3142.66	1890
3143.48	1904
3144.3	1864
3145.13	1854
3145.95	1946
3146.77	1918
3147.59	1916
3148.41	1842
3149.23	1824
3150.05	1902
3150.87	1878
3151.69	1884
3152.51	1880
3153.33	1870
3154.15	1900
3154.97	1812
3155.79	1862
3156.61	1858
3157.43	1830
3158.25	1886
3159.07	1872
3159.89	1856
3160.71	1834
3161.53	1840
3162.35	1826
3163.17	1892
3163.98	1808
3164.8	1892
3165.62	1860
3166.44	1840
3167.26	1838
3168.08	1880
3168.89	1872
3169.71	1848
3170.53	1838
3171.35	1814
3172.17	1838
3172.98	1812
3173.8	1836
3174.62	1796
3175.43	1804
3176.25	1858
3177.07	1814
3177.89	1846
3178.7	1808
3179.52	1846
3180.33	1798
3181.15	1866
3181.97	1822
3182.78	1852
3183.6	1806
3184.41	1830
3185.23	1866
3186.05	1810
3186.86	1874
3187.68	1830
3188.49	1784
3189.31	1798
3190.12	1790
3190.94	1826
3191.75	1818
3192.57	1804
3193.38	1780
3194.2	1842
3195.01	1824
3195.82	1802
3196.64	1766
3197.45	1762
3198.27	1810
3199.08	1832
3199.89	1780
3200.71	1846
3201.52	1786
3202.33	1778
3203.15	1812
3203.96	1778
3204.77	1790
3205.59	1792
3206.4	1800
3207.21	1792
3208.02	1772
3208.84	1746
3209.65	1810
3210.46	1742
3211.27	1714
3212.09	1822
3212.9	1824
3213.71	1808
3214.52	1810
3215.33	1818
3216.14	1742
3216.96	1804
3217.77	1796
3218.58	1778
3219.39	1806
3220.2	1856
3221.01	1752
3221.82	1778
3222.63	1754
3223.44	1748
3224.25	1788
3225.06	1760
3225.87	1798
3226.68	1792
3227.49	1740
3228.3	1752
3229.11	1784
3229.92	1702
3230.73	1776
3231.54	1702
3232.35	1756
3233.16	1724
3233.97	1752
3234.77	1790
3235.58	1798
3236.39	1728
3237.2	1784
3238.01	1690
3238.82	1786
3239.63	1698
3240.43	1756
3241.24	1794
3242.05	1742
3242.86	1738
3243.66	1754
3244.47	1754
3245.28	1700
3246.09	1672
3246.89	1694
3247.7	1728
3248.51	1714
3249.31	1742
3250.12	1732
3250.93	1700
3251.73	1720
3252.54	1730
3253.35	1718
3254.15	1734
3254.96	1660
3255.76	1768
3256.57	1706
3257.38	1726
3258.18	1706
3258.99	1718
3259.79	1716
3260.6	1706
3261.4	1692
3262.21	1696
3263.01	1714
3263.82	1702
3264.62	1722
3265.43	1710
3266.23	1684
3267.04	1704
3267.84	1696
3268.64	1648
3269.45	1686
3270.25	1714
3271.06	1664
3271.86	1654
3272.66	1680
3273.47	1634
3274.27	1680
3275.07	1664
3275.88	1726
3276.68	1702
3277.48	1686
3278.28	1626
3279.09	1634
3279.89	1632
3280.69	1682
3281.49	1642
3282.3	1696
3283.1	1670
3283.9	1690
3284.7	1664
3285.5	1678
3286.31	1642
3287.11	1652
3287.91	1640
3288.71	1654
3289.51	1590
3290.31	1652
3291.11	1636
3291.91	1594
3292.71	1648
3293.51	1658
3294.31	1594
3295.12	1654
3295.92	1668
3296.72	1658
3297.52	1628
3298.32	1670
3299.12	1672
3299.92	1608
3300.72	1600
3301.51	1638
3302.31	1618
3303.11	1636
3303.91	1608
3304.71	1664
3305.51	1604
3306.31	1652
3307.11	1642
3307.91	1600
3308.71	1594
3309.5	1594
3310.3	1630
3311.1	1640
3311.9	1652
3312.7	1632
3313.49	1624
3314.29	1606
3315.09	1578
3315.89	1572
3316.69	1624
3317.48	1568
3318.28	1608
3319.08	1564
3319.87	1614
3320.67	1590
3321.47	1606
3322.26	1612
3323.06	1592
3323.86	1578
3324.65	1626
3325.45	1560
3326.25	1556
3327.04	1590
3327.84	1584
3328.63	1564
3329.43	1564
3330.22	1588
3331.02	1576
3331.81	1604
3332.61	1556
3333.4	1622
3334.2	1610
3334.99	1606
3335.79	1562
3336.58	1566
3337.38	1592
3338.17	1614
3338.97	1554
3339.76	1554
3340.56	1562
3341.35	1542
3342.14	1576
3342.94	1544
3343.73	1560
3344.52	1566
3345.32	1574
3346.11	1566
3346.9	1598
3347.7	1562
3348.49	1590
3349.28	1552
3350.08	1580
3350.87	1556
3351.66	1522
3352.45	1586
3353.25	1480
3354.04	1566
3354.83	1560
3355.62	1538
3356.41	1562
3357.21	1560
3358	1572
3358.79	1590
3359.58	1558
3360.37	1560
3361.16	1562
3361.95	1552
3362.75	1552
3363.54	1582
3364.33	1558
3365.12	1560
3365.91	1546
3366.7	1540
3367.49	1560
3368.28	1534
3369.07	1580
3369.86	1554
3370.65	1550
3371.44	1558
3372.23	1552
3373.02	1532
3373.81	1534
3374.6	1502
3375.39	1568
3376.18	1580
3376.97	1554
3377.75	1562
3378.54	1572
3379.33	1562
3380.12	1496
3380.91	1480
3381.7	1528
3382.49	1538
3383.27	1520
3384.06	1528
3384.85	1468
3385.64	1530
3386.43	1524
3387.21	1504
3388	1550
3388.79	1544
3389.58	1512
3390.36	1496
3391.15	1454
3391.94	1476
3392.72	1562
3393.51	1510
3394.3	1520
3395.08	1450
3395.87	1530
3396.66	1512
3397.44	1464
3398.23	1518
3399.01	1480
3399.8	1460
3400.59	1502
3401.37	1482
3402.16	1502
3402.94	1502
3403.73	1532
3404.51	1476
3405.3	1486
3406.08	1470
3406.87	1464
3407.65	1454
3408.44	1468
3409.22	1452
3410.01	1486
3410.79	1494
3411.58	1466
3412.36	1456
3413.14	1418
3413.93	1466
3414.71	1442
3415.5	1472
3416.28	1430
3417.06	1474
3417.85	1504
3418.63	1490
3419.41	1480
3420.2	1442
3420.98	1476
3421.76	1416
3422.54	1420
3423.33	1420
3424.11	1454
3424.89	1468
3425.67	1452
3426.46	1472
3427.24	1442
3428.02	1480
3428.8	1446
3429.58	1424
3430.36	1404
3431.15	1430
3431.93	1414
3432.71	1486
3433.49	1450
3434.27	1440
3435.05	1462
3435.83	1420
3436.61	1446
3437.4	1420
3438.18	1444
3438.96	1406
3439.74	1452
3440.52	1416
3441.3	1380
3442.08	1460
3442.86	1436
3443.64	1402
3444.42	1472
3445.2	1374
3445.98	1404
3446.76	1406
3447.53	1428
3448.31	1420
3449.09	1386
3449.87	1440
3450.65	1368
3451.43	1392
3452.21	1400
3452.99	1380
3453.77	1394
3454.54	1424
3455.32	1448
3456.1	1422
3456.88	1374
3457.66	1402
3458.43	1434
3459.21	1416
3459.99	1404
3460.77	1420
3461.54	1426
3462.32	1406
3463.1	1412
3463.88	1410
3464.65	1390
3465.43	1402
3466.21	1384
3466.98	1410
3467.76	1388
3468.53	1400
3469.31	1336
3470.09	1414
3470.86	1382
3471.64	1404
3472.42	1406
3473.19	1416
3473.97	1412
3474.74	1414
3475.52	1400
3476.29	1374
3477.07	1400
3477.84	1416
3478.62	1376
3479.39	1358
3480.17	1386
3480.94	1428
3481.72	1400
3482.49	1400
3483.27	1342
3484.04	1398
3484.82	1370
3485.59	1376
3486.36	1372
3487.14	1370
3487.91	1402
3488.68	1388
3489.46	1344
3490.23	1350
3491	1336
3491.78	1320
3492.55	1372
3493.32	1392
3494.1	1386
3494.87	1312
3495.64	1358
3496.42	1360
3497.19	1350
3497.96	1360
3498.73	1356
3499.5	1402
3500.28	1416
3501.05	1340
3501.82	1362
3502.59	1392
3503.36	1402
3504.14	1350
3504.91	1374
3505.68	1350
3506.45	1362
3507.22	1350
3507.99	1368
3508.76	1386
3509.53	1376
3510.3	1348
3511.07	1348
3511.84	1334
3512.61	1346
3513.38	1356
3514.16	1314
3514.92	1350
3515.7	1372
3516.46	1348
3517.23	1288
3518	1322
3518.77	1312
3519.54	1362
3520.31	1338
3521.08	1296
3521.85	1364
3522.62	1328
3523.39	1320
3524.16	1290
3524.93	1350
3525.69	1292
3526.46	1348
3527.23	1356
3528	1336
3528.77	1314
3529.53	1372
3530.3	1358
3531.07	1308
3531.84	1292
3532.61	1268
3533.37	1348
3534.14	1318
3534.91	1312
3535.68	1362
3536.44	1264
3537.21	1346
3537.98	1306
3538.74	1302
3539.51	1334
3540.28	1320
3541.04	1308
3541.81	1320
3542.58	1358
3543.34	1332
3544.11	1324
3544.87	1344
3545.64	1300
3546.4	1290
3547.17	1306
3547.94	1296
3548.7	1340
3549.47	1328
3550.23	1292
3551	1306
3551.76	1294
3552.53	1310
3553.29	1358
3554.06	1296
3554.82	1296
3555.59	1312
3556.35	1292
3557.11	1340
3557.88	1302
3558.64	1302
3559.41	1326
3560.17	1280
3560.93	1270
3561.7	1306
3562.46	1322
3563.22	1306
3563.99	1296
3564.75	1276
3565.51	1346
3566.28	1306
3567.04	1266
3567.8	1278
3568.56	1322
3569.33	1292
3570.09	1294
3570.85	1308
3571.61	1292
3572.38	1290
3573.14	1274
3573.9	1274
3574.66	1276
3575.42	1278
3576.19	1272
3576.95	1270
3577.71	1308
3578.47	1238
3579.23	1272
3579.99	1254
3580.75	1302
3581.51	1232
3582.28	1232
3583.04	1224
3583.8	1238
3584.56	1250
3585.32	1234
3586.08	1278
3586.84	1236
3587.6	1254
3588.36	1230
3589.12	1276
3589.88	1254
3590.64	1238
3591.4	1300
3592.16	1248
3592.92	1272
3593.67	1280
3594.43	1224
3595.19	1236
3595.95	1186
3596.71	1272
3597.47	1232
3598.23	1202
3598.99	1260
3599.75	1268
3600.5	1226
3601.26	1260
3602.02	1200
3602.78	1232
3603.54	1272
3604.29	1226
3605.05	1232
3605.81	1252
3606.57	1232
3607.32	1206
3608.08	1268
3608.84	1224
3609.59	1240
3610.35	1234
3611.11	1220
3611.87	1300
3612.62	1202
3613.38	1240
3614.13	1243
3614.89	1246
3615.65	1224
3616.4	1204
3617.16	1204
3617.92	1242
3618.67	1196
3619.43	1180
3620.18	1230
3620.94	1198
3621.69	1252
3622.45	1218
3623.2	1220
3623.96	1224
3624.71	1208
3625.47	1206
3626.22	1160
3626.98	1230
3627.73	1218
3628.49	1218
3629.24	1210
3630	1264
3630.75	1222
3631.5	1186
3632.26	1202
3633.01	1230
3633.77	1204
3634.52	1202
3635.27	1186
3636.03	1190
3636.78	1202
3637.53	1178
3638.29	1178
3639.04	1216
3639.79	1192
3640.55	1190
3641.3	1166
3642.05	1148
3642.8	1180
3643.56	1172
3644.31	1126
3645.06	1222
3645.81	1204
3646.56	1216
3647.32	1178
3648.07	1192
3648.82	1170
3649.57	1156
3650.32	1188
3651.07	1188
3651.83	1194
3652.58	1230
3653.33	1174
3654.08	1186
3654.83	1186
3655.58	1198
3656.33	1174
3657.08	1208
3657.83	1218
3658.58	1152
3659.33	1146
3660.08	1148
3660.83	1176
3661.58	1176
3662.33	1202
3663.08	1174
3663.83	1172
3664.58	1144
3665.33	1150
3666.08	1156
3666.83	1186
3667.58	1150
3668.33	1184
3669.08	1166
3669.83	1192
3670.57	1134
3671.32	1174
3672.07	1178
3672.82	1156
3673.57	1146
3674.32	1128
3675.07	1142
3675.81	1138
3676.56	1178
3677.31	1170
3678.06	1190
3678.8	1146
3679.55	1158
3680.3	1150
3681.05	1144
3681.79	1142
3682.54	1144
3683.29	1106
3684.04	1174
3684.78	1118
3685.53	1174
3686.28	1176
3687.02	1140
3687.77	1140
3688.51	1140
3689.26	1176
3690.01	1162
3690.75	1162
3691.5	1162
3692.24	1150
3692.99	1114
3693.74	1134
3694.48	1132
3695.23	1130
3695.97	1140
3696.72	1110
3697.46	1146
3698.21	1140
3698.95	1144
3699.7	1168
3700.44	1148
3701.19	1122
3701.93	1102
3702.68	1168
3703.42	1108
3704.16	1134
3704.91	1162
3705.65	1136
3706.4	1132
3707.14	1162
3707.88	1178
3708.63	1112
3709.37	1118
3710.11	1154
3710.86	1120
3711.6	1092
3712.34	1146
3713.09	1122
3713.83	1090
3714.57	1162
3715.31	1112
3716.06	1134
3716.8	1134
3717.54	1152
3718.28	1112
3719.03	1126
3719.77	1120
3720.51	1098
3721.25	1096
3721.99	1074
3722.74	1094
3723.48	1070
3724.22	1108
3724.96	1086
3725.7	1092
3726.44	1090
3727.18	1146
3727.92	1110
3728.67	1118
3729.41	1128
3730.15	1118
3730.89	1132
3731.63	1112
3732.37	1130
3733.11	1068
3733.85	1058
3734.59	1144
3735.33	1102
3736.07	1086
3736.81	1138
3737.55	1120
3738.29	1094
3739.03	1090
3739.77	1060
3740.51	1138
3741.24	1064
3741.98	1078
3742.72	1104
3743.46	1096
3744.2	1028
3744.94	1134
3745.68	1096
3746.42	1120
3747.15	1074
3747.89	1104
3748.63	1074
3749.37	1072
3750.11	1120
3750.84	1094
3751.58	1060
3752.32	1086
3753.06	1078
3753.79	1122
3754.53	1076
3755.27	1098
3756.01	1082
3756.74	1038
3757.48	1134
3758.22	1108
3758.95	1098
3759.69	1080
3760.43	1092
3761.16	1054
3761.9	1120
3762.64	1112
3763.37	1101.84
3764.11	1046.35
3764.84	1101
3765.58	1071.89
3766.32	1081.7
3767.05	1064.08
3767.79	1090.39
3768.52	1091.12
3769.26	1053.05
3769.99	1034.73
3770.73	1077.46
3771.46	1040.23
3772.2	1101.6
3772.93	1037.87
3773.67	1095.34
3774.4	1094.51
3775.14	1030.81
3775.87	1062.04
3776.61	1030.48
3777.34	1120.87
3778.07	1057.42
3778.81	1035.32
3779.54	1072.99
3780.28	1061.37
3781.01	1038.97
3781.74	1070.34
3782.48	1028.65
3783.21	1057.41
3783.94	1033.7
3784.68	1048.6
3785.41	1036.78
3786.14	1058.34
3786.88	1086.83
3787.61	1053.29
3788.34	1063.85
3789.07	1045.11
3789.81	1029.87
3790.54	1063.79
3791.27	1061.36
3792	1044.92
3792.74	1057.32
3793.47	1039.28
3794.2	1034.86
3794.93	1015.92
3795.66	1038.82
3796.4	1052.35
3797.13	1051.63
3797.86	1043.1
3798.59	1046.97
3799.32	1041.2
3800.05	1040.72
3800.78	1040.59
3801.52	1034.75
3802.25	1051.53
3802.98	1038.72
3803.71	1051
3804.44	1031.87
3805.17	1065.58
3805.9	1031.3
3806.63	1043.64
3807.36	1049.82
3808.09	1042.55
3808.82	1045.24
3809.55	1051.78
3810.28	1063.69
3811.01	1052.88
3811.74	1044.2
3812.47	1039.81
3813.2	1040.38
3813.93	1039.73
3814.66	1018.77
3815.38	1021.8
3816.11	1032.22
3816.84	1036.13
3817.57	1037.04
3818.3	1046.62
3819.03	1046.08
3819.76	1025.31
3820.49	1020.71
3821.21	1014.36
3821.94	1020.28
3822.67	1014.24
3823.4	1001.58
3824.13	1006.79
3824.85	1027.3
3825.58	1033.1
3826.31	1030.08
3827.04	1022.61
3827.77	1019.74
3828.49	1026.33
3829.22	1017.96
3829.95	1014.13
3830.67	1016.87
3831.4	988.02
3832.13	1005.63
3832.85	1020.39
3833.58	1020.89
3834.31	1026.98
3835.03	977.322
3835.76	992.19
3836.49	1007.57
3837.21	984.674
3837.94	989.319
3838.52	978
3839.25	978
3839.98	982
3840.71	1018
3841.44	986
3842.17	994
3842.9	998
3843.63	982
3844.36	990
3845.09	1000
3845.82	996
3846.55	966
3847.28	974
3848	1010
3848.73	984
3849.46	1012
3850.19	1004
3850.92	990
3851.65	998
3852.38	1008
3853.1	1008
3853.83	990
3854.56	974
3855.29	1006
3856.02	996
3856.74	960
3857.47	998
3858.2	994
3858.93	994
3859.65	964
3860.38	984
3861.11	1018
3861.84	1000
3862.56	976
3863.29	1006
3864.02	974
3864.74	988
3865.47	954
3866.2	978
3866.92	972
3867.65	982
3868.38	972
3869.1	948
3869.83	976
3870.55	996
3871.28	1026
3872.01	978
3872.73	970
3873.46	1006
3874.18	964
3874.91	1016
3875.63	1004
3876.36	980
3877.08	970
3877.81	994
3878.53	954
3879.26	962
3879.98	962
3880.71	932
3881.43	934
3882.16	958
3882.88	970
3883.6	992
3884.33	958
3885.05	976
3885.78	942
3886.5	982
3887.22	976
3887.95	946
3888.67	996
3889.4	982
3890.12	940
3890.84	968
3891.57	990
3892.29	976
3893.01	1022
3893.73	986
3894.46	956
3895.18	948
3895.9	942
3896.63	944
3897.35	972
3898.07	962
3898.79	988
3899.51	970
3900.24	990
3900.96	962
3901.68	924
3902.4	970
3903.12	976
3903.84	946
3904.57	944
3905.29	970
3906.01	944
3906.73	982
3907.45	970
3908.17	964
3908.89	974
3909.61	944
3910.33	962
3911.06	940
3911.78	982
3912.5	888
3913.22	958
3913.94	940
3914.66	924
3915.38	958
3916.1	976
3916.82	938
3917.54	928
3918.26	924
3918.98	938
3919.69	928
3920.41	950
3921.13	936
3921.85	976
3922.57	906
3923.29	938
3924.01	932
3924.73	934
3925.45	972
3926.17	960
3926.88	932
3927.6	974
3928.32	924
3929.04	958
3929.76	936
3930.47	894
3931.19	916
3931.91	930
3932.63	946
3933.35	948
3934.06	988
3934.78	952
3935.5	916
3936.22	938
3936.93	986
3937.65	922
3938.37	946
3939.08	906
3939.8	902
3940.52	932
3941.23	934
3941.95	910
3942.67	930
3943.38	914
3944.1	930
3944.82	948
3945.53	896
3946.25	894
3946.96	944
3947.68	936
3948.4	920
3949.11	928
3949.83	956
3950.54	934
3951.26	902
3951.97	920
3952.69	930
3953.4	932
3954.12	914
3954.83	888
3955.55	924
3956.26	904
3956.98	926
3957.69	884
3958.4	888
3959.12	930
3959.83	940
3960.55	932
3961.26	902
3961.97	858
3962.69	930
3963.4	936
3964.12	924
3964.83	930
3965.54	860
3966.26	940
3966.97	954
3967.68	876
3968.4	940
3969.11	912
3969.82	900
3970.53	880
3971.25	906
3971.96	862
3972.67	916
3973.38	902
3974.1	892
3974.81	892
3975.52	890
3976.23	876
3976.94	894
3977.66	904
3978.37	890
3979.08	924
3979.79	868
3980.5	884
3981.21	860
3981.92	858
3982.64	884
3983.35	908
3984.06	900
3984.77	890
3985.48	870
3986.19	896
3986.9	884
3987.61	894
3988.32	868
3989.03	910
3989.74	908
3990.45	870
3991.16	898
3991.87	912
3992.58	888
3993.29	876
3994	840
3994.71	908
3995.42	912
3996.13	882
3996.84	912
3997.55	884
3998.26	878
3998.97	864
3999.67	874
