#Acq. time (s)=	10
#Accumulations=	1
#Range (cm-¹)=	200...4000
#Windows=	5
#Autofocus=	Off
#AutoExposure=	Off
#Spike filter=	Off
#Delay time (s)=	0
#Binning=	1
#Readout mode=	Signal
#DeNoise=	Off
#ICS correction=	Off
#Dark correction=	Off
#Inst. Process=	Off
#Instrument=	LabRAM HR Evol
#Detector=	Syncerity OE
#Objective=	x100_VIS
#Grating=	600 (500nm)
#ND Filter=	25%
#Laser=	633nm_Edge
#Hole=	100.021
#Range=	Visible
#Project=	Omar
#Sample=	03-07-23
#Site=	1
#Title=	OR
#Remark=	
#Date=	03.07.2023 13:36
#Acquired=	03.07.2023 13:36:36
200.404	2318
201.671	2344
202.938	2360
204.205	2382
205.472	2392
206.737	2400
208.003	2354
209.269	2394
210.535	2354
211.799	2370
213.064	2328
214.33	2412
215.595	2394
216.858	2366
218.122	2366
219.387	2360
220.649	2382
221.913	2396
223.177	2352
224.439	2414
225.703	2380
226.966	2382
228.227	2388
229.49	2420
230.752	2448
232.013	2432
233.275	2428
234.536	2424
235.798	2474
237.059	2434
238.319	2378
239.58	2432
240.839	2476
242.1	2524
243.361	2468
244.619	2436
245.879	2470
247.138	2508
248.398	2482
249.655	2490
250.915	2476
252.172	2426
253.431	2482
254.688	2512
255.947	2486
257.204	2440
258.462	2532
259.718	2540
260.976	2462
262.232	2462
263.487	2488
264.744	2466
266	2488
267.256	2482
268.511	2484
269.767	2474
271.022	2488
272.276	2450
273.532	2514
274.786	2478
276.04	2442
277.295	2456
278.548	2516
279.801	2484
281.055	2516
282.308	2436
283.561	2492
284.814	2512
286.066	2468
287.318	2476
288.572	2560
289.823	2564
291.074	2556
292.327	2602
293.578	2580
294.828	2560
296.079	2604
297.331	2510
298.581	2528
299.831	2538
301.08	2602
302.33	2634
303.581	2694
304.83	2634
306.079	2598
307.327	2644
308.576	2634
309.825	2624
311.073	2582
312.321	2634
313.569	2614
314.816	2642
316.064	2620
317.311	2646
318.558	2682
319.806	2598
321.052	2578
322.299	2590
323.545	2612
324.79	2596
326.036	2660
327.282	2662
328.527	2650
329.772	2664
331.017	2580
332.261	2658
333.506	2618
334.75	2668
335.994	2664
337.238	2588
338.482	2606
339.725	2632
340.968	2606
342.211	2696
343.454	2698
344.697	2674
345.939	2616
347.182	2642
348.424	2674
349.666	2648
350.907	2670
352.149	2712
353.39	2664
354.631	2646
355.87	2676
357.111	2632
358.352	2690
359.592	2720
360.832	2724
362.072	2730
363.311	2726
364.549	2706
365.789	2672
367.028	2744
368.267	2678
369.505	2740
370.742	2676
371.981	2746
373.219	2724
374.457	2720
375.694	2646
376.93	2730
378.168	2736
379.405	2652
380.642	2790
381.877	2708
383.113	2766
384.35	2652
385.584	2692
386.82	2696
388.056	2698
389.291	2702
390.525	2716
391.76	2680
392.995	2686
394.228	2710
395.463	2780
396.696	2692
397.93	2640
399.164	2728
400.396	2732
401.63	2720
402.863	2792
404.095	2708
405.328	2712
406.559	2816
407.791	2784
409.022	2784
410.254	2726
411.486	2756
412.717	2866
413.948	2820
415.178	2808
416.409	2846
417.639	2808
418.87	2828
420.099	2948
421.329	2834
422.558	2852
423.788	2870
425.016	2866
426.244	2882
427.474	2874
428.701	2888
429.93	2878
431.158	2890
432.386	2928
433.613	2848
434.84	2928
436.068	2864
437.294	2850
438.522	2888
439.748	2930
440.974	2910
442.201	2974
443.426	2922
444.651	2948
445.878	2912
447.103	2950
448.327	2952
449.553	2968
450.777	2926
452.001	2940
453.225	2908
454.45	2844
455.674	2884
456.897	2930
458.121	2916
459.344	2894
460.567	2910
461.789	2880
463.012	2906
464.235	2890
465.457	2952
466.679	2900
467.9	2934
469.122	2878
470.344	2966
471.565	2918
472.786	2948
474.006	2912
475.227	2910
476.447	3006
477.668	2978
478.888	2940
480.107	3000
481.327	2986
482.546	2998
483.765	3006
484.984	2982
486.202	2950
487.421	3034
488.639	2928
489.857	2980
491.075	3048
492.292	3036
493.51	3000
494.727	3014
495.944	2952
497.161	3028
498.377	3040
499.594	2966
500.81	3084
502.026	3074
503.242	3010
504.458	2938
505.673	3038
506.888	2964
508.104	3008
509.318	3022
510.533	3080
511.748	3066
512.962	3040
514.176	3052
515.39	3030
516.602	3006
517.816	3008
519.029	3018
520.242	3008
521.455	2990
522.668	3122
523.881	2982
525.092	2966
526.304	3000
527.516	3012
528.728	2972
529.939	3046
531.149	3032
532.361	3052
533.572	3026
534.783	3040
535.992	3112
537.202	3002
538.413	3060
539.623	3004
540.831	3058
542.041	3000
543.25	3034
544.458	2998
545.667	2958
546.876	2994
548.084	3030
549.292	3104
550.501	3098
551.707	3068
552.915	2982
554.123	3012
555.329	2978
556.537	3036
557.743	3000
558.95	3048
560.156	2952
561.362	3102
562.568	3044
563.773	3020
564.979	3080
566.184	3014
567.389	3074
568.595	3044
569.799	3040
571.004	3102
572.207	3094
573.412	3086
574.615	3046
575.82	3074
577.022	3088
578.226	3086
579.429	3040
580.631	3070
581.834	3134
583.036	3098
584.239	3108
585.44	3050
586.643	3072
587.844	3086
589.045	3108
590.247	3062
591.448	3066
592.649	3086
593.849	3110
595.049	3122
596.25	3126
597.45	3172
598.649	3112
599.85	3184
601.049	3156
602.248	3116
603.448	3184
604.646	3120
605.844	3146
607.042	3152
608.241	3160
609.439	3198
610.637	3116
611.834	3152
613.032	3140
614.229	3174
615.426	3146
616.622	3176
617.819	3166
619.016	3182
620.212	3202
621.408	3256
622.603	3134
623.799	3212
624.994	3224
626.19	3196
627.385	3228
628.58	3278
629.774	3272
630.969	3236
632.163	3200
633.356	3254
634.55	3282
635.744	3230
636.938	3274
638.131	3262
639.324	3282
640.517	3240
641.71	3236
642.902	3298
644.094	3270
645.286	3308
646.478	3218
647.67	3268
648.861	3254
650.052	3270
651.243	3298
652.434	3332
653.625	3304
654.815	3250
656.006	3314
657.196	3292
658.384	3256
659.574	3212
660.764	3256
661.953	3220
663.142	3254
664.331	3256
665.52	3236
666.709	3230
667.897	3264
669.084	3338
670.272	3254
671.46	3238
672.648	3256
673.835	3370
675.021	3276
676.208	3278
677.395	3270
678.582	3234
679.768	3282
680.953	3266
682.14	3306
683.326	3322
684.512	3276
685.696	3272
686.881	3260
688.067	3264
689.252	3216
690.435	3306
691.62	3282
692.804	3272
693.987	3322
695.171	3260
696.355	3298
697.538	3272
698.721	3258
699.905	3310
701.087	3276
702.27	3262
703.451	3276
704.634	3276
705.816	3310
706.997	3374
708.179	3262
709.36	3264
710.542	3192
711.722	3342
712.903	3334
714.083	3340
715.264	3360
716.445	3282
717.624	3296
718.805	3338
719.984	3350
721.162	3352
722.342	3316
723.52	3326
724.7	3460
725.878	3310
727.057	3372
728.235	3378
729.414	3322
730.591	3296
731.768	3340
732.946	3320
734.123	3468
735.301	3332
736.477	3318
737.653	3334
738.83	3332
740.006	3338
741.182	3376
742.358	3422
743.534	3430
744.709	3362
745.885	3390
747.06	3408
748.234	3432
749.41	3330
750.584	3394
751.758	3402
752.931	3414
754.106	3380
755.28	3386
756.453	3392
757.626	3388
758.8	3336
759.973	3312
761.145	3362
762.318	3434
763.49	3356
764.662	3380
765.835	3396
767.006	3350
768.178	3348
769.349	3368
770.52	3356
771.691	3430
772.861	3378
774.033	3400
775.203	3358
776.373	3380
777.543	3400
778.713	3418
779.883	3374
781.052	3348
782.221	3416
783.39	3398
784.559	3344
785.727	3444
786.896	3388
788.064	3470
789.232	3452
790.4	3376
791.568	3382
792.735	3450
793.903	3464
795.07	3470
796.237	3444
797.404	3428
798.57	3386
799.737	3356
800.903	3408
802.068	3436
803.234	3432
804.399	3452
805.565	3488
806.73	3436
807.896	3462
809.061	3452
810.224	3426
811.389	3442
812.553	3476
813.717	3488
814.881	3458
816.045	3486
817.208	3426
818.371	3478
819.535	3524
820.698	3474
821.859	3492
823.022	3492
824.185	3546
825.347	3522
826.508	3496
827.67	3510
828.832	3536
829.993	3484
831.154	3502
832.316	3566
833.476	3510
834.637	3502
835.797	3566
836.957	3530
838.117	3582
839.278	3504
840.436	3600
841.596	3550
842.755	3592
843.914	3536
845.074	3496
846.232	3500
847.391	3556
848.548	3542
849.707	3564
850.864	3502
852.022	3556
853.179	3508
854.337	3626
855.493	3516
856.651	3564
857.807	3600
858.964	3550
860.12	3588
861.277	3626
862.432	3596
863.589	3570
864.744	3616
865.9	3654
867.055	3598
868.209	3564
869.365	3530
870.519	3556
871.674	3608
872.828	3596
873.982	3576
875.136	3628
876.29	3560
877.443	3632
878.597	3584
879.75	3554
880.902	3588
882.056	3574
883.208	3640
884.36	3514
885.512	3600
886.665	3596
887.816	3610
888.967	3502
890.118	3538
891.271	3540
892.421	3554
893.572	3574
894.722	3534
895.874	3690
897.024	3634
898.174	3580
899.323	3556
900.473	3468
901.622	3612
902.771	3514
903.922	3516
905.07	3566
906.219	3610
907.367	3644
908.516	3586
909.664	3510
910.811	3540
911.959	3532
913.107	3542
914.254	3490
915.401	3548
916.55	3502
917.696	3618
918.843	3544
919.99	3538
921.136	3604
922.282	3620
923.428	3540
924.574	3594
925.719	3618
926.863	3542
928.009	3540
929.154	3598
930.299	3606
931.443	3556
932.588	3646
933.732	3588
934.876	3588
936.02	3576
937.164	3632
938.308	3560
939.45	3630
940.593	3566
941.736	3586
942.879	3582
944.022	3648
945.165	3648
946.306	3576
947.448	3688
948.59	3618
949.732	3640
950.874	3644
952.014	3614
953.155	3660
954.296	3618
955.437	3578
956.577	3590
957.718	3634
958.858	3642
959.997	3628
961.137	3666
962.277	3686
963.416	3688
964.555	3684
965.695	3636
966.833	3772
967.972	3620
969.111	3672
970.248	3626
971.387	3680
972.524	3704
973.662	3746
974.8	3644
975.936	3618
977.074	3708
978.21	3762
979.348	3736
980.483	3644
981.62	3640
982.757	3676
983.893	3760
985.029	3710
986.164	3732
987.299	3692
988.435	3754
989.569	3720
990.705	3784
991.839	3706
992.974	3696
994.108	3682
995.243	3704
996.376	3666
997.509	3708
998.644	3644
999.777	3714
1000.91	3684
1002.04	3762
1003.18	3728
1004.31	3660
1005.44	3726
1006.57	3714
1007.71	3744
1008.84	3730
1009.97	3758
1011.1	3792
1012.23	3670
1013.36	3736
1014.49	3696
1015.63	3734
1016.76	3792
1017.89	3714
1019.02	3788
1020.15	3758
1021.28	3746
1022.41	3744
1023.54	3682
1024.66	3752
1025.79	3748
1026.92	3784
1028.05	3716
1029.18	3772
1030.31	3840
1031.44	3770
1032.56	3810
1033.69	3818
1034.82	3840
1035.95	3748
1037.08	3820
1038.2	3746
1039.33	3852
1040.46	3844
1041.58	3826
1042.71	3830
1043.83	3816
1044.96	3836
1046.09	3856
1047.21	3802
1048.34	3820
1049.46	3846
1050.59	3888
1051.71	3836
1052.84	3888
1053.96	3824
1055.09	3870
1056.21	3880
1057.33	3778
1058.46	3831
1059.58	3884
1060.71	3878
1061.83	3892
1062.95	3940
1064.07	3846
1065.2	3844
1066.32	3764
1067.44	3810
1068.56	3902
1069.69	3878
1070.81	3860
1071.93	3856
1073.05	3864
1074.17	3796
1075.29	3864
1076.41	3890
1077.54	3850
1078.66	3848
1079.78	3842
1080.9	3866
1082.02	3890
1083.14	3896
1084.25	3892
1085.37	3876
1086.49	3816
1087.61	3856
1088.73	3810
1089.85	3882
1090.97	3882
1092.09	3914
1093.21	3878
1094.32	3788
1095.44	3830
1096.56	3760
1097.68	3856
1098.79	3864
1099.91	3810
1101.03	3888
1102.14	3802
1103.26	3888
1104.38	3858
1105.49	3916
1106.61	3772
1107.72	3796
1108.84	3862
1109.96	3852
1111.07	3834
1112.19	3850
1113.3	3846
1114.42	3850
1115.53	3850
1116.64	3884
1117.76	3828
1118.87	3860
1119.99	3834
1121.1	3794
1122.21	3914
1123.33	3860
1124.44	3902
1125.55	3888
1126.66	3922
1127.78	3868
1128.89	3876
1130	3844
1131.11	3864
1132.23	3878
1133.34	3836
1134.45	3960
1135.56	3868
1136.67	3828
1137.78	3930
1138.89	3934
1140	3936
1141.11	3826
1142.22	3908
1143.33	3884
1144.44	3910
1145.55	3950
1146.66	3904
1147.77	3928
1148.88	3996
1149.99	3958
1151.1	3984
1152.21	3966
1153.32	3894
1154.42	3946
1155.53	3904
1156.64	4008
1157.75	3954
1158.85	3992
1159.96	3952
1161.07	3970
1162.17	4044
1163.28	3972
1164.39	3972
1165.49	3928
1166.6	3930
1167.71	4022
1168.81	4024
1169.92	4018
1171.02	3880
1172.13	3984
1173.23	4026
1174.34	3974
1175.44	4040
1176.55	3966
1177.65	3916
1178.76	4010
1179.86	4028
1180.97	4008
1182.07	3982
1183.17	3994
1184.28	3952
1185.38	3968
1186.48	3984
1187.58	4022
1188.69	4048
1189.79	4006
1190.89	4030
1191.99	4038
1193.1	3984
1194.2	3932
1195.3	4022
1196.4	3976
1197.5	3938
1198.6	4012
1199.7	4004
1200.8	3972
1201.9	3966
1203	3944
1204.1	4050
1205.2	3966
1206.3	3996
1207.4	3930
1208.5	4004
1209.6	3930
1210.7	4000
1211.8	3954
1212.9	3960
1214	3952
1215.1	3860
1216.19	3942
1217.29	3954
1218.39	3912
1219.49	3978
1220.58	3968
1221.68	3950
1222.78	3988
1223.88	3910
1224.97	3952
1226.07	3994
1227.17	3994
1228.26	4026
1229.36	3980
1230.45	3894
1231.55	3938
1232.65	3954
1233.74	4010
1234.84	3952
1235.93	3970
1237.02	3980
1238.12	4010
1239.21	4010
1240.31	3960
1241.4	3962
1242.5	3978
1243.59	3960
1244.68	4066
1245.78	3920
1246.87	3922
1247.96	3966
1249.06	4042
1250.15	4004
1251.24	4002
1252.33	3976
1253.43	4018
1254.52	4034
1255.61	3918
1256.7	4032
1257.79	3954
1258.88	3988
1259.98	3984
1261.07	4030
1262.16	4036
1263.25	4012
1264.34	4002
1265.43	4032
1266.52	4082
1267.61	4030
1268.7	4054
1269.79	4086
1270.88	4148
1271.96	4062
1273.05	4102
1274.14	4048
1275.23	4042
1276.32	4092
1277.41	4026
1278.5	4058
1279.58	4104
1280.67	4035.64
1281.76	4009.62
1282.85	4068.7
1283.93	4066.6
1285.02	4066.07
1286.11	4024.6
1287.19	4085.38
1288.28	4040.05
1289.37	4180
1290.45	4033.11
1291.54	4099.43
1292.63	4097.42
1293.71	4087.03
1294.8	4091.33
1295.88	4169.96
1296.97	4172.88
1298.05	4173.37
1299.14	4112.1
1300.22	4177.64
1301.31	4137.8
1302.39	4121.03
1303.47	4093.23
1304.56	4171.74
1305.64	4224.25
1306.72	4149.36
1307.81	4168.04
1308.89	4192.02
1309.97	4147.17
1311.06	4176.63
1312.14	4195.31
1313.22	4215.43
1314.3	4201.82
1315.39	4213.72
1316.47	4252.69
1317.55	4231.64
1318.63	4228.01
1319.71	4160.65
1320.79	4160.18
1321.88	4188.61
1322.96	4220.58
1324.04	4211.07
1325.12	4277.02
1326.2	4236.89
1327.28	4206.36
1328.36	4261.83
1329.44	4260.42
1330.52	4247.84
1331.6	4223.73
1332.68	4266.28
1333.76	4264.19
1334.84	4303.8
1335.91	4335.65
1336.99	4273.3
1338.07	4218.8
1339.15	4255.81
1340.23	4329.93
1341.31	4268.69
1342.38	4253.21
1343.46	4280.72
1344.54	4295.82
1345.62	4318
1346.69	4298.97
1347.77	4303.31
1348.85	4309.3
1349.92	4297.99
1351	4245.03
1352.08	4269.18
1353.15	4321.36
1354.23	4317.6
1355.3	4255.75
1356.38	4255.8
1357.46	4293.71
1358.53	4292.33
1359.6	4254.64
1360.68	4314.09
1361.75	4360.45
1362.83	4305.26
1363.9	4283.35
1364.98	4333.31
1366.05	4327.51
1367.13	4341.36
1368.2	4331.1
1369.27	4329.88
1370.35	4353.36
1371.42	4393.99
1372.49	4365.99
1373.56	4346.66
1374.64	4372.45
1375.71	4406.77
1376.78	4376.76
1377.85	4354.48
1378.93	4341.69
1380	4321.67
1381.07	4373.88
1382.14	4372.9
1383.21	4332.47
1384.28	4337.74
1385.35	4352.37
1386.43	4322.19
1387.5	4319.99
1388.57	4326.1
1389.64	4301.14
1390.13	4292
1391.2	4392
1392.28	4376
1393.35	4302
1394.43	4304
1395.5	4354
1396.57	4422
1397.65	4324
1398.72	4256
1399.8	4380
1400.87	4342
1401.94	4340
1403.02	4398
1404.09	4326
1405.17	4362
1406.24	4360
1407.31	4342
1408.38	4320
1409.46	4322
1410.53	4216
1411.6	4354
1412.67	4306
1413.74	4344
1414.82	4354
1415.89	4288
1416.96	4382
1418.03	4312
1419.1	4304
1420.17	4322
1421.24	4218
1422.31	4394
1423.38	4310
1424.45	4348
1425.52	4312
1426.59	4298
1427.66	4408
1428.73	4314
1429.8	4314
1430.87	4294
1431.94	4344
1433.01	4230
1434.08	4330
1435.14	4306
1436.21	4336
1437.28	4320
1438.35	4288
1439.42	4350
1440.48	4352
1441.55	4326
1442.62	4374
1443.68	4326
1444.75	4278
1445.82	4300
1446.89	4268
1447.95	4358
1449.02	4240
1450.08	4302
1451.15	4372
1452.22	4342
1453.28	4338
1454.35	4292
1455.41	4250
1456.48	4366
1457.54	4262
1458.61	4406
1459.67	4276
1460.73	4344
1461.8	4290
1462.86	4372
1463.93	4314
1464.99	4394
1466.05	4302
1467.12	4324
1468.18	4384
1469.24	4344
1470.31	4376
1471.37	4414
1472.43	4338
1473.49	4414
1474.56	4310
1475.62	4396
1476.68	4320
1477.74	4376
1478.8	4402
1479.86	4288
1480.93	4362
1481.99	4396
1483.05	4358
1484.11	4412
1485.17	4284
1486.23	4358
1487.29	4352
1488.35	4358
1489.41	4414
1490.47	4362
1491.53	4390
1492.59	4332
1493.65	4416
1494.71	4374
1495.76	4338
1496.82	4390
1497.88	4422
1498.94	4338
1500	4342
1501.06	4350
1502.11	4348
1503.17	4290
1504.23	4394
1505.29	4366
1506.34	4376
1507.4	4306
1508.46	4416
1509.51	4274
1510.57	4378
1511.63	4378
1512.68	4354
1513.74	4382
1514.8	4352
1515.85	4386
1516.91	4384
1517.96	4352
1519.02	4396
1520.07	4308
1521.13	4300
1522.18	4298
1523.24	4308
1524.29	4336
1525.34	4316
1526.4	4296
1527.45	4358
1528.51	4406
1529.56	4262
1530.61	4380
1531.67	4314
1532.72	4364
1533.77	4350
1534.82	4364
1535.88	4430
1536.93	4284
1537.98	4424
1539.03	4346
1540.08	4312
1541.14	4316
1542.19	4376
1543.24	4446
1544.29	4384
1545.34	4318
1546.39	4352
1547.44	4264
1548.49	4350
1549.54	4398
1550.59	4364
1551.64	4354
1552.69	4356
1553.74	4300
1554.79	4400
1555.84	4304
1556.89	4404
1557.94	4338
1558.99	4358
1560.04	4444
1561.09	4382
1562.14	4318
1563.18	4320
1564.23	4354
1565.28	4378
1566.33	4338
1567.37	4412
1568.42	4452
1569.47	4344
1570.52	4378
1571.56	4370
1572.61	4394
1573.66	4378
1574.7	4336
1575.75	4374
1576.79	4368
1577.84	4346
1578.89	4390
1579.93	4316
1580.98	4304
1582.02	4330
1583.07	4346
1584.11	4446
1585.16	4388
1586.2	4388
1587.25	4372
1588.29	4462
1589.34	4328
1590.38	4364
1591.42	4352
1592.47	4290
1593.51	4394
1594.55	4360
1595.6	4348
1596.64	4422
1597.68	4352
1598.72	4374
1599.77	4384
1600.81	4284
1601.85	4374
1602.89	4354
1603.94	4392
1604.98	4292
1606.02	4394
1607.06	4366
1608.1	4296
1609.14	4334
1610.18	4334
1611.22	4312
1612.26	4360
1613.3	4460
1614.34	4436
1615.38	4428
1616.42	4388
1617.46	4330
1618.5	4336
1619.54	4292
1620.58	4428
1621.62	4330
1622.66	4300
1623.7	4288
1624.74	4404
1625.78	4422
1626.81	4364
1627.85	4382
1628.89	4338
1629.93	4312
1630.97	4324
1632	4354
1633.04	4300
1634.08	4356
1635.11	4314
1636.15	4280
1637.19	4284
1638.22	4322
1639.26	4232
1640.3	4314
1641.33	4374
1642.37	4286
1643.4	4224
1644.44	4262
1645.47	4220
1646.51	4242
1647.55	4208
1648.58	4182
1649.61	4270
1650.65	4206
1651.68	4114
1652.72	4236
1653.75	4098
1654.79	4186
1655.82	4120
1656.85	4192
1657.89	4156
1658.92	4142
1659.95	4186
1660.98	4096
1662.02	4132
1663.05	4100
1664.08	4248
1665.12	4106
1666.15	4080
1667.18	4150
1668.21	4118
1669.24	4078
1670.27	4054
1671.3	4116
1672.34	4092
1673.37	4040
1674.4	4020
1675.43	4054
1676.46	4098
1677.49	4098
1678.52	4064
1679.55	4044
1680.58	4036
1681.61	4064
1682.64	3956
1683.67	4030
1684.7	4008
1685.73	4014
1686.75	3996
1687.78	4010
1688.81	4054
1689.84	3970
1690.87	4028
1691.9	4022
1692.93	4030
1693.95	3996
1694.98	3986
1696.01	4082
1697.03	3990
1698.06	3990
1699.09	4044
1700.12	3942
1701.14	4002
1702.17	3986
1703.2	3996
1704.22	3948
1705.25	4026
1706.27	4014
1707.3	3966
1708.32	3980
1709.35	4032
1710.37	3938
1711.4	3946
1712.42	3956
1713.45	3996
1714.47	3968
1715.5	3960
1716.52	3958
1717.55	4024
1718.57	3954
1719.59	3970
1720.62	3928
1721.64	3956
1722.67	3856
1723.69	3992
1724.71	3896
1725.73	3952
1726.76	3928
1727.78	4002
1728.8	3930
1729.82	3876
1730.84	3934
1731.87	3982
1732.89	3926
1733.91	3878
1734.93	3848
1735.95	3920
1736.97	3942
1737.99	3900
1739.01	3946
1740.04	3954
1741.06	3912
1742.08	3940
1743.1	3936
1744.12	3974
1745.14	3958
1746.16	3974
1747.18	4006
1748.19	3944
1749.21	3892
1750.23	3872
1751.25	3912
1752.27	3986
1753.29	3992
1754.31	3918
1755.33	3946
1756.34	4008
1757.36	3886
1758.38	3930
1759.4	3928
1760.41	3990
1761.43	3988
1762.45	3886
1763.47	3874
1764.48	3956
1765.5	3918
1766.51	3878
1767.53	3932
1768.55	3918
1769.56	3956
1770.58	3980
1771.6	3902
1772.61	4008
1773.63	3944
1774.64	3942
1775.66	3942
1776.67	3892
1777.69	3902
1778.7	3958
1779.71	3964
1780.73	3934
1781.74	3906
1782.76	3970
1783.77	3914
1784.78	3954
1785.8	3930
1786.81	3906
1787.82	4020
1788.84	3976
1789.85	3942
1790.86	3902
1791.88	3958
1792.89	3942
1793.9	3920
1794.91	3898
1795.92	3878
1796.94	3926
1797.95	4016
1798.96	4066
1799.97	3898
1800.98	3800
1801.99	3924
1803	3934
1804.01	3884
1805.02	3976
1806.03	3900
1807.04	3878
1808.05	3936
1809.06	3894
1810.07	3898
1811.08	3894
1812.09	3964
1813.1	3934
1814.11	3918
1815.12	3858
1816.13	3900
1817.14	3886
1818.14	3848
1819.15	3920
1820.16	3906
1821.17	3862
1822.18	3838
1823.18	3864
1824.19	3836
1825.2	3916
1826.21	3964
1827.21	3934
1828.22	3988
1829.23	3852
1830.23	3874
1831.24	3918
1832.25	3872
1833.25	3730
1834.26	3840
1835.27	3832
1836.27	3866
1837.28	3918
1838.28	3778
1839.29	3862
1840.29	3870
1841.3	3856
1842.3	3826
1843.31	3872
1844.31	3810
1845.31	3832
1846.32	3828
1847.32	3882
1848.33	3788
1849.33	3840
1850.33	3796
1851.34	3786
1852.34	3792
1853.34	3818
1854.35	3770
1855.35	3812
1856.35	3648
1857.35	3746
1858.36	3700
1859.36	3736
1860.36	3802
1861.36	3808
1862.36	3776
1863.36	3746
1864.36	3774
1865.37	3806
1866.37	3814
1867.37	3696
1868.37	3752
1869.37	3790
1870.37	3726
1871.37	3730
1872.37	3736
1873.37	3784
1874.37	3834
1875.37	3776
1876.37	3806
1877.37	3756
1878.37	3792
1879.37	3802
1880.36	3812
1881.36	3774
1882.36	3772
1883.36	3768
1884.36	3742
1885.36	3806
1886.35	3746
1887.35	3754
1888.35	3684
1889.35	3756
1890.34	3716
1891.34	3806
1892.34	3782
1893.34	3778
1894.33	3734
1895.33	3752
1896.33	3734
1897.32	3794
1898.32	3742
1899.31	3704
1900.31	3804
1901.3	3718
1902.3	3720
1903.3	3776
1904.29	3752
1905.29	3712
1906.28	3732
1907.27	3902
1908.27	3710
1909.26	3722
1910.26	3764
1911.25	3720
1912.25	3776
1913.24	3818
1914.23	3748
1915.23	3752
1916.22	3762
1917.21	3700
1918.21	3730
1919.2	3744
1920.19	3762
1921.18	3724
1922.18	3764
1923.17	3736
1924.16	3728
1925.15	3722
1926.14	3798
1927.14	3740
1928.13	3748
1929.12	3742
1930.11	3792
1931.1	3692
1932.09	3690
1933.08	3724
1934.07	3690
1935.06	3744
1936.05	3750
1937.04	3772
1938.03	3696
1939.02	3768
1940.01	3746
1941	3728
1941.99	3744
1942.98	3748
1943.97	3746
1944.96	3736
1945.95	3746
1946.94	3694
1947.92	3778
1948.91	3676
1949.9	3712
1950.89	3678
1951.88	3706
1952.86	3668
1953.85	3684
1954.84	3720
1955.83	3696
1956.81	3750
1957.8	3646
1958.79	3702
1959.77	3642
1960.76	3716
1961.75	3734
1962.73	3708
1963.72	3682
1964.7	3668
1965.69	3688
1966.68	3726
1967.66	3646
1968.65	3618
1969.63	3672
1970.62	3638
1971.6	3644
1972.59	3700
1973.57	3612
1974.55	3654
1975.54	3686
1976.52	3668
1977.51	3686
1978.49	3676
1979.47	3664
1980.46	3678
1981.44	3670
1982.42	3594
1983.41	3640
1984.39	3652
1985.37	3670
1986.35	3632
1987.34	3618
1988.32	3620
1989.3	3690
1990.28	3582
1991.27	3606
1992.25	3654
1993.23	3660
1994.21	3644
1995.19	3600
1996.17	3656
1997.15	3652
1998.13	3612
1999.11	3612
2000.09	3600
2001.07	3614
2002.05	3658
2003.03	3586
2004.01	3540
2004.99	3614
2005.97	3582
2006.95	3612
2007.93	3642
2008.91	3606
2009.89	3590
2010.87	3590
2011.85	3580
2012.82	3556
2013.8	3494
2014.78	3594
2015.76	3610
2016.74	3544
2017.72	3650
2018.69	3614
2019.67	3574
2020.65	3672
2021.62	3594
2022.6	3574
2023.58	3624
2024.55	3654
2025.53	3635
2026.51	3616
2027.48	3640
2028.46	3538
2029.44	3610
2030.41	3572
2031.39	3512
2032.36	3614
2033.34	3596
2034.31	3558
2035.29	3596
2036.26	3638
2037.24	3472
2038.21	3590
2039.19	3574
2040.16	3562
2041.14	3570
2042.11	3588
2043.08	3576
2044.06	3614
2045.03	3578
2046	3678
2046.98	3618
2047.95	3498
2048.92	3596
2049.9	3544
2050.87	3568
2051.84	3510
2052.81	3500
2053.79	3560
2054.76	3574
2055.73	3604
2056.7	3572
2057.67	3602
2058.64	3514
2059.61	3464
2060.59	3514
2061.56	3544
2062.53	3512
2063.5	3602
2064.47	3494
2065.44	3530
2066.41	3570
2067.38	3578
2068.35	3490
2069.32	3514
2070.29	3490
2071.26	3512
2072.23	3560
2073.2	3494
2074.17	3590
2075.14	3470
2076.1	3542
2077.07	3574
2078.04	3556
2079.01	3560
2079.98	3528
2080.95	3482
2081.91	3498
2082.88	3522
2083.85	3494
2084.82	3446
2085.78	3494
2086.75	3510
2087.72	3472
2088.68	3538
2089.65	3482
2090.62	3408
2091.58	3438
2092.55	3514
2093.52	3446
2094.48	3412
2095.45	3488
2096.41	3460
2097.38	3480
2098.35	3512
2099.31	3454
2100.28	3422
2101.24	3444
2102.21	3500
2103.17	3460
2104.14	3480
2105.1	3496
2106.06	3374
2107.03	3458
2107.99	3380
2108.96	3426
2109.92	3492
2110.88	3392
2111.85	3452
2112.81	3432
2113.77	3460
2114.73	3420
2115.7	3396
2116.66	3458
2117.62	3412
2118.58	3514
2119.55	3374
2120.51	3424
2121.47	3428
2122.43	3446
2123.39	3370
2124.36	3392
2125.32	3372
2126.28	3376
2127.24	3438
2128.2	3394
2129.16	3356
2130.12	3452
2131.08	3484
2132.04	3380
2133	3360
2133.96	3442
2134.92	3398
2135.88	3438
2136.84	3392
2137.8	3396
2138.76	3418
2139.72	3410
2140.68	3436
2141.64	3354
2142.59	3372
2143.55	3382
2144.51	3386
2145.47	3318
2146.43	3430
2147.39	3368
2148.34	3342
2149.3	3374
2150.26	3358
2151.22	3360
2152.17	3392
2153.13	3468
2154.09	3400
2155.04	3374
2156	3356
2156.96	3320
2157.91	3408
2158.87	3296
2159.82	3306
2160.78	3354
2161.74	3368
2162.69	3362
2163.65	3334
2164.6	3364
2165.56	3272
2166.51	3358
2167.47	3304
2168.42	3318
2169.38	3364
2170.33	3298
2171.29	3368
2172.24	3270
2173.19	3306
2174.15	3302
2175.1	3324
2176.05	3304
2177.01	3352
2177.96	3288
2178.91	3258
2179.87	3328
2180.82	3284
2181.77	3246
2182.73	3272
2183.68	3306
2184.63	3262
2185.58	3300
2186.53	3288
2187.49	3208
2188.44	3262
2189.39	3262
2190.34	3268
2191.29	3198
2192.24	3290
2193.19	3186
2194.14	3196
2195.09	3200
2196.05	3204
2197	3232
2197.95	3332
2198.9	3228
2199.85	3116
2200.8	3152
2201.75	3260
2202.7	3258
2203.64	3312
2204.59	3190
2205.54	3216
2206.49	3214
2207.44	3158
2208.39	3210
2209.34	3208
2210.29	3182
2211.23	3188
2212.18	3220
2213.13	3264
2214.08	3172
2215.03	3154
2215.97	3104
2216.92	3226
2217.87	3206
2218.81	3172
2219.76	3198.75
2220.71	3208.66
2221.66	3209.77
2222.6	3196.36
2223.55	3143.82
2224.49	3173.42
2225.44	3178.55
2226.39	3216.98
2227.33	3204.84
2228.28	3212.36
2229.22	3167.13
2230.17	3247.19
2231.11	3164.54
2232.06	3250.26
2233	3155.68
2233.95	3201.42
2234.89	3210.49
2235.84	3197.16
2236.78	3181.46
2237.73	3236.19
2238.67	3206.29
2239.61	3195.9
2240.56	3187.86
2241.5	3207.17
2242.45	3174.89
2243.39	3204.2
2244.33	3226.47
2245.28	3220.39
2246.22	3208.67
2247.16	3240.57
2248.1	3226.79
2249.05	3255.66
2249.99	3175.49
2250.93	3177.18
2251.87	3227.86
2252.81	3196.47
2253.76	3208.35
2254.7	3204.32
2255.64	3197.87
2256.58	3243.63
2257.52	3211.02
2258.46	3220.35
2259.4	3204.44
2260.34	3236.05
2261.28	3240.12
2262.23	3201.86
2263.17	3211.48
2264.11	3159.48
2265.05	3181.24
2265.99	3179.93
2266.93	3245
2267.87	3249.76
2268.8	3276.08
2269.74	3230.73
2270.68	3268.41
2271.62	3228.47
2272.56	3226.77
2273.5	3228.25
2274.44	3200.02
2275.38	3182.08
2276.32	3180.62
2277.25	3228.01
2278.19	3215.96
2279.13	3168.02
2280.07	3227.47
2281.01	3224.84
2281.94	3226.3
2282.88	3224.19
2283.82	3181.38
2284.76	3228.87
2285.69	3168.16
2286.63	3202.08
2287.57	3282.47
2288.5	3222.52
2289.44	3203.83
2290.37	3219.87
2291.31	3212.56
2292.25	3224.53
2293.18	3182.09
2294.12	3222.93
2295.05	3187.45
2295.99	3219.93
2296.92	3200
2297.86	3216.49
2298.79	3201.39
2299.73	3203.15
2300.66	3261.18
2301.6	3193.76
2302.53	3198.74
2303.47	3221.02
2304.4	3228.67
2305.34	3215.15
2306.27	3202.2
2307.2	3223.22
2308.14	3240.02
2309.07	3228.3
2310	3210.73
2310.94	3177.45
2311.87	3158.52
2312.8	3180.06
2313.74	3205.74
2313.98	3212
2314.92	3254
2315.86	3214
2316.79	3246
2317.73	3258
2318.67	3204
2319.6	3230
2320.54	3202
2321.48	3182
2322.41	3220
2323.35	3222
2324.29	3160
2325.22	3170
2326.16	3220
2327.09	3146
2328.03	3176
2328.96	3202
2329.9	3216
2330.83	3200
2331.77	3226
2332.7	3166
2333.64	3190
2334.57	3188
2335.51	3192
2336.44	3052
2337.38	3192
2338.31	3166
2339.24	3170
2340.18	3232
2341.11	3218
2342.04	3174
2342.98	3184
2343.91	3206
2344.84	3222
2345.78	3188
2346.71	3174
2347.64	3196
2348.57	3210
2349.51	3184
2350.44	3212
2351.37	3180
2352.3	3182
2353.24	3180
2354.17	3176
2355.1	3210
2356.03	3198
2356.96	3188
2357.89	3166
2358.82	3200
2359.75	3182
2360.68	3200
2361.62	3118
2362.55	3192
2363.48	3204
2364.41	3196
2365.34	3160
2366.27	3144
2367.2	3124
2368.13	3154
2369.05	3170
2369.98	3190
2370.91	3150
2371.84	3114
2372.77	3188
2373.7	3160
2374.63	3134
2375.56	3144
2376.49	3166
2377.41	3130
2378.34	3180
2379.27	3132
2380.2	3186
2381.12	3130
2382.05	3120
2382.98	3162
2383.91	3108
2384.83	3158
2385.76	3130
2386.69	3130
2387.61	3122
2388.54	3118
2389.47	3106
2390.39	3108
2391.32	3130
2392.25	3138
2393.17	3120
2394.1	3180
2395.02	3102
2395.95	3122
2396.87	3096
2397.8	3068
2398.72	3104
2399.65	3116
2400.57	3144
2401.5	3170
2402.42	3124
2403.35	3084
2404.27	3048
2405.2	3108
2406.12	3090
2407.04	3140
2407.97	3052
2408.89	3098
2409.81	3038
2410.74	3142
2411.66	3054
2412.58	3132
2413.51	3070
2414.43	3084
2415.35	3110
2416.27	3186
2417.2	3156
2418.12	3076
2419.04	3064
2419.96	3118
2420.88	3066
2421.81	3054
2422.73	3052
2423.65	3028
2424.57	3094
2425.49	3058
2426.41	3040
2427.33	3024
2428.25	3096
2429.17	3048
2430.1	3048
2431.02	3054
2431.94	3062
2432.85	2982
2433.77	3042
2434.7	3092
2435.61	3058
2436.53	2990
2437.45	3056
2438.37	3082
2439.29	3068
2440.21	3016
2441.13	3020
2442.05	3000
2442.97	3030
2443.88	3034
2444.8	3084
2445.72	3046
2446.64	2988
2447.56	3048
2448.47	2970
2449.39	3056
2450.31	2964
2451.23	3098
2452.14	2998
2453.06	3020
2453.98	3052
2454.89	3028
2455.81	3002
2456.73	3038
2457.64	3020
2458.56	3044
2459.48	2994
2460.39	3016
2461.31	3058
2462.22	3030
2463.14	3040
2464.05	2978
2464.97	3016
2465.88	3030
2466.8	2988
2467.71	3062
2468.63	2966
2469.54	3056
2470.46	3004
2471.37	3022
2472.29	2984
2473.2	3024
2474.11	2980
2475.03	2990
2475.94	3060
2476.86	3044
2477.77	2946
2478.68	2990
2479.59	2996
2480.51	2942
2481.42	2986
2482.33	3000
2483.25	3008
2484.16	2954
2485.07	2972
2485.98	2944
2486.9	2986
2487.81	2992
2488.72	2968
2489.63	3004
2490.54	2966
2491.45	2946
2492.36	2956
2493.28	2972
2494.19	2918
2495.1	2946
2496.01	3062
2496.92	2948
2497.83	2940
2498.74	2988
2499.65	2932
2500.56	2930
2501.47	2926
2502.38	2998
2503.29	2920
2504.2	2942
2505.11	2978
2506.02	2920
2506.93	2948
2507.83	2984
2508.74	2936
2509.65	2938
2510.56	2978
2511.47	2942
2512.38	2984
2513.29	2944
2514.19	3022
2515.1	2988
2516.01	2910
2516.92	2920
2517.82	2968
2518.73	2932
2519.64	2970
2520.55	2860
2521.45	2974
2522.36	2928
2523.27	2930
2524.17	2894
2525.08	2926
2525.99	2908
2526.89	2876
2527.8	2938
2528.7	2932
2529.61	2988
2530.51	2914
2531.42	2904
2532.33	2868
2533.23	2938
2534.14	2960
2535.04	2920
2535.95	2934
2536.85	2946
2537.75	2846
2538.66	2914
2539.56	2908
2540.47	2912
2541.37	2930
2542.28	2890
2543.18	2842
2544.08	2900
2544.99	2892
2545.89	2886
2546.79	2814
2547.7	2886
2548.6	2842
2549.5	2866
2550.4	2912
2551.31	2868
2552.21	2876
2553.11	2930
2554.01	2810
2554.92	2854
2555.82	2840
2556.72	2862
2557.62	2832
2558.52	2916
2559.42	2872
2560.32	2858
2561.23	2866
2562.13	2852
2563.03	2844
2563.93	2820
2564.83	2894
2565.73	2888
2566.63	2842
2567.53	2848
2568.43	2862
2569.33	2860
2570.23	2886
2571.13	2868
2572.03	2870
2572.93	2784
2573.83	2810
2574.73	2812
2575.63	2820
2576.52	2770
2577.42	2834
2578.32	2822
2579.22	2822
2580.12	2810
2581.02	2754
2581.91	2834
2582.81	2814
2583.71	2878
2584.61	2826
2585.51	2868
2586.4	2844
2587.3	2792
2588.2	2844
2589.09	2836
2589.99	2858
2590.89	2796
2591.78	2862
2592.68	2834
2593.58	2740
2594.47	2824
2595.37	2798
2596.26	2778
2597.16	2764
2598.06	2742
2598.95	2772
2599.85	2832
2600.74	2748
2601.64	2794
2602.53	2838
2603.43	2816
2604.32	2744
2605.22	2688
2606.11	2816
2607.01	2790
2607.9	2742
2608.79	2774
2609.69	2792
2610.58	2834
2611.48	2788
2612.37	2770
2613.26	2784
2614.16	2798
2615.05	2794
2615.94	2724
2616.84	2740
2617.73	2724
2618.62	2806
2619.51	2738
2620.41	2768
2621.3	2752
2622.19	2696
2623.08	2788
2623.97	2724
2624.87	2748
2625.76	2662
2626.65	2712
2627.54	2688
2628.43	2714
2629.32	2674
2630.21	2708
2631.1	2774
2631.99	2744
2632.89	2712
2633.78	2788
2634.67	2756
2635.56	2784
2636.45	2722
2637.34	2694
2638.23	2644
2639.12	2682
2640.01	2762
2640.9	2694
2641.78	2734
2642.67	2726
2643.56	2700
2644.45	2688
2645.34	2724
2646.23	2740
2647.12	2714
2648.01	2648
2648.89	2688
2649.78	2680
2650.67	2716
2651.56	2682
2652.45	2730
2653.33	2660
2654.22	2652
2655.11	2696
2656	2722
2656.88	2668
2657.77	2662
2658.66	2704
2659.54	2658
2660.43	2698
2661.32	2670
2662.2	2672
2663.09	2690
2663.97	2656
2664.86	2682
2665.75	2646
2666.63	2652
2667.52	2646
2668.4	2670
2669.29	2672
2670.17	2646
2671.06	2722
2671.94	2656
2672.83	2634
2673.71	2600
2674.6	2690
2675.48	2642
2676.37	2734
2677.25	2636
2678.13	2672
2679.02	2694
2679.9	2600
2680.78	2634
2681.67	2608
2682.55	2662
2683.43	2642
2684.32	2622
2685.2	2600
2686.08	2622
2686.97	2636
2687.85	2670
2688.73	2612
2689.61	2698
2690.5	2660
2691.38	2618
2692.26	2684
2693.14	2638
2694.02	2616
2694.9	2612
2695.79	2666
2696.67	2586
2697.55	2610
2698.43	2616
2699.31	2642
2700.19	2612
2701.07	2568
2701.95	2636
2702.83	2658
2703.71	2606
2704.59	2582
2705.47	2664
2706.35	2624
2707.23	2574
2708.11	2574
2708.99	2634
2709.87	2592
2710.75	2656
2711.63	2536
2712.51	2626
2713.39	2592
2714.27	2642
2715.14	2556
2716.02	2524
2716.9	2602
2717.78	2582
2718.66	2586
2719.54	2552
2720.41	2590
2721.29	2598
2722.17	2556
2723.05	2576
2723.92	2514
2724.8	2544
2725.68	2562
2726.55	2588
2727.43	2620
2728.31	2616
2729.18	2538
2730.06	2558
2730.94	2534
2731.81	2558
2732.69	2578
2733.57	2592
2734.44	2562
2735.32	2602
2736.19	2462
2737.07	2524
2737.94	2542
2738.82	2530
2739.69	2540
2740.57	2492
2741.44	2570
2742.32	2550
2743.19	2518
2744.07	2544
2744.94	2546
2745.81	2492
2746.69	2518
2747.56	2598
2748.44	2512
2749.31	2506
2750.18	2510
2751.06	2506
2751.93	2538
2752.8	2532
2753.68	2560
2754.55	2508
2755.42	2524
2756.29	2558
2757.17	2516
2758.04	2530
2758.91	2434
2759.78	2448
2760.65	2512
2761.53	2460
2762.4	2532
2763.27	2502
2764.14	2522
2765.01	2466
2765.88	2574
2766.76	2490
2767.63	2506
2768.5	2428
2769.37	2504
2770.24	2474
2771.11	2492
2771.98	2452
2772.85	2426
2773.72	2534
2774.59	2474
2775.46	2446
2776.33	2496
2777.2	2496
2778.07	2478
2778.94	2424
2779.81	2372
2780.67	2422
2781.54	2464
2782.41	2462
2783.28	2514
2784.15	2444
2785.02	2436
2785.89	2450
2786.75	2454
2787.62	2406
2788.49	2376
2789.36	2460
2790.23	2414
2791.09	2470
2791.96	2392
2792.83	2470
2793.7	2432
2794.56	2414
2795.43	2492
2796.3	2444
2797.16	2456
2798.03	2456
2798.9	2428
2799.76	2414
2800.63	2420
2801.49	2440
2802.36	2434
2803.23	2420
2804.09	2466
2804.96	2420
2805.82	2464
2806.69	2494
2807.55	2388
2808.42	2452
2809.28	2408
2810.15	2456
2811.01	2452
2811.88	2430
2812.74	2398
2813.61	2396
2814.47	2396
2815.33	2406
2816.2	2372
2817.06	2392
2817.93	2432
2818.79	2410
2819.65	2344
2820.52	2430
2821.38	2362
2822.24	2402
2823.11	2314
2823.97	2382
2824.83	2358
2825.69	2430
2826.55	2342
2827.42	2362
2828.28	2396
2829.14	2402
2830	2348
2830.87	2382
2831.73	2434
2832.59	2340
2833.45	2368
2834.31	2326
2835.17	2342
2836.03	2380
2836.89	2316
2837.76	2348
2838.62	2390
2839.48	2356
2840.34	2332
2841.2	2368
2842.06	2308
2842.92	2352
2843.78	2336
2844.64	2286
2845.5	2284
2846.36	2360
2847.22	2322
2848.07	2278
2848.93	2380
2849.79	2306
2850.65	2322
2851.51	2276
2852.37	2280
2853.23	2328
2854.09	2286
2854.95	2336
2855.8	2246
2856.66	2304
2857.52	2346
2858.38	2268
2859.24	2330
2860.09	2308
2860.95	2324
2861.81	2290
2862.66	2332
2863.52	2300
2864.38	2320
2865.24	2264
2866.09	2268
2866.95	2308
2867.81	2258
2868.66	2284
2869.52	2310
2870.37	2304
2871.23	2298
2872.09	2250
2872.94	2298
2873.8	2304
2874.65	2320
2875.51	2300
2876.36	2258
2877.22	2206
2878.07	2220
2878.93	2296
2879.78	2288
2880.64	2280
2881.49	2210
2882.35	2282
2883.2	2280
2884.05	2270
2884.91	2288
2885.76	2212
2886.62	2246
2887.47	2274
2888.32	2238
2889.18	2294
2890.03	2264
2890.88	2256
2891.74	2300
2892.59	2270
2893.44	2266
2894.29	2204
2895.15	2214
2896	2178
2896.85	2162
2897.7	2264
2898.55	2244
2899.41	2254
2900.26	2236
2901.11	2214
2901.96	2226
2902.81	2238
2903.66	2264
2904.52	2218
2905.37	2286
2906.22	2218
2907.07	2210
2907.92	2172
2908.77	2240
2909.62	2270
2910.47	2196
2911.32	2218
2912.17	2252
2913.02	2218
2913.87	2236
2914.72	2196
2915.57	2256
2916.42	2220
2917.27	2096
2918.12	2218
2918.97	2158
2919.82	2174
2920.66	2150
2921.51	2204
2922.36	2218
2923.21	2204
2924.06	2222
2924.91	2206
2925.75	2278
2926.6	2200
2927.45	2198
2928.3	2162
2929.15	2174
2929.99	2212
2930.84	2170
2931.69	2174
2932.54	2196
2933.38	2170
2934.23	2144
2935.08	2190
2935.92	2182
2936.77	2216
2937.62	2210
2938.46	2146
2939.31	2216
2940.15	2146
2941	2222
2941.85	2186
2942.69	2186
2943.54	2182
2944.38	2186
2945.23	2194
2946.07	2208
2946.92	2140
2947.76	2198
2948.61	2164
2949.45	2150
2950.3	2142
2951.14	2154
2951.99	2150
2952.83	2140
2953.67	2148
2954.52	2154
2955.36	2170
2956.21	2132
2957.05	2150
2957.89	2158
2958.74	2128
2959.58	2138
2960.42	2096
2961.27	2228
2962.11	2116
2962.95	2142
2963.79	2132
2964.64	2160
2965.48	2096
2966.32	2172
2967.16	2146
2968.01	2086
2968.85	2120
2969.69	2066
2970.53	2098
2971.37	2122
2972.21	2114
2973.05	2116
2973.9	2116
2974.74	2112
2975.58	2126
2976.42	2060
2977.26	2144
2978.1	2098
2978.94	2134
2979.78	2122
2980.62	2164
2981.46	2080
2982.3	2098
2983.14	2100
2983.98	2140
2984.82	2092
2985.66	2056
2986.5	2068
2987.34	2116
2988.18	2120
2989.02	2076
2989.86	2088
2990.69	2030
2991.53	2032
2992.37	2092
2993.21	2114
2994.05	2008
2994.89	2024
2995.72	2166
2996.56	2036
2997.4	2036
2998.24	2076
2999.08	2048
2999.91	2052
3000.75	2064
3001.59	2008
3002.43	1976
3003.26	2082
3004.1	2002
3004.94	2042
3005.77	1980
3006.61	2018
3007.45	2010
3008.28	1970
3009.12	1976
3009.95	1988
3010.79	1974
3011.63	1964
3012.46	2038
3013.3	2020
3014.13	1944
3014.97	2028
3015.8	2024
3016.64	2024
3017.47	1984
3018.31	2024
3019.14	1918
3019.98	1966
3020.81	2004
3021.65	1970
3022.48	1994
3023.31	1966
3024.15	2026
3024.98	1982
3025.82	2022
3026.65	1968
3027.48	2002
3028.32	2060
3029.15	1976
3029.98	3098
3030.82	2570
3031.65	2266
3032.48	1944
3033.31	1972
3034.15	1958
3034.98	1988
3035.81	1972
3036.64	1954
3037.48	2016
3038.31	1954
3039.14	1912
3039.97	1960
3040.8	1967.85
3041.63	1962.46
3042.47	1978.96
3043.3	1960.97
3044.13	1942.14
3044.96	1950.85
3045.79	1969.6
3046.62	1986.97
3047.45	1943.26
3048.28	1939.78
3049.11	1914.74
3049.94	1966.27
3050.77	1934.38
3051.6	1927.23
3052.43	1906.36
3053.26	1913.78
3054.09	1889.99
3054.92	1957.38
3055.75	1913.41
3056.58	1945.71
3057.41	1942.65
3058.24	1927.42
3059.07	1911.63
3059.9	1917.52
3060.73	1908.3
3061.55	1906.05
3062.38	1887.16
3063.21	1923.82
3064.04	1937.98
3064.87	1902.78
3065.7	1883.69
3066.52	1904.58
3067.35	1929.24
3068.18	1903.59
3069.01	1893.61
3069.83	1868.94
3070.66	1901.94
3071.49	1845.31
3072.32	1874.17
3073.14	1856.8
3073.97	1917.57
3074.8	1893.25
3075.62	1883.68
3076.45	1899.74
3077.28	1907.37
3078.1	1899.96
3078.93	1889
3079.75	1889.64
3080.58	1860.49
3081.41	1837.86
3082.23	1867.14
3083.06	1864.65
3083.88	1879.85
3084.71	1875.03
3085.53	1812.95
3086.36	1860.9
3087.18	1841.99
3088.01	1819.96
3088.83	1834.26
3089.66	1850.9
3090.48	1848.46
3091.31	1847.34
3092.13	1843.47
3092.96	1861.27
3093.78	1832.84
3094.6	1803.97
3095.43	1825.18
3096.25	1849.52
3097.07	1818.65
3097.9	1820.34
3098.72	1804.36
3099.54	1830.45
3100.37	1816.51
3101.19	1810.42
3102.01	1816.05
3102.84	1805.15
3103.66	1794.24
3104.48	1814.72
3105.3	1790.76
3106.13	1816.44
3106.95	1824.9
3107.77	1795.95
3108.59	1801.6
3109.41	1802.82
3110.24	1807.44
3111.06	1799.95
3111.88	1772.56
3112.7	1779.81
3113.52	1763.73
3114.34	1772.26
3115.16	1791.58
3115.98	1759.23
3116.81	1732.36
3117.63	1765.53
3118.45	1761.66
3119.27	1740.22
3120.09	1761.06
3120.91	1747.83
3121.73	1740.42
3122.55	1759.69
3123.37	1761.5
3123.73	1756
3124.56	1728
3125.38	1712
3126.21	1780
3127.03	1752
3127.85	1762
3128.68	1762
3129.5	1754
3130.32	1752
3131.15	1722
3131.97	1754
3132.79	1730
3133.62	1706
3134.44	1750
3135.26	1724
3136.08	1718
3136.91	1692
3137.73	1678
3138.55	1756
3139.37	1728
3140.19	1748
3141.02	1740
3141.84	1720
3142.66	1708
3143.48	1744
3144.3	1736
3145.13	1748
3145.95	1694
3146.77	1750
3147.59	1686
3148.41	1712
3149.23	1736
3150.05	1698
3150.87	1718
3151.69	1720
3152.51	1714
3153.33	1690
3154.15	1672
3154.97	1748
3155.79	1650
3156.61	1694
3157.43	1670
3158.25	1702
3159.07	1668
3159.89	1706
3160.71	1690
3161.53	1722
3162.35	2016
3163.17	2212
3163.98	1694
3164.8	1682
3165.62	1664
3166.44	1662
3167.26	1670
3168.08	1714
3168.89	1696
3169.71	1664
3170.53	1654
3171.35	1672
3172.17	1678
3172.98	1696
3173.8	1696
3174.62	1730
3175.43	1660
3176.25	1642
3177.07	1666
3177.89	1638
3178.7	1664
3179.52	1674
3180.33	1678
3181.15	1630
3181.97	1662
3182.78	1724
3183.6	1658
3184.41	1638
3185.23	1658
3186.05	1664
3186.86	1654
3187.68	1648
3188.49	1634
3189.31	1676
3190.12	1666
3190.94	1650
3191.75	1606
3192.57	1682
3193.38	1652
3194.2	1652
3195.01	1690
3195.82	1692
3196.64	1628
3197.45	1684
3198.27	1622
3199.08	1648
3199.89	1644
3200.71	1666
3201.52	1660
3202.33	1652
3203.15	1660
3203.96	1650
3204.77	1612
3205.59	1622
3206.4	1608
3207.21	1580
3208.02	1608
3208.84	1648
3209.65	1594
3210.46	1646
3211.27	1610
3212.09	1590
3212.9	1656
3213.71	1626
3214.52	1628
3215.33	1606
3216.14	1586
3216.96	1602
3217.77	1574
3218.58	1658
3219.39	1624
3220.2	1606
3221.01	1614
3221.82	1602
3222.63	1636
3223.44	1580
3224.25	1644
3225.06	1668
3225.87	1580
3226.68	1612
3227.49	1614
3228.3	1584
3229.11	1630
3229.92	1608
3230.73	1626
3231.54	1624
3232.35	1602
3233.16	1602
3233.97	1578
3234.77	1594
3235.58	1596
3236.39	1598
3237.2	1550
3238.01	1616
3238.82	1612
3239.63	1586
3240.43	1634
3241.24	1580
3242.05	1558
3242.86	1584
3243.66	1566
3244.47	1590
3245.28	1590
3246.09	1606
3246.89	1582
3247.7	1590
3248.51	1556
3249.31	1568
3250.12	1560
3250.93	1576
3251.73	1578
3252.54	1544
3253.35	1576
3254.15	1524
3254.96	1546
3255.76	1544
3256.57	1506
3257.38	1522
3258.18	1560
3258.99	1566
3259.79	1554
3260.6	1522
3261.4	1512
3262.21	1582
3263.01	1524
3263.82	1564
3264.62	1542
3265.43	1502
3266.23	1566
3267.04	1514
3267.84	1552
3268.64	1490
3269.45	1572
3270.25	1506
3271.06	1476
3271.86	1570
3272.66	1568
3273.47	1544
3274.27	1544
3275.07	1554
3275.88	1504
3276.68	1508
3277.48	1526
3278.28	1512
3279.09	1482
3279.89	1474
3280.69	1528
3281.49	1548
3282.3	1482
3283.1	1508
3283.9	1526
3284.7	1500
3285.5	1524
3286.31	1480
3287.11	1464
3287.91	1528
3288.71	1488
3289.51	1532
3290.31	1516
3291.11	1526
3291.91	1510
3292.71	1500
3293.51	1452
3294.31	1534
3295.12	1472
3295.92	1558
3296.72	1540
3297.52	1496
3298.32	1482
3299.12	1552
3299.92	1450
3300.72	1458
3301.51	1482
3302.31	1470
3303.11	1474
3303.91	1488
3304.71	1496
3305.51	1508
3306.31	1488
3307.11	1500
3307.91	1532
3308.71	1442
3309.5	1500
3310.3	1534
3311.1	1474
3311.9	1446
3312.7	1486
3313.49	1492
3314.29	1446
3315.09	1448
3315.89	1472
3316.69	1462
3317.48	1462
3318.28	1450
3319.08	1510
3319.87	1424
3320.67	1430
3321.47	1510
3322.26	1466
3323.06	1516
3323.86	1508
3324.65	1472
3325.45	1446
3326.25	1436
3327.04	1480
3327.84	1476
3328.63	1480
3329.43	1472
3330.22	1448
3331.02	1432
3331.81	1446
3332.61	1432
3333.4	1468
3334.2	1438
3334.99	1414
3335.79	1470
3336.58	1464
3337.38	1466
3338.17	1426
3338.97	1420
3339.76	1434
3340.56	1462
3341.35	1406
3342.14	1464
3342.94	1450
3343.73	1412
3344.52	1402
3345.32	1480
3346.11	1414
3346.9	1396
3347.7	1404
3348.49	1408
3349.28	1374
3350.08	1452
3350.87	1480
3351.66	2490
3352.45	1770
3353.25	1458
3354.04	1408
3354.83	1430
3355.62	1402
3356.41	1434
3357.21	1410
3358	1346
3358.79	1478
3359.58	1462
3360.37	1418
3361.16	1410
3361.95	1426
3362.75	1462
3363.54	1398
3364.33	1470
3365.12	1408
3365.91	1470
3366.7	1384
3367.49	1394
3368.28	1428
3369.07	1420
3369.86	1412
3370.65	1448
3371.44	1364
3372.23	1378
3373.02	1396
3373.81	1360
3374.6	1434
3375.39	1434
3376.18	1398
3376.97	1426
3377.75	1394
3378.54	1414
3379.33	1420
3380.12	1416
3380.91	1388
3381.7	1368
3382.49	1366
3383.27	1410
3384.06	1390
3384.85	1392
3385.64	1372
3386.43	1374
3387.21	1388
3388	1370
3388.79	1354
3389.58	1386
3390.36	1368
3391.15	1362
3391.94	1388
3392.72	1374
3393.51	1334
3394.3	1380
3395.08	1410
3395.87	1422
3396.66	1394
3397.44	1350
3398.23	1328
3399.01	1354
3399.8	1388
3400.59	1374
3401.37	1406
3402.16	1370
3402.94	1380
3403.73	1372
3404.51	1372
3405.3	1342
3406.08	1356
3406.87	1368
3407.65	1352
3408.44	1350
3409.22	1342
3410.01	1352
3410.79	1350
3411.58	1360
3412.36	1320
3413.14	1340
3413.93	1356
3414.71	1302
3415.5	1376
3416.28	1364
3417.06	1322
3417.85	1336
3418.63	1352
3419.41	1316
3420.2	1356
3420.98	1346
3421.76	1358
3422.54	1308
3423.33	1362
3424.11	1330
3424.89	1354
3425.67	1334
3426.46	1308
3427.24	1366
3428.02	1332
3428.8	1344
3429.58	1288
3430.36	1348
3431.15	1322
3431.93	1340
3432.71	1334
3433.49	1340
3434.27	1274
3435.05	1344
3435.83	1324
3436.61	1374
3437.4	1286
3438.18	1300
3438.96	1306
3439.74	1326
3440.52	1308
3441.3	1306
3442.08	1294
3442.86	1288
3443.64	1330
3444.42	1294
3445.2	1318
3445.98	1254
3446.76	1312
3447.53	1350
3448.31	1310
3449.09	1282
3449.87	1286
3450.65	1334
3451.43	1288
3452.21	1288
3452.99	1312
3453.77	1284
3454.54	1294
3455.32	1326
3456.1	1304
3456.88	1286
3457.66	1294
3458.43	1306
3459.21	1266
3459.99	1300
3460.77	1314
3461.54	1230
3462.32	1262
3463.1	1300
3463.88	1266
3464.65	1300
3465.43	1296
3466.21	1308
3466.98	1252
3467.76	1304
3468.53	1278
3469.31	1288
3470.09	1282
3470.86	1312
3471.64	1302
3472.42	1224
3473.19	1282
3473.97	1292
3474.74	1290
3475.52	1284
3476.29	1218
3477.07	1220
3477.84	1272
3478.62	1234
3479.39	1250
3480.17	1248
3480.94	1270
3481.72	1296
3482.49	1268
3483.27	1276
3484.04	1224
3484.82	1244
3485.59	1260
3486.36	1294
3487.14	1246
3487.91	1284
3488.68	1266
3489.46	1266
3490.23	1204
3491	1262
3491.78	1286
3492.55	1240
3493.32	1238
3494.1	1236
3494.87	1284
3495.64	1260
3496.42	1194
3497.19	1254
3497.96	1276
3498.73	1232
3499.5	1236
3500.28	1262
3501.05	1244
3501.82	1254
3502.59	1262
3503.36	1232
3504.14	1246
3504.91	1234
3505.68	1214
3506.45	1220
3507.22	1218
3507.99	1260
3508.76	1242
3509.53	1278
3510.3	1258
3511.07	1284
3511.84	1216
3512.61	1236
3513.38	1214
3514.16	1188
3514.92	1246
3515.7	1220
3516.46	1226
3517.23	1240
3518	1258
3518.77	1212
3519.54	1236
3520.31	1246
3521.08	1254
3521.85	1228
3522.62	1206
3523.39	1236
3524.16	1248
3524.93	1256
3525.69	1220
3526.46	1216
3527.23	1218
3528	1204
3528.77	1268
3529.53	1204
3530.3	1228
3531.07	1234
3531.84	1218
3532.61	1216
3533.37	1232
3534.14	1206
3534.91	1190
3535.68	1200
3536.44	1208
3537.21	1240
3537.98	1170
3538.74	1240
3539.51	1184
3540.28	1202
3541.04	1242
3541.81	1216
3542.58	1232
3543.34	1210
3544.11	1184
3544.87	1222
3545.64	1232
3546.4	1188
3547.17	1208
3547.94	1226
3548.7	1200
3549.47	1194
3550.23	1176
3551	1176
3551.76	1228
3552.53	1264
3553.29	1222
3554.06	1220
3554.82	1176
3555.59	1178
3556.35	1190
3557.11	1196
3557.88	1238
3558.64	1220
3559.41	1184
3560.17	1146
3560.93	1194
3561.7	1182
3562.46	1180
3563.22	1188
3563.99	1216
3564.75	1168
3565.51	1170
3566.28	1184
3567.04	1184
3567.8	1196
3568.56	1194
3569.33	1178
3570.09	1180
3570.85	1194
3571.61	1178
3572.38	1180
3573.14	1170
3573.9	1132
3574.66	1220
3575.42	1148
3576.19	1198
3576.95	1218
3577.71	1208
3578.47	1174
3579.23	1154
3579.99	1170
3580.75	1168
3581.51	1172
3582.28	1188
3583.04	1168
3583.8	1194
3584.56	1140
3585.32	1170
3586.08	1176
3586.84	1146
3587.6	1150
3588.36	1188
3589.12	1150
3589.88	1162
3590.64	1156
3591.4	1170
3592.16	1138
3592.92	1124
3593.67	1174
3594.43	1142
3595.19	1150
3595.95	1122
3596.71	1158
3597.47	1148
3598.23	1108
3598.99	1138
3599.75	1122
3600.5	1144
3601.26	1168
3602.02	1142
3602.78	1134
3603.54	1136
3604.29	1148
3605.05	1134
3605.81	1122
3606.57	1104
3607.32	1132
3608.08	1152
3608.84	1168
3609.59	1122
3610.35	1152
3611.11	1160
3611.87	1156
3612.62	1120
3613.38	1116
3614.13	1110
3614.89	1104
3615.65	1134
3616.4	1120
3617.16	1130
3617.92	1142
3618.67	1126
3619.43	1150
3620.18	1118
3620.94	1122
3621.69	1144
3622.45	1128
3623.2	1138
3623.96	1106
3624.71	1170
3625.47	1152
3626.22	1158
3626.98	1130
3627.73	1146
3628.49	1118
3629.24	1132
3630	1088
3630.75	1114
3631.5	1170
3632.26	1150
3633.01	1076
3633.77	1090
3634.52	1080
3635.27	1130
3636.03	1138
3636.78	1126
3637.53	1088
3638.29	1106
3639.04	1136
3639.79	1116
3640.55	1108
3641.3	1112
3642.05	1092
3642.8	1098
3643.56	1084
3644.31	1050
3645.06	1082
3645.81	1090
3646.56	1084
3647.32	1092
3648.07	1132
3648.82	1052
3649.57	1088
3650.32	1092
3651.07	1110
3651.83	1106
3652.58	1126
3653.33	1120
3654.08	1096
3654.83	1082
3655.58	1098
3656.33	1132
3657.08	1084
3657.83	1128
3658.58	1082
3659.33	1106
3660.08	1114
3660.83	1062
3661.58	1068
3662.33	1132
3663.08	1118
3663.83	1118
3664.58	1064
3665.33	1078
3666.08	1066
3666.83	1042
3667.58	1060
3668.33	1068
3669.08	1114
3669.83	1062
3670.57	1070
3671.32	1080
3672.07	1058
3672.82	1094
3673.57	1094
3674.32	1068
3675.07	1068
3675.81	1104
3676.56	1022
3677.31	1052
3678.06	1094
3678.8	1082
3679.55	1110
3680.3	1068
3681.05	1108
3681.79	1096
3682.54	1090
3683.29	1048
3684.04	1082
3684.78	1072
3685.53	1066
3686.28	1074
3687.02	1044
3687.77	1054
3688.51	1034
3689.26	1056
3690.01	1040
3690.75	1066
3691.5	1056
3692.24	1106
3692.99	1068
3693.74	1024
3694.48	1064
3695.23	1016
3695.97	1020
3696.72	1068
3697.46	1058
3698.21	1060
3698.95	1056
3699.7	1046
3700.44	1046
3701.19	1004
3701.93	1046
3702.68	1054
3703.42	1046
3704.16	1066
3704.91	1022
3705.65	1060
3706.4	1038
3707.14	1088
3707.88	1020
3708.63	1036
3709.37	1020
3710.11	1048
3710.86	1064
3711.6	1046
3712.34	994
3713.09	1032
3713.83	1018
3714.57	1062
3715.31	1050
3716.06	1042
3716.8	1032
3717.54	1038
3718.28	1030
3719.03	1022
3719.77	1044
3720.51	990
3721.25	1070
3721.99	1022
3722.74	1070
3723.48	1036
3724.22	1008
3724.96	1026
3725.7	1014
3726.44	1020
3727.18	1052
3727.92	1018
3728.67	1036
3729.41	1036
3730.15	1050
3730.89	1022
3731.63	1014
3732.37	1016
3733.11	1040
3733.85	996
3734.59	1004
3735.33	1018
3736.07	1014
3736.81	1020
3737.55	1040
3738.29	1056
3739.03	998
3739.77	1024
3740.51	990
3741.24	1036
3741.98	970
3742.72	1016
3743.46	1022
3744.2	1008
3744.94	1014
3745.68	992
3746.42	998
3747.15	962
3747.89	1022
3748.63	1050
3749.37	1020
3750.11	1012
3750.84	998
3751.58	1024
3752.32	1032
3753.06	988
3753.79	1016
3754.53	984
3755.27	1016
3756.01	968
3756.74	968
3757.48	1026
3758.22	1014
3758.95	968
3759.69	1026
3760.43	998
3761.16	1014
3761.9	1006
3762.64	1052
3763.37	1029.93
3764.11	1003.68
3764.84	1007.8
3765.58	1013.33
3766.32	990.066
3767.05	982.615
3767.79	1005.24
3768.52	1030.21
3769.26	985.571
3769.99	994.56
3770.73	992.947
3771.46	995.462
3772.2	1016.38
3772.93	978.709
3773.67	1019.15
3774.4	986.656
3775.14	966.734
3775.87	988.539
3776.61	1003.64
3777.34	1001.91
3778.07	998.03
3778.81	972.939
3779.54	1015.7
3780.28	979.548
3781.01	988.724
3781.74	1009.42
3782.48	979.214
3783.21	966.333
3783.94	970.899
3784.68	1031.43
3785.41	1004.94
3786.14	963.809
3786.88	975.295
3787.61	963.193
3788.34	992.772
3789.07	992.15
3789.81	990.274
3790.54	982.549
3791.27	966.503
3792	977.824
3792.74	977.854
3793.47	965.666
3794.2	959.761
3794.93	971.496
3795.66	988.186
3796.4	989.37
3797.13	978.262
3797.86	977.187
3798.59	981.993
3799.32	975.083
3800.05	975.674
3800.78	975.875
3801.52	999.306
3802.25	981.915
3802.98	984.065
3803.71	996.969
3804.44	986.829
3805.17	958.828
3805.9	964.826
3806.63	974.33
3807.36	965.013
3808.09	973.59
3808.82	945.403
3809.55	959.711
3810.28	962.07
3811.01	951.701
3811.74	969.852
3812.47	967.866
3813.2	948.776
3813.93	953.944
3814.66	953.533
3815.38	947.984
3816.11	967.551
3816.84	950.948
3817.57	958.582
3818.3	961.561
3819.03	956.31
3819.76	962.104
3820.49	962.057
3821.21	941.015
3821.94	935.561
3822.67	946.477
3823.4	946.201
3824.13	945.02
3824.85	964.321
3825.58	959.182
3826.31	955.252
3827.04	942.646
3827.77	963.508
3828.49	950.489
3829.22	966.911
3829.95	957.227
3830.67	944.853
3831.4	964.931
3832.13	951.007
3832.85	927.048
3833.58	921.495
3834.31	926.511
3835.03	919.395
3835.76	940.549
3836.49	966.181
3837.21	962.026
3837.94	910.295
3838.52	926
3839.25	1006
3839.98	932
3840.71	968
3841.44	942
3842.17	928
3842.9	954
3843.63	964
3844.36	890
3845.09	928
3845.82	932
3846.55	928
3847.28	924
3848	958
3848.73	938
3849.46	950
3850.19	898
3850.92	950
3851.65	958
3852.38	950
3853.1	890
3853.83	934
3854.56	924
3855.29	950
3856.02	954
3856.74	928
3857.47	934
3858.2	918
3858.93	930
3859.65	936
3860.38	942
3861.11	916
3861.84	906
3862.56	918
3863.29	922
3864.02	906
3864.74	910
3865.47	902
3866.2	896
3866.92	934
3867.65	944
3868.38	908
3869.1	946
3869.83	946
3870.55	910
3871.28	926
3872.01	918
3872.73	942
3873.46	904
3874.18	868
3874.91	886
3875.63	920
3876.36	904
3877.08	916
3877.81	886
3878.53	902
3879.26	878
3879.98	926
3880.71	906
3881.43	932
3882.16	890
3882.88	894
3883.6	918
3884.33	926
3885.05	934
3885.78	870
3886.5	930
3887.22	916
3887.95	936
3888.67	940
3889.4	866
3890.12	890
3890.84	908
3891.57	920
3892.29	916
3893.01	908
3893.73	918
3894.46	932
3895.18	934
3895.9	890
3896.63	872
3897.35	928
3898.07	898
3898.79	852
3899.51	898
3900.24	952
3900.96	924
3901.68	914
3902.4	926
3903.12	892
3903.84	932
3904.57	880
3905.29	938
3906.01	940
3906.73	892
3907.45	914
3908.17	914
3908.89	930
3909.61	932
3910.33	892
3911.06	898
3911.78	902
3912.5	906
3913.22	884
3913.94	876
3914.66	890
3915.38	876
3916.1	840
3916.82	898
3917.54	876
3918.26	882
3918.98	910
3919.69	896
3920.41	880
3921.13	872
3921.85	888
3922.57	898
3923.29	896
3924.01	890
3924.73	878
3925.45	872
3926.17	872
3926.88	874
3927.6	914
3928.32	876
3929.04	914
3929.76	880
3930.47	876
3931.19	886
3931.91	868
3932.63	876
3933.35	894
3934.06	862
3934.78	848
3935.5	888
3936.22	864
3936.93	880
3937.65	874
3938.37	884
3939.08	858
3939.8	870
3940.52	884
3941.23	878
3941.95	902
3942.67	890
3943.38	890
3944.1	886
3944.82	896
3945.53	868
3946.25	866
3946.96	860
3947.68	880
3948.4	882
3949.11	862
3949.83	866
3950.54	828
3951.26	864
3951.97	858
3952.69	866
3953.4	844
3954.12	880
3954.83	884
3955.55	878
3956.26	880
3956.98	842
3957.69	884
3958.4	850
3959.12	840
3959.83	854
3960.55	890
3961.26	894
3961.97	868
3962.69	846
3963.4	844
3964.12	870
3964.83	844
3965.54	888
3966.26	846
3966.97	818
3967.68	854
3968.4	898
3969.11	848
3969.82	860
3970.53	824
3971.25	838
3971.96	862
3972.67	868
3973.38	840
3974.1	856
3974.81	828
3975.52	864
3976.23	844
3976.94	872
3977.66	856
3978.37	860
3979.08	840
3979.79	876
3980.5	854
3981.21	850
3981.92	828
3982.64	860
3983.35	814
3984.06	840
3984.77	858
3985.48	854
3986.19	838
3986.9	846
3987.61	846
3988.32	816
3989.03	836
3989.74	844
3990.45	842
3991.16	826
3991.87	830
3992.58	834
3993.29	856
3994	818
3994.71	858
3995.42	832
3996.13	826
3996.84	790
3997.55	826
3998.26	848
3998.97	830
3999.67	878
