#Acq. time (s)=	5
#Accumulations=	2
#Range (cm-¹)=	200...4000
#Windows=	5
#Autofocus=	Off
#AutoExposure=	Off
#Spike filter=	Multiple accum.
#Delay time (s)=	0
#Binning=	1
#Readout mode=	Signal
#DeNoise=	Off
#ICS correction=	Off
#Dark correction=	Off
#Inst. Process=	Off
#Instrument=	LabRAM HR Evol
#Detector=	Syncerity OE
#Objective=	x100_VIS
#Grating=	600 (500nm)
#ND Filter=	10%
#Laser=	633nm_Edge
#Hole=	100.021
#Range=	Visible
#Project=	Omar
#Sample=	03-07-23
#Site=	1
#Title=	OR
#Remark=	
#Date=	03.07.2023 13:21
#Acquired=	03.07.2023 13:21:19
200.404	1216
201.671	1216
202.938	1190
204.205	1250
205.472	1216
206.737	1222
208.003	1248
209.269	1184
210.535	1268
211.799	1194
213.064	1214
214.33	1198
215.595	1194
216.858	1206
218.122	1236
219.387	1238
220.649	1206
221.913	1224
223.177	1232
224.439	1244
225.703	1228
226.966	1264
228.227	1270
229.49	1236
230.752	1252
232.013	1252
233.275	1256
234.536	1286
235.798	1274
237.059	1248
238.319	1278
239.58	1256
240.839	1268
242.1	1262
243.361	1242
244.619	1276
245.879	1300
247.138	1236
248.398	1262
249.655	1260
250.915	1274
252.172	1318
253.431	1278
254.688	1282
255.947	1290
257.204	1280
258.462	1320
259.718	1280
260.976	1332
262.232	1288
263.487	1312
264.744	1290
266	1306
267.256	1288
268.511	1266
269.767	1264
271.022	1344
272.276	1286
273.532	1324
274.786	1272
276.04	1302
277.295	1288
278.548	1310
279.801	1304
281.055	1270
282.308	1336
283.561	1306
284.814	1292
286.066	1314
287.318	1314
288.572	1318
289.823	1346
291.074	1296
292.327	1296
293.578	1342
294.828	1314
296.079	1352
297.331	1348
298.581	1312
299.831	1334
301.08	1378
302.33	1360
303.581	1380
304.83	1346
306.079	1352
307.327	1336
308.576	1352
309.825	1324
311.073	1380
312.321	1410
313.569	1362
314.816	1326
316.064	1370
317.311	1372
318.558	1388
319.806	1392
321.052	1372
322.299	1356
323.545	1368
324.79	1376
326.036	1370
327.282	1368
328.527	1366
329.772	1400
331.017	1378
332.261	1396
333.506	1410
334.75	1392
335.994	1374
337.238	1418
338.482	1364
339.725	1358
340.968	1378
342.211	1408
343.454	1398
344.697	1400
345.939	1410
347.182	1402
348.424	1386
349.666	1386
350.907	1408
352.149	1420
353.39	1416
354.631	1436
355.87	1464
357.111	1416
358.352	1380
359.592	1458
360.832	1428
362.072	1422
363.311	1446
364.549	1418
365.789	1406
367.028	1472
368.267	1458
369.505	1390
370.742	1426
371.981	1456
373.219	1430
374.457	1446
375.694	1402
376.93	1456
378.168	1450
379.405	1432
380.642	1408
381.877	1448
383.113	1390
384.35	1438
385.584	1424
386.82	1460
388.056	1436
389.291	1440
390.525	1408
391.76	1430
392.995	1474
394.228	1478
395.463	1492
396.696	1448
397.93	1446
399.164	1440
400.396	1514
401.63	1458
402.863	1440
404.095	1476
405.328	1452
406.559	1426
407.791	1488
409.022	1484
410.254	1520
411.486	1484
412.717	1500
413.948	1508
415.178	1472
416.409	1504
417.639	1472
418.87	1512
420.099	1474
421.329	1538
422.558	1568
423.788	1508
425.016	1500
426.244	1496
427.474	1524
428.701	1502
429.93	1468
431.158	1582
432.386	1552
433.613	1554
434.84	1518
436.068	1572
437.294	1546
438.522	1556
439.748	1552
440.974	1558
442.201	1588
443.426	1570
444.651	1552
445.878	1508
447.103	1560
448.327	1614
449.553	1594
450.777	1542
452.001	1568
453.225	1572
454.45	1564
455.674	1574
456.897	1546
458.121	1592
459.344	1596
460.567	1578
461.789	1574
463.012	1566
464.235	1554
465.457	1604
466.679	1576
467.9	1528
469.122	1566
470.344	1602
471.565	1594
472.786	1544
474.006	1558
475.227	1588
476.447	1596
477.668	1586
478.888	1576
480.107	1616
481.327	1590
482.546	1624
483.765	1606
484.984	1582
486.202	1596
487.421	1564
488.639	1616
489.857	1586
491.075	1612
492.292	1634
493.51	1618
494.727	1604
495.944	1638
497.161	1618
498.377	1630
499.594	1608
500.81	1612
502.026	1628
503.242	1642
504.458	1612
505.673	1630
506.888	1592
508.104	1640
509.318	1588
510.533	1620
511.748	1580
512.962	1646
514.176	1608
515.39	1658
516.602	1622
517.816	1626
519.029	1622
520.242	1632
521.455	1604
522.668	1604
523.881	1650
525.092	1600
526.304	1632
527.516	1620
528.728	1652
529.939	1648
531.149	1646
532.361	1632
533.572	1622
534.783	1618
535.992	1632
537.202	1610
538.413	1620
539.623	1594
540.831	1628
542.041	1650
543.25	1626
544.458	1602
545.667	1646
546.876	1640
548.084	1638
549.292	1690
550.501	1628
551.707	1648
552.915	1664
554.123	1662
555.329	1632
556.537	1664
557.743	1694
558.95	1662
560.156	1616
561.362	1636
562.568	1630
563.773	1660
564.979	1684
566.184	1684
567.389	1706
568.595	1696
569.799	1654
571.004	1670
572.207	1664
573.412	1712
574.615	1694
575.82	1678
577.022	1698
578.226	1650
579.429	1694
580.631	1706
581.834	1672
583.036	1690
584.239	1710
585.44	1692
586.643	1692
587.844	1664
589.045	1734
590.247	1664
591.448	1736
592.649	1726
593.849	1702
595.049	1680
596.25	1724
597.45	1686
598.649	1740
599.85	1712
601.049	1730
602.248	1694
603.448	1746
604.646	1798
605.844	1740
607.042	1754
608.241	1758
609.439	1752
610.637	1756
611.834	1732
613.032	1776
614.229	1704
615.426	1752
616.622	1748
617.819	1778
619.016	1762
620.212	1772
621.408	1736
622.603	1766
623.799	1744
624.994	1756
626.19	1760
627.385	1748
628.58	1776
629.774	1728
630.969	1744
632.163	1734
633.356	1760
634.55	1774
635.744	1744
636.938	1820
638.131	1810
639.324	1746
640.517	1778
641.71	1880
642.902	1794
644.094	1820
645.286	1830
646.478	1824
647.67	1788
648.861	1750
650.052	1814
651.243	1790
652.434	1818
653.625	1836
654.815	1832
656.006	1802
657.196	1814
658.384	1808
659.574	1758
660.764	1788
661.953	1820
663.142	1852
664.331	1806
665.52	1794
666.709	1832
667.897	1812
669.084	1808
670.272	1800
671.46	1846
672.648	1842
673.835	1828
675.021	1816
676.208	1798
677.395	1854
678.582	1844
679.768	1822
680.953	1844
682.14	1828
683.326	1814
684.512	1800
685.696	1822
686.881	1848
688.067	1868
689.252	1804
690.435	1826
691.62	1806
692.804	1844
693.987	1860
695.171	1802
696.355	1866
697.538	1782
698.721	1842
699.905	1816
701.087	1848
702.27	1848
703.451	1892
704.634	1826
705.816	1856
706.997	1882
708.179	1876
709.36	1832
710.542	1854
711.722	1854
712.903	1876
714.083	1864
715.264	1846
716.445	1890
717.624	1926
718.805	2096
719.984	2056
721.162	1876
722.342	1902
723.52	1860
724.7	1942
725.878	1890
727.057	1918
728.235	1880
729.414	1866
730.591	1860
731.768	1898
732.946	1916
734.123	1928
735.301	1846
736.477	1884
737.653	1904
738.83	1942
740.006	1936
741.182	1900
742.358	1940
743.534	1922
744.709	1912
745.885	1900
747.06	1932
748.234	1912
749.41	1882
750.584	1878
751.758	1912
752.931	1900
754.106	1904
755.28	1892
756.453	1898
757.626	1870
758.8	1890
759.973	1888
761.145	2000
762.318	1908
763.49	1950
764.662	1946
765.835	1888
767.006	1902
768.178	1884
769.349	1934
770.52	1896
771.691	1872
772.861	1916
774.033	1916
775.203	1918
776.373	1902
777.543	1904
778.713	1934
779.883	1866
781.052	1922
782.221	1880
783.39	1910
784.559	1944
785.727	1942
786.896	1936
788.064	1942
789.232	1864
790.4	1958
791.568	1938
792.735	1966
793.903	1928
795.07	1920
796.237	1898
797.404	1966
798.57	1900
799.737	1918
800.903	1962
802.068	1944
803.234	1958
804.399	1956
805.565	1938
806.73	1952
807.896	1964
809.061	1976
810.224	1972
811.389	1924
812.553	1932
813.717	1958
814.881	1960
816.045	1994
817.208	1976
818.371	1928
819.535	1986
820.698	1958
821.859	1998
823.022	2000
824.185	1992
825.347	1978
826.508	1976
827.67	1974
828.832	1998
829.993	2012
831.154	2032
832.316	1972
833.476	2038
834.637	1974
835.797	1996
836.957	2030
838.117	2040
839.278	2026
840.436	2006
841.596	2050
842.755	2018
843.914	2024
845.074	2004
846.232	1988
847.391	2006
848.548	2004
849.707	2050
850.864	2048
852.022	2076
853.179	2068
854.337	1974
855.493	1968
856.651	2072
857.807	2054
858.964	2068
860.12	2024
861.277	1998
862.432	1986
863.589	1990
864.744	2002
865.9	2068
867.055	2034
868.209	2038
869.365	2074
870.519	2086
871.674	2036
872.828	2064
873.982	2028
875.136	2084
876.29	2096
877.443	2026
878.597	2032
879.75	1942
880.902	2098
882.056	2050
883.208	2056
884.36	2054
885.512	2088
886.665	2072
887.816	2122
888.967	2142
890.118	2080
891.271	2048
892.421	2046
893.572	2062
894.722	2048
895.874	2112
897.024	2086
898.174	2052
899.323	2106
900.473	2034
901.622	2064
902.771	2060
903.922	2062
905.07	2116
906.219	2068
907.367	2020
908.516	2066
909.664	2010
910.811	2054
911.959	2034
913.107	2076
914.254	2074
915.401	2110
916.55	2014
917.696	2042
918.843	2056
919.99	2060
921.136	2120
922.282	2062
923.428	2106
924.574	2150
925.719	2072
926.863	2088
928.009	2096
929.154	2090
930.299	2052
931.443	2066
932.588	2070
933.732	2128
934.876	2090
936.02	2030
937.164	2108
938.308	2080
939.45	2126
940.593	2060
941.736	2124
942.879	2088
944.022	2090
945.165	2088
946.306	2118
947.448	2088
948.59	2096
949.732	2124
950.874	2054
952.014	2144
953.155	2156
954.296	2170
955.437	2154
956.577	2118
957.718	2198
958.858	2092
959.997	2120
961.137	2160
962.277	2116
963.416	2140
964.555	2106
965.695	2216
966.833	2210
967.972	2106
969.111	2162
970.248	2154
971.387	2112
972.524	2170
973.662	2122
974.8	2122
975.936	2092
977.074	2150
978.21	2222
979.348	2126
980.483	2168
981.62	2130
982.757	2214
983.893	2126
985.029	2164
986.164	2140
987.299	2158
988.435	2184
989.569	2144
990.705	2188
991.839	2110
992.974	2188
994.108	2130
995.243	2182
996.376	2146
997.509	2172
998.644	2202
999.777	2196
1000.91	2080
1002.04	2152
1003.18	2106
1004.31	2146
1005.44	2210
1006.57	2204
1007.71	2150
1008.84	2178
1009.97	2084
1011.1	2142
1012.23	2134
1013.36	2168
1014.49	2138
1015.63	2150
1016.76	2182
1017.89	2106
1019.02	2172
1020.15	2164
1021.28	2196
1022.41	2158
1023.54	2186
1024.66	2164
1025.79	2182
1026.92	2148
1028.05	2170
1029.18	2160
1030.31	2220
1031.44	2166
1032.56	2224
1033.69	2202
1034.82	2136
1035.95	2180
1037.08	2186
1038.2	2218
1039.33	2192
1040.46	2232
1041.58	2242
1042.71	2200
1043.83	2172
1044.96	2242
1046.09	2228
1047.21	2278
1048.34	2212
1049.46	2268
1050.59	2228
1051.71	2220
1052.84	2298
1053.96	2212
1055.09	2228
1056.21	2200
1057.33	2260
1058.46	2229
1059.58	2198
1060.71	2198
1061.83	2262
1062.95	2262
1064.07	2160
1065.2	2196
1066.32	2258
1067.44	2206
1068.56	2150
1069.69	2226
1070.81	2272
1071.93	2212
1073.05	2210
1074.17	2210
1075.29	2218
1076.41	2238
1077.54	2210
1078.66	2216
1079.78	2200
1080.9	2242
1082.02	2170
1083.14	2196
1084.25	2152
1085.37	2158
1086.49	2162
1087.61	2192
1088.73	2144
1089.85	2212
1090.97	2216
1092.09	2136
1093.21	2220
1094.32	2222
1095.44	2196
1096.56	2194
1097.68	2120
1098.79	2178
1099.91	2228
1101.03	2158
1102.14	2162
1103.26	2202
1104.38	2136
1105.49	2134
1106.61	2198
1107.72	2150
1108.84	2202
1109.96	2196
1111.07	2168
1112.19	2238
1113.3	2172
1114.42	2192
1115.53	2148
1116.64	2182
1117.76	2146
1118.87	2162
1119.99	2106
1121.1	2158
1122.21	2170
1123.33	2236
1124.44	2224
1125.55	2166
1126.66	2128
1127.78	2204
1128.89	2136
1130	2166
1131.11	2184
1132.23	2200
1133.34	2192
1134.45	2220
1135.56	2234
1136.67	2210
1137.78	2210
1138.89	2186
1140	2170
1141.11	2144
1142.22	2220
1143.33	2196
1144.44	2188
1145.55	2208
1146.66	2186
1147.77	2210
1148.88	2198
1149.99	2202
1151.1	2158
1152.21	2184
1153.32	2216
1154.42	2258
1155.53	2238
1156.64	2250
1157.75	2152
1158.85	2266
1159.96	2208
1161.07	2252
1162.17	2216
1163.28	2236
1164.39	2238
1165.49	2218
1166.6	2226
1167.71	2214
1168.81	2216
1169.92	2282
1171.02	2264
1172.13	2240
1173.23	2236
1174.34	2172
1175.44	2156
1176.55	2224
1177.65	2194
1178.76	2228
1179.86	2238
1180.97	2214
1182.07	2226
1183.17	2176
1184.28	2200
1185.38	2138
1186.48	2216
1187.58	2238
1188.69	2208
1189.79	2210
1190.89	2196
1191.99	2208
1193.1	2250
1194.2	2152
1195.3	2230
1196.4	2234
1197.5	2200
1198.6	2116
1199.7	2182
1200.8	2220
1201.9	2178
1203	2172
1204.1	2140
1205.2	2172
1206.3	2178
1207.4	2158
1208.5	2158
1209.6	2202
1210.7	2116
1211.8	2186
1212.9	2210
1214	2214
1215.1	2204
1216.19	2168
1217.29	2156
1218.39	2118
1219.49	2104
1220.58	2104
1221.68	2136
1222.78	2104
1223.88	2204
1224.97	2160
1226.07	2212
1227.17	2148
1228.26	2202
1229.36	2146
1230.45	2158
1231.55	2174
1232.65	2142
1233.74	2114
1234.84	2132
1235.93	2120
1237.02	2184
1238.12	2152
1239.21	2210
1240.31	2182
1241.4	2132
1242.5	2126
1243.59	2130
1244.68	2160
1245.78	2144
1246.87	2094
1247.96	2196
1249.06	2172
1250.15	2128
1251.24	2170
1252.33	2138
1253.43	2138
1254.52	2178
1255.61	2174
1256.7	2154
1257.79	2208
1258.88	2136
1259.98	2140
1261.07	2118
1262.16	2136
1263.25	2158
1264.34	2106
1265.43	2150
1266.52	2198
1267.61	2124
1268.7	2098
1269.79	2174
1270.88	2218
1271.96	2210
1273.05	2220
1274.14	2182
1275.23	2136
1276.32	2178
1277.41	2180
1278.5	2122
1279.58	2152
1280.67	2147.7
1281.76	2134.35
1282.85	2198.75
1283.93	2162.01
1285.02	2173.83
1286.11	2144.45
1287.19	2177.75
1288.28	2201.94
1289.37	2158.5
1290.45	2185.28
1291.54	2167.02
1292.63	2195.07
1293.71	2141.93
1294.8	2166.02
1295.88	2126.86
1296.97	2116.04
1298.05	2074.47
1299.14	2148.9
1300.22	2163.48
1301.31	2207.62
1302.39	2108.68
1303.47	2135.46
1304.56	2138.27
1305.64	2120.89
1306.72	2114.34
1307.81	2125.2
1308.89	2126.26
1309.97	2142.32
1311.06	2138.02
1312.14	2107.14
1313.22	2102.3
1314.3	2102.23
1315.39	2070.63
1316.47	2127.28
1317.55	2094.53
1318.63	2107.19
1319.71	2125.06
1320.79	2093.44
1321.88	2094
1322.96	2102.36
1324.04	2077.96
1325.12	2102.01
1326.2	2099.69
1327.28	2122.99
1328.36	2071
1329.44	2062.43
1330.52	2118.69
1331.6	2104.87
1332.68	2080.05
1333.76	2087.73
1334.84	2114.3
1335.91	2082.08
1336.99	2045.13
1338.07	2127.84
1339.15	2115.14
1340.23	2053.16
1341.31	2036.44
1342.38	2083.52
1343.46	2084.53
1344.54	2046.52
1345.62	2068.87
1346.69	2048.17
1347.77	2034.69
1348.85	2049.42
1349.92	2083.44
1351	2083.21
1352.08	2065.59
1353.15	2047.24
1354.23	2059.92
1355.3	2063.25
1356.38	2052.95
1357.46	2048.39
1358.53	2051.73
1359.6	2046.03
1360.68	2049.76
1361.75	2062.17
1362.83	2045.9
1363.9	2051.24
1364.98	2052.73
1366.05	2011.55
1367.13	2017.77
1368.2	2008.79
1369.27	2019.3
1370.35	2021.3
1371.42	2041.4
1372.49	2056.2
1373.56	2028.99
1374.64	2007.45
1375.71	1996.26
1376.78	2001.16
1377.85	1999.37
1378.93	2013.13
1380	2007.6
1381.07	2008.61
1382.14	1996.51
1383.21	1981.89
1384.28	2008.5
1385.35	1995.72
1386.43	1992.56
1387.5	2004.97
1388.57	2022.91
1389.64	2024.89
1390.13	2010
1391.2	2004
1392.28	1978
1393.35	1992
1394.43	2018
1395.5	1998
1396.57	2012
1397.65	2066
1398.72	1938
1399.8	1926
1400.87	1966
1401.94	2014
1403.02	1980
1404.09	2022
1405.17	2022
1406.24	1994
1407.31	1960
1408.38	1944
1409.46	1992
1410.53	1986
1411.6	1996
1412.67	1972
1413.74	1992
1414.82	2050
1415.89	1934
1416.96	1922
1418.03	2022
1419.1	1990
1420.17	2000
1421.24	1942
1422.31	1986
1423.38	1966
1424.45	2022
1425.52	1938
1426.59	1974
1427.66	1976
1428.73	1948
1429.8	1972
1430.87	1922
1431.94	1900
1433.01	1940
1434.08	1986
1435.14	2000
1436.21	1986
1437.28	1988
1438.35	1980
1439.42	1974
1440.48	1948
1441.55	1934
1442.62	1912
1443.68	2034
1444.75	1954
1445.82	1960
1446.89	1926
1447.95	1954
1449.02	1948
1450.08	1902
1451.15	2008
1452.22	1982
1453.28	1986
1454.35	1922
1455.41	1936
1456.48	1958
1457.54	1986
1458.61	1942
1459.67	1894
1460.73	1976
1461.8	1988
1462.86	1940
1463.93	1956
1464.99	1914
1466.05	1954
1467.12	1942
1468.18	1970
1469.24	1990
1470.31	1922
1471.37	1938
1472.43	1982
1473.49	1964
1474.56	1954
1475.62	1928
1476.68	1934
1477.74	1932
1478.8	1936
1479.86	2018
1480.93	1916
1481.99	1952
1483.05	1992
1484.11	1940
1485.17	1902
1486.23	1956
1487.29	1918
1488.35	1942
1489.41	2002
1490.47	1954
1491.53	1958
1492.59	1934
1493.65	1940
1494.71	1926
1495.76	1952
1496.82	1974
1497.88	1884
1498.94	1918
1500	1936
1501.06	1948
1502.11	1968
1503.17	1958
1504.23	1978
1505.29	1918
1506.34	1864
1507.4	1908
1508.46	1966
1509.51	1892
1510.57	1916
1511.63	1910
1512.68	1934
1513.74	1944
1514.8	1932
1515.85	1882
1516.91	1914
1517.96	1924
1519.02	1914
1520.07	1874
1521.13	1924
1522.18	1910
1523.24	1882
1524.29	1896
1525.34	1914
1526.4	1830
1527.45	1892
1528.51	1874
1529.56	1932
1530.61	1892
1531.67	1906
1532.72	1882
1533.77	1884
1534.82	1868
1535.88	1862
1536.93	1876
1537.98	1870
1539.03	1900
1540.08	1896
1541.14	1784
1542.19	1866
1543.24	1896
1544.29	1804
1545.34	1890
1546.39	1836
1547.44	1884
1548.49	1792
1549.54	1872
1550.59	1864
1551.64	1800
1552.69	1888
1553.74	1838
1554.79	1852
1555.84	1858
1556.89	1876
1557.94	1830
1558.99	1836
1560.04	1824
1561.09	1802
1562.14	1840
1563.18	1872
1564.23	1826
1565.28	1912
1566.33	1844
1567.37	1808
1568.42	1866
1569.47	1826
1570.52	1862
1571.56	1898
1572.61	1848
1573.66	1878
1574.7	1912
1575.75	1890
1576.79	1806
1577.84	1816
1578.89	1836
1579.93	1838
1580.98	1784
1582.02	1824
1583.07	1850
1584.11	1820
1585.16	1806
1586.2	1836
1587.25	1838
1588.29	1816
1589.34	1780
1590.38	1788
1591.42	1848
1592.47	1802
1593.51	1834
1594.55	1854
1595.6	1862
1596.64	1826
1597.68	1856
1598.72	1804
1599.77	1800
1600.81	1776
1601.85	1866
1602.89	1810
1603.94	1824
1604.98	1850
1606.02	1838
1607.06	1800
1608.1	1832
1609.14	1798
1610.18	1812
1611.22	1794
1612.26	1780
1613.3	1862
1614.34	1810
1615.38	1826
1616.42	1842
1617.46	1824
1618.5	1830
1619.54	1850
1620.58	1844
1621.62	1860
1622.66	1790
1623.7	1868
1624.74	1778
1625.78	1822
1626.81	1800
1627.85	1788
1628.89	1744
1629.93	1826
1630.97	1860
1632	1858
1633.04	1820
1634.08	1832
1635.11	1822
1636.15	1832
1637.19	1808
1638.22	1850
1639.26	1838
1640.3	1734
1641.33	1792
1642.37	1788
1643.4	1772
1644.44	1820
1645.47	1792
1646.51	1790
1647.55	1862
1648.58	1790
1649.61	1778
1650.65	1754
1651.68	1814
1652.72	1758
1653.75	1806
1654.79	1758
1655.82	1774
1656.85	1794
1657.89	1794
1658.92	1786
1659.95	1760
1660.98	1798
1662.02	1808
1663.05	1748
1664.08	1744
1665.12	1742
1666.15	1720
1667.18	1776
1668.21	1802
1669.24	1746
1670.27	1758
1671.3	1794
1672.34	1776
1673.37	1730
1674.4	1750
1675.43	1760
1676.46	1744
1677.49	1740
1678.52	1738
1679.55	1776
1680.58	1766
1681.61	1770
1682.64	1720
1683.67	1722
1684.7	1692
1685.73	1698
1686.75	1708
1687.78	1726
1688.81	1708
1689.84	1708
1690.87	1708
1691.9	1660
1692.93	1708
1693.95	1746
1694.98	1756
1696.01	1734
1697.03	1702
1698.06	1710
1699.09	1656
1700.12	1688
1701.14	1682
1702.17	1720
1703.2	1676
1704.22	1676
1705.25	1656
1706.27	1710
1707.3	1720
1708.32	1736
1709.35	1684
1710.37	1698
1711.4	1696
1712.42	1684
1713.45	1714
1714.47	1698
1715.5	1654
1716.52	1712
1717.55	1680
1718.57	1684
1719.59	1638
1720.62	1672
1721.64	1652
1722.67	1660
1723.69	1658
1724.71	1708
1725.73	1684
1726.76	1680
1727.78	1708
1728.8	1660
1729.82	1672
1730.84	1708
1731.87	1686
1732.89	1658
1733.91	1648
1734.93	1626
1735.95	1626
1736.97	1694
1737.99	1684
1739.01	1666
1740.04	1660
1741.06	1646
1742.08	1690
1743.1	1688
1744.12	1696
1745.14	1640
1746.16	1684
1747.18	1652
1748.19	1642
1749.21	1702
1750.23	1654
1751.25	1598
1752.27	1670
1753.29	1606
1754.31	1670
1755.33	1686
1756.34	1684
1757.36	1646
1758.38	1612
1759.4	1600
1760.41	1664
1761.43	1690
1762.45	1668
1763.47	1592
1764.48	1634
1765.5	1628
1766.51	1640
1767.53	1680
1768.55	1590
1769.56	1664
1770.58	1650
1771.6	1636
1772.61	1618
1773.63	1692
1774.64	1622
1775.66	1642
1776.67	1656
1777.69	1664
1778.7	1618
1779.71	1588
1780.73	1650
1781.74	1630
1782.76	1612
1783.77	1676
1784.78	1622
1785.8	1642
1786.81	1584
1787.82	1598
1788.84	1632
1789.85	1592
1790.86	1614
1791.88	1628
1792.89	1626
1793.9	1616
1794.91	1610
1795.92	1604
1796.94	1610
1797.95	1642
1798.96	1568
1799.97	1594
1800.98	1618
1801.99	1600
1803	1614
1804.01	1622
1805.02	1624
1806.03	1580
1807.04	1554
1808.05	1624
1809.06	1608
1810.07	1586
1811.08	1616
1812.09	1596
1813.1	1614
1814.11	1628
1815.12	1652
1816.13	1604
1817.14	1586
1818.14	1554
1819.15	1610
1820.16	1544
1821.17	1584
1822.18	1622
1823.18	1590
1824.19	1620
1825.2	1568
1826.21	1596
1827.21	1630
1828.22	1562
1829.23	1540
1830.23	1532
1831.24	1580
1832.25	1560
1833.25	1512
1834.26	1546
1835.27	1574
1836.27	1604
1837.28	1532
1838.28	1620
1839.29	1598
1840.29	1568
1841.3	1550
1842.3	1522
1843.31	1562
1844.31	1566
1845.31	1562
1846.32	1578
1847.32	1514
1848.33	1526
1849.33	1516
1850.33	1592
1851.34	1564
1852.34	1498
1853.34	1546
1854.35	1568
1855.35	1546
1856.35	1570
1857.35	1504
1858.36	1548
1859.36	1492
1860.36	1526
1861.36	1510
1862.36	1502
1863.36	1532
1864.36	1532
1865.37	1508
1866.37	1530
1867.37	1552
1868.37	1510
1869.37	1502
1870.37	1548
1871.37	1500
1872.37	1546
1873.37	1462
1874.37	1562
1875.37	1508
1876.37	1478
1877.37	1552
1878.37	1544
1879.37	1570
1880.36	1476
1881.36	1522
1882.36	1508
1883.36	1492
1884.36	1492
1885.36	1482
1886.35	1532
1887.35	1538
1888.35	1502
1889.35	1456
1890.34	1472
1891.34	1504
1892.34	1440
1893.34	1512
1894.33	1522
1895.33	1514
1896.33	1526
1897.32	1496
1898.32	1480
1899.31	1498
1900.31	1506
1901.3	1496
1902.3	1458
1903.3	1504
1904.29	1536
1905.29	1474
1906.28	1534
1907.27	1488
1908.27	1514
1909.26	1462
1910.26	1452
1911.25	1502
1912.25	1482
1913.24	1496
1914.23	1504
1915.23	1490
1916.22	1470
1917.21	1462
1918.21	1432
1919.2	1494
1920.19	1494
1921.18	1460
1922.18	1484
1923.17	1462
1924.16	1454
1925.15	1452
1926.14	1486
1927.14	1436
1928.13	1426
1929.12	1458
1930.11	1440
1931.1	1548
1932.09	1480
1933.08	1472
1934.07	1464
1935.06	1442
1936.05	1436
1937.04	1468
1938.03	1460
1939.02	1474
1940.01	1490
1941	1466
1941.99	1488
1942.98	1534
1943.97	1460
1944.96	1480
1945.95	1382
1946.94	1434
1947.92	1448
1948.91	1462
1949.9	1414
1950.89	1428
1951.88	1434
1952.86	1444
1953.85	1438
1954.84	1478
1955.83	1438
1956.81	1408
1957.8	1438
1958.79	1418
1959.77	1416
1960.76	1434
1961.75	1416
1962.73	1394
1963.72	1436
1964.7	1384
1965.69	1420
1966.68	1474
1967.66	1462
1968.65	1454
1969.63	1430
1970.62	1360
1971.6	1398
1972.59	1424
1973.57	1408
1974.55	1412
1975.54	1396
1976.52	1436
1977.51	1448
1978.49	1464
1979.47	1394
1980.46	1390
1981.44	1442
1982.42	1370
1983.41	1382
1984.39	1386
1985.37	1416
1986.35	1424
1987.34	1450
1988.32	1422
1989.3	1404
1990.28	1394
1991.27	1396
1992.25	1390
1993.23	1408
1994.21	1404
1995.19	1392
1996.17	1412
1997.15	1346
1998.13	1414
1999.11	1414
2000.09	1406
2001.07	1394
2002.05	1382
2003.03	1404
2004.01	1380
2004.99	1346
2005.97	1378
2006.95	1394
2007.93	1336
2008.91	1372
2009.89	1342
2010.87	1360
2011.85	1374
2012.82	1350
2013.8	1346
2014.78	1376
2015.76	1406
2016.74	1334
2017.72	1348
2018.69	1392
2019.67	1412
2020.65	1368
2021.62	1398
2022.6	1378
2023.58	1358
2024.55	1340
2025.53	1332
2026.51	1324
2027.48	1380
2028.46	1366
2029.44	1340
2030.41	1358
2031.39	1384
2032.36	1346
2033.34	1380
2034.31	1322
2035.29	1364
2036.26	1334
2037.24	1390
2038.21	1378
2039.19	1400
2040.16	1346
2041.14	1296
2042.11	1364
2043.08	1342
2044.06	1370
2045.03	1326
2046	1356
2046.98	1380
2047.95	1312
2048.92	1350
2049.9	1310
2050.87	1344
2051.84	1344
2052.81	1336
2053.79	1296
2054.76	1344
2055.73	1374
2056.7	1344
2057.67	1334
2058.64	1366
2059.61	1318
2060.59	1324
2061.56	1308
2062.53	1364
2063.5	1288
2064.47	1314
2065.44	1344
2066.41	1316
2067.38	1264
2068.35	1298
2069.32	1350
2070.29	1338
2071.26	1334
2072.23	1310
2073.2	1340
2074.17	1322
2075.14	1280
2076.1	1288
2077.07	1320
2078.04	1344
2079.01	1336
2079.98	1330
2080.95	1358
2081.91	1302
2082.88	1300
2083.85	1282
2084.82	1308
2085.78	1294
2086.75	1294
2087.72	1300
2088.68	1292
2089.65	1286
2090.62	1308
2091.58	1308
2092.55	1290
2093.52	1328
2094.48	1242
2095.45	1298
2096.41	1274
2097.38	1284
2098.35	1266
2099.31	1294
2100.28	1310
2101.24	1314
2102.21	1288
2103.17	1314
2104.14	1290
2105.1	1252
2106.06	1272
2107.03	1288
2107.99	1266
2108.96	1258
2109.92	1250
2110.88	1294
2111.85	1328
2112.81	1278
2113.77	1240
2114.73	1250
2115.7	1296
2116.66	1278
2117.62	1270
2118.58	1252
2119.55	1248
2120.51	1264
2121.47	1256
2122.43	1318
2123.39	1250
2124.36	1276
2125.32	1262
2126.28	1234
2127.24	1246
2128.2	1262
2129.16	1256
2130.12	1274
2131.08	1242
2132.04	1260
2133	1254
2133.96	1252
2134.92	1264
2135.88	1214
2136.84	1236
2137.8	1242
2138.76	1230
2139.72	1276
2140.68	1254
2141.64	1258
2142.59	1198
2143.55	1264
2144.51	1226
2145.47	1234
2146.43	1250
2147.39	1242
2148.34	1280
2149.3	1252
2150.26	1268
2151.22	1292
2152.17	1220
2153.13	1214
2154.09	1230
2155.04	1212
2156	1236
2156.96	1172
2157.91	1262
2158.87	1212
2159.82	1194
2160.78	1238
2161.74	1212
2162.69	1214
2163.65	1228
2164.6	1208
2165.56	1236
2166.51	1240
2167.47	1226
2168.42	1208
2169.38	1188
2170.33	1214
2171.29	1204
2172.24	1234
2173.19	1194
2174.15	1242
2175.1	1146
2176.05	1220
2177.01	1216
2177.96	1176
2178.91	1234
2179.87	1180
2180.82	1190
2181.77	1184
2182.73	1162
2183.68	1192
2184.63	1182
2185.58	1164
2186.53	1198
2187.49	1176
2188.44	1204
2189.39	1172
2190.34	1176
2191.29	1180
2192.24	1148
2193.19	1180
2194.14	1118
2195.09	1138
2196.05	1192
2197	1182
2197.95	1090
2198.9	1150
2199.85	1130
2200.8	1162
2201.75	1162
2202.7	1168
2203.64	1134
2204.59	1156
2205.54	1158
2206.49	1150
2207.44	1116
2208.39	1160
2209.34	1172
2210.29	1140
2211.23	1158
2212.18	1134
2213.13	1162
2214.08	1154
2215.03	1160
2215.97	1170
2216.92	1150
2217.87	1114
2218.81	1180
2219.76	1159.66
2220.71	1164.53
2221.66	1093.63
2222.6	1120.49
2223.55	1115.07
2224.49	1118.55
2225.44	1126.07
2226.39	1126.27
2227.33	1161.02
2228.28	1153.82
2229.22	1124.03
2230.17	1106.76
2231.11	1122.07
2232.06	1146.78
2233	1127.94
2233.95	1078.75
2234.89	1113.93
2235.84	1079.57
2236.78	1120.75
2237.73	1134.9
2238.67	1139.52
2239.61	1107.55
2240.56	1111.43
2241.5	1076.61
2242.45	1104.18
2243.39	1116.17
2244.33	1116.03
2245.28	1141.58
2246.22	1092.03
2247.16	1090
2248.1	1101.82
2249.05	1117.54
2249.99	1089.76
2250.93	1125.68
2251.87	1089.22
2252.81	1068.15
2253.76	1081.73
2254.7	1101.05
2255.64	1070.85
2256.58	1087.63
2257.52	1093.49
2258.46	1107.13
2259.4	1040.79
2260.34	1062.8
2261.28	1078.66
2262.23	1066.43
2263.17	1102.91
2264.11	1091.06
2265.05	1083.06
2265.99	1063.81
2266.93	1074
2267.87	1060.13
2268.8	1062.97
2269.74	1075.61
2270.68	1037.85
2271.62	1066.97
2272.56	1067.55
2273.5	1045.4
2274.44	1065.21
2275.38	1049.88
2276.32	1022.84
2277.25	1025.27
2278.19	1043.51
2279.13	1058.27
2280.07	1052.74
2281.01	1041.39
2281.94	1033.31
2282.88	1034.02
2283.82	1049.26
2284.76	1024.43
2285.69	1045.85
2286.63	1058.81
2287.57	1051.05
2288.5	1026.84
2289.44	1020.56
2290.37	1044.65
2291.31	1057.23
2292.25	1042.6
2293.18	1032.89
2294.12	1026.98
2295.05	1051.39
2295.99	1037.35
2296.92	1011.25
2297.86	1039.57
2298.79	1030.38
2299.73	1021.66
2300.66	1042.3
2301.6	1035.44
2302.53	1027.02
2303.47	1004.44
2304.4	1014.42
2305.34	1012.24
2306.27	1006.25
2307.2	1014.56
2308.14	1019.77
2309.07	1011.9
2310	1014.31
2310.94	1013.64
2311.87	1003.26
2312.8	977.524
2313.74	984.868
2313.98	990
2314.92	978
2315.86	1000
2316.79	1020
2317.73	1008
2318.67	1020
2319.6	1020
2320.54	978
2321.48	1000
2322.41	1022
2323.35	1000
2324.29	1030
2325.22	1014
2326.16	1016
2327.09	1008
2328.03	990
2328.96	994
2329.9	1002
2330.83	1002
2331.77	992
2332.7	1010
2333.64	980
2334.57	1000
2335.51	988
2336.44	956
2337.38	982
2338.31	950
2339.24	1014
2340.18	1018
2341.11	1010
2342.04	976
2342.98	978
2343.91	1002
2344.84	980
2345.78	956
2346.71	994
2347.64	986
2348.57	986
2349.51	998
2350.44	1010
2351.37	986
2352.3	982
2353.24	948
2354.17	980
2355.1	950
2356.03	954
2356.96	958
2357.89	976
2358.82	984
2359.75	964
2360.68	960
2361.62	946
2362.55	972
2363.48	958
2364.41	954
2365.34	952
2366.27	992
2367.2	954
2368.13	976
2369.05	962
2369.98	950
2370.91	962
2371.84	964
2372.77	994
2373.7	964
2374.63	948
2375.56	984
2376.49	968
2377.41	944
2378.34	964
2379.27	1004
2380.2	952
2381.12	960
2382.05	968
2382.98	936
2383.91	944
2384.83	944
2385.76	992
2386.69	974
2387.61	936
2388.54	982
2389.47	914
2390.39	948
2391.32	960
2392.25	974
2393.17	958
2394.1	958
2395.02	938
2395.95	956
2396.87	970
2397.8	962
2398.72	916
2399.65	902
2400.57	970
2401.5	950
2402.42	914
2403.35	936
2404.27	970
2405.2	940
2406.12	958
2407.04	940
2407.97	914
2408.89	940
2409.81	908
2410.74	938
2411.66	940
2412.58	918
2413.51	934
2414.43	930
2415.35	924
2416.27	918
2417.2	884
2418.12	974
2419.04	928
2419.96	928
2420.88	928
2421.81	908
2422.73	910
2423.65	938
2424.57	946
2425.49	922
2426.41	886
2427.33	936
2428.25	900
2429.17	918
2430.1	954
2431.02	892
2431.94	920
2432.85	918
2433.77	902
2434.7	910
2435.61	926
2436.53	920
2437.45	942
2438.37	936
2439.29	872
2440.21	904
2441.13	900
2442.05	920
2442.97	930
2443.88	890
2444.8	906
2445.72	884
2446.64	884
2447.56	922
2448.47	918
2449.39	920
2450.31	918
2451.23	910
2452.14	908
2453.06	900
2453.98	934
2454.89	912
2455.81	906
2456.73	906
2457.64	926
2458.56	904
2459.48	918
2460.39	882
2461.31	922
2462.22	916
2463.14	930
2464.05	898
2464.97	890
2465.88	916
2466.8	908
2467.71	866
2468.63	890
2469.54	870
2470.46	908
2471.37	884
2472.29	888
2473.2	908
2474.11	892
2475.03	904
2475.94	878
2476.86	896
2477.77	870
2478.68	872
2479.59	908
2480.51	888
2481.42	918
2482.33	860
2483.25	880
2484.16	876
2485.07	884
2485.98	882
2486.9	874
2487.81	882
2488.72	868
2489.63	910
2490.54	872
2491.45	882
2492.36	900
2493.28	858
2494.19	890
2495.1	866
2496.01	888
2496.92	902
2497.83	860
2498.74	860
2499.65	868
2500.56	896
2501.47	874
2502.38	872
2503.29	854
2504.2	882
2505.11	872
2506.02	896
2506.93	878
2507.83	848
2508.74	880
2509.65	876
2510.56	886
2511.47	864
2512.38	838
2513.29	892
2514.19	846
2515.1	882
2516.01	878
2516.92	910
2517.82	856
2518.73	848
2519.64	874
2520.55	836
2521.45	882
2522.36	832
2523.27	902
2524.17	866
2525.08	850
2525.99	882
2526.89	862
2527.8	848
2528.7	834
2529.61	828
2530.51	834
2531.42	858
2532.33	860
2533.23	830
2534.14	842
2535.04	856
2535.95	860
2536.85	834
2537.75	844
2538.66	872
2539.56	834
2540.47	872
2541.37	818
2542.28	850
2543.18	850
2544.08	812
2544.99	860
2545.89	844
2546.79	816
2547.7	820
2548.6	810
2549.5	846
2550.4	824
2551.31	822
2552.21	846
2553.11	810
2554.01	852
2554.92	842
2555.82	806
2556.72	848
2557.62	848
2558.52	806
2559.42	820
2560.32	840
2561.23	858
2562.13	810
2563.03	802
2563.93	826
2564.83	822
2565.73	826
2566.63	826
2567.53	808
2568.43	808
2569.33	858
2570.23	820
2571.13	812
2572.03	850
2572.93	838
2573.83	810
2574.73	810
2575.63	818
2576.52	814
2577.42	810
2578.32	798
2579.22	834
2580.12	798
2581.02	814
2581.91	806
2582.81	828
2583.71	840
2584.61	820
2585.51	824
2586.4	832
2587.3	826
2588.2	786
2589.09	820
2589.99	786
2590.89	808
2591.78	810
2592.68	806
2593.58	794
2594.47	790
2595.37	778
2596.26	816
2597.16	824
2598.06	832
2598.95	784
2599.85	806
2600.74	782
2601.64	802
2602.53	804
2603.43	822
2604.32	804
2605.22	824
2606.11	810
2607.01	788
2607.9	780
2608.79	808
2609.69	798
2610.58	800
2611.48	794
2612.37	788
2613.26	798
2614.16	816
2615.05	798
2615.94	790
2616.84	762
2617.73	802
2618.62	794
2619.51	770
2620.41	784
2621.3	760
2622.19	792
2623.08	794
2623.97	788
2624.87	792
2625.76	770
2626.65	756
2627.54	786
2628.43	766
2629.32	790
2630.21	794
2631.1	790
2631.99	786
2632.89	764
2633.78	774
2634.67	772
2635.56	778
2636.45	764
2637.34	750
2638.23	784
2639.12	754
2640.01	778
2640.9	784
2641.78	784
2642.67	766
2643.56	754
2644.45	766
2645.34	748
2646.23	768
2647.12	750
2648.01	764
2648.89	760
2649.78	708
2650.67	770
2651.56	744
2652.45	748
2653.33	784
2654.22	776
2655.11	736
2656	772
2656.88	762
2657.77	718
2658.66	746
2659.54	750
2660.43	758
2661.32	780
2662.2	730
2663.09	738
2663.97	752
2664.86	752
2665.75	766
2666.63	746
2667.52	748
2668.4	746
2669.29	748
2670.17	746
2671.06	738
2671.94	742
2672.83	766
2673.71	750
2674.6	744
2675.48	740
2676.37	786
2677.25	762
2678.13	748
2679.02	746
2679.9	764
2680.78	764
2681.67	714
2682.55	746
2683.43	750
2684.32	780
2685.2	734
2686.08	740
2686.97	740
2687.85	728
2688.73	754
2689.61	720
2690.5	718
2691.38	738
2692.26	744
2693.14	714
2694.02	748
2694.9	712
2695.79	746
2696.67	720
2697.55	732
2698.43	712
2699.31	682
2700.19	740
2701.07	714
2701.95	736
2702.83	730
2703.71	730
2704.59	714
2705.47	700
2706.35	714
2707.23	736
2708.11	696
2708.99	718
2709.87	732
2710.75	734
2711.63	676
2712.51	730
2713.39	700
2714.27	712
2715.14	712
2716.02	708
2716.9	732
2717.78	724
2718.66	714
2719.54	724
2720.41	718
2721.29	694
2722.17	710
2723.05	692
2723.92	720
2724.8	694
2725.68	700
2726.55	706
2727.43	730
2728.31	694
2729.18	706
2730.06	694
2730.94	722
2731.81	706
2732.69	720
2733.57	694
2734.44	676
2735.32	728
2736.19	684
2737.07	700
2737.94	700
2738.82	680
2739.69	724
2740.57	686
2741.44	680
2742.32	692
2743.19	666
2744.07	708
2744.94	672
2745.81	698
2746.69	702
2747.56	690
2748.44	698
2749.31	696
2750.18	708
2751.06	686
2751.93	700
2752.8	696
2753.68	674
2754.55	674
2755.42	672
2756.29	714
2757.17	674
2758.04	680
2758.91	660
2759.78	670
2760.65	654
2761.53	686
2762.4	694
2763.27	694
2764.14	708
2765.01	668
2765.88	686
2766.76	668
2767.63	678
2768.5	650
2769.37	664
2770.24	684
2771.11	660
2771.98	682
2772.85	658
2773.72	678
2774.59	632
2775.46	674
2776.33	646
2777.2	672
2778.07	678
2778.94	670
2779.81	648
2780.67	646
2781.54	666
2782.41	662
2783.28	694
2784.15	648
2785.02	664
2785.89	660
2786.75	668
2787.62	658
2788.49	686
2789.36	650
2790.23	662
2791.09	674
2791.96	646
2792.83	632
2793.7	636
2794.56	650
2795.43	662
2796.3	668
2797.16	664
2798.03	632
2798.9	656
2799.76	654
2800.63	612
2801.49	646
2802.36	640
2803.23	628
2804.09	662
2804.96	654
2805.82	652
2806.69	644
2807.55	642
2808.42	656
2809.28	648
2810.15	646
2811.01	634
2811.88	640
2812.74	624
2813.61	666
2814.47	612
2815.33	654
2816.2	632
2817.06	646
2817.93	656
2818.79	638
2819.65	654
2820.52	636
2821.38	636
2822.24	622
2823.11	608
2823.97	618
2824.83	634
2825.69	610
2826.55	608
2827.42	652
2828.28	636
2829.14	624
2830	628
2830.87	632
2831.73	610
2832.59	610
2833.45	614
2834.31	608
2835.17	626
2836.03	628
2836.89	604
2837.76	622
2838.62	626
2839.48	612
2840.34	634
2841.2	620
2842.06	622
2842.92	612
2843.78	620
2844.64	604
2845.5	640
2846.36	628
2847.22	580
2848.07	584
2848.93	618
2849.79	614
2850.65	620
2851.51	590
2852.37	588
2853.23	586
2854.09	600
2854.95	596
2855.8	612
2856.66	596
2857.52	620
2858.38	610
2859.24	598
2860.09	590
2860.95	618
2861.81	610
2862.66	568
2863.52	592
2864.38	584
2865.24	588
2866.09	596
2866.95	598
2867.81	588
2868.66	600
2869.52	576
2870.37	591
2871.23	606
2872.09	592
2872.94	592
2873.8	592
2874.65	578
2875.51	572
2876.36	566
2877.22	574
2878.07	576
2878.93	590
2879.78	578
2880.64	586
2881.49	568
2882.35	576
2883.2	590
2884.05	598
2884.91	574
2885.76	558
2886.62	580
2887.47	584
2888.32	564
2889.18	570
2890.03	596
2890.88	568
2891.74	572
2892.59	572
2893.44	592
2894.29	580
2895.15	564
2896	600
2896.85	548
2897.7	568
2898.55	562
2899.41	566
2900.26	578
2901.11	576
2901.96	588
2902.81	592
2903.66	582
2904.52	560
2905.37	576
2906.22	590
2907.07	576
2907.92	560
2908.77	542
2909.62	592
2910.47	570
2911.32	558
2912.17	566
2913.02	584
2913.87	564
2914.72	540
2915.57	544
2916.42	558
2917.27	572
2918.12	550
2918.97	578
2919.82	546
2920.66	560
2921.51	570
2922.36	572
2923.21	546
2924.06	558
2924.91	558
2925.75	560
2926.6	538
2927.45	578
2928.3	556
2929.15	560
2929.99	566
2930.84	528
2931.69	566
2932.54	560
2933.38	558
2934.23	562
2935.08	558
2935.92	544
2936.77	526
2937.62	564
2938.46	560
2939.31	554
2940.15	544
2941	514
2941.85	530
2942.69	542
2943.54	566
2944.38	552
2945.23	544
2946.07	560
2946.92	546
2947.76	552
2948.61	554
2949.45	572
2950.3	526
2951.14	534
2951.99	540
2952.83	514
2953.67	540
2954.52	550
2955.36	536
2956.21	524
2957.05	554
2957.89	560
2958.74	510
2959.58	524
2960.42	512
2961.27	520
2962.11	554
2962.95	544
2963.79	546
2964.64	558
2965.48	524
2966.32	542
2967.16	546
2968.01	520
2968.85	536
2969.69	534
2970.53	530
2971.37	514
2972.21	516
2973.05	520
2973.9	506
2974.74	504
2975.58	538
2976.42	512
2977.26	542
2978.1	520
2978.94	534
2979.78	532
2980.62	522
2981.46	522
2982.3	538
2983.14	528
2983.98	524
2984.82	508
2985.66	508
2986.5	496
2987.34	524
2988.18	514
2989.02	476
2989.86	530
2990.69	492
2991.53	508
2992.37	504
2993.21	516
2994.05	534
2994.89	500
2995.72	512
2996.56	500
2997.4	490
2998.24	526
2999.08	536
2999.91	502
3000.75	510
3001.59	518
3002.43	522
3003.26	482
3004.1	518
3004.94	522
3005.77	488
3006.61	470
3007.45	506
3008.28	524
3009.12	506
3009.95	496
3010.79	496
3011.63	490
3012.46	490
3013.3	464
3014.13	476
3014.97	510
3015.8	492
3016.64	506
3017.47	474
3018.31	504
3019.14	508
3019.98	500
3020.81	496
3021.65	504
3022.48	500
3023.31	504
3024.15	492
3024.98	504
3025.82	476
3026.65	470
3027.48	476
3028.32	496
3029.15	478
3029.98	462
3030.82	486
3031.65	472
3032.48	468
3033.31	490
3034.15	468
3034.98	490
3035.81	478
3036.64	466
3037.48	442
3038.31	464
3039.14	468
3039.97	486
3040.8	477.8
3041.63	512.82
3042.47	479.049
3043.3	469.478
3044.13	448.691
3044.96	473.441
3045.79	486.748
3046.62	470.816
3047.45	478.428
3048.28	451.94
3049.11	478.802
3049.94	481.807
3050.77	455.579
3051.6	466.676
3052.43	478.973
3053.26	472.311
3054.09	459.744
3054.92	472.033
3055.75	473.563
3056.58	445.523
3057.41	479.768
3058.24	465.766
3059.07	454.736
3059.9	452.222
3060.73	466.531
3061.55	446.913
3062.38	451.472
3063.21	448.986
3064.04	460.198
3064.87	439.271
3065.7	463.502
3066.52	449.453
3067.35	456.506
3068.18	446.515
3069.01	458.864
3069.83	429.95
3070.66	437.542
3071.49	450.928
3072.32	456.813
3073.14	446.879
3073.97	455.673
3074.8	443.141
3075.62	444.754
3076.45	446.127
3077.28	422.475
3078.1	432.287
3078.93	437.621
3079.75	437.764
3080.58	432.33
3081.41	436.579
3082.23	441.479
3083.06	436.842
3083.88	449.566
3084.71	443.235
3085.53	430
3086.36	441.991
3087.18	434.1
3088.01	423.853
3088.83	420.445
3089.66	437.754
3090.48	423.515
3091.31	415.171
3092.13	425.768
3092.96	427.351
3093.78	414.865
3094.6	417.415
3095.43	426.086
3096.25	417.329
3097.07	429.908
3097.9	427.11
3098.72	423.417
3099.54	416.733
3100.37	399.585
3101.19	414.144
3102.01	412.282
3102.84	418.509
3103.66	419.631
3104.48	411.368
3105.3	406.921
3106.13	403.585
3106.95	394.995
3107.77	405.354
3108.59	397.101
3109.41	399.087
3110.24	399.961
3111.06	408.662
3111.88	411.283
3112.7	407.951
3113.52	409.404
3114.34	398.494
3115.16	387.686
3115.98	397.197
3116.81	399.424
3117.63	384.104
3118.45	394.417
3119.27	407.525
3120.09	398.117
3120.91	396.44
3121.73	387.324
3122.55	387.867
3123.37	390.649
3123.73	386
3124.56	402
3125.38	394
3126.21	404
3127.03	378
3127.85	376
3128.68	388
3129.5	382
3130.32	372
3131.15	386
3131.97	408
3132.79	380
3133.62	382
3134.44	400
3135.26	400
3136.08	376
3136.91	390
3137.73	380
3138.55	368
3139.37	384
3140.19	364
3141.02	382
3141.84	376
3142.66	358
3143.48	390
3144.3	380
3145.13	386
3145.95	376
3146.77	376
3147.59	380
3148.41	384
3149.23	384
3150.05	354
3150.87	370
3151.69	364
3152.51	364
3153.33	382
3154.15	362
3154.97	376
3155.79	384
3156.61	382
3157.43	366
3158.25	382
3159.07	370
3159.89	380
3160.71	386
3161.53	364
3162.35	340
3163.17	358
3163.98	374
3164.8	364
3165.62	378
3166.44	380
3167.26	386
3168.08	366
3168.89	354
3169.71	384
3170.53	364
3171.35	378
3172.17	360
3172.98	376
3173.8	368
3174.62	346
3175.43	360
3176.25	346
3177.07	352
3177.89	356
3178.7	360
3179.52	354
3180.33	368
3181.15	356
3181.97	364
3182.78	352
3183.6	362
3184.41	388
3185.23	362
3186.05	342
3186.86	366
3187.68	370
3188.49	366
3189.31	360
3190.12	364
3190.94	362
3191.75	362
3192.57	344
3193.38	364
3194.2	366
3195.01	354
3195.82	366
3196.64	336
3197.45	354
3198.27	364
3199.08	362
3199.89	364
3200.71	354
3201.52	360
3202.33	342
3203.15	352
3203.96	362
3204.77	338
3205.59	362
3206.4	346
3207.21	366
3208.02	358
3208.84	350
3209.65	360
3210.46	364
3211.27	328
3212.09	350
3212.9	350
3213.71	364
3214.52	356
3215.33	356
3216.14	370
3216.96	318
3217.77	352
3218.58	352
3219.39	358
3220.2	354
3221.01	370
3221.82	352
3222.63	354
3223.44	354
3224.25	336
3225.06	356
3225.87	360
3226.68	344
3227.49	358
3228.3	352
3229.11	356
3229.92	338
3230.73	354
3231.54	340
3232.35	362
3233.16	352
3233.97	338
3234.77	338
3235.58	354
3236.39	324
3237.2	330
3238.01	348
3238.82	340
3239.63	354
3240.43	332
3241.24	338
3242.05	338
3242.86	340
3243.66	332
3244.47	336
3245.28	324
3246.09	338
3246.89	344
3247.7	338
3248.51	348
3249.31	324
3250.12	350
3250.93	342
3251.73	342
3252.54	326
3253.35	334
3254.15	334
3254.96	334
3255.76	340
3256.57	338
3257.38	352
3258.18	330
3258.99	340
3259.79	332
3260.6	336
3261.4	340
3262.21	342
3263.01	348
3263.82	330
3264.62	324
3265.43	320
3266.23	334
3267.04	328
3267.84	318
3268.64	330
3269.45	326
3270.25	316
3271.06	312
3271.86	312
3272.66	326
3273.47	332
3274.27	332
3275.07	322
3275.88	322
3276.68	322
3277.48	324
3278.28	340
3279.09	324
3279.89	302
3280.69	322
3281.49	310
3282.3	322
3283.1	314
3283.9	330
3284.7	318
3285.5	330
3286.31	338
3287.11	316
3287.91	322
3288.71	326
3289.51	312
3290.31	326
3291.11	320
3291.91	284
3292.71	320
3293.51	320
3294.31	326
3295.12	326
3295.92	326
3296.72	318
3297.52	326
3298.32	328
3299.12	308
3299.92	320
3300.72	322
3301.51	314
3302.31	328
3303.11	314
3303.91	310
3304.71	320
3305.51	296
3306.31	314
3307.11	318
3307.91	296
3308.71	306
3309.5	324
3310.3	306
3311.1	320
3311.9	300
3312.7	320
3313.49	306
3314.29	308
3315.09	296
3315.89	308
3316.69	296
3317.48	320
3318.28	312
3319.08	306
3319.87	316
3320.67	300
3321.47	300
3322.26	310
3323.06	304
3323.86	314
3324.65	308
3325.45	310
3326.25	288
3327.04	292
3327.84	316
3328.63	302
3329.43	312
3330.22	308
3331.02	314
3331.81	300
3332.61	316
3333.4	272
3334.2	324
3334.99	306
3335.79	306
3336.58	304
3337.38	310
3338.17	302
3338.97	312
3339.76	300
3340.56	302
3341.35	282
3342.14	290
3342.94	310
3343.73	284
3344.52	300
3345.32	284
3346.11	324
3346.9	322
3347.7	296
3348.49	288
3349.28	306
3350.08	312
3350.87	308
3351.66	288
3352.45	306
3353.25	294
3354.04	294
3354.83	310
3355.62	304
3356.41	292
3357.21	304
3358	302
3358.79	300
3359.58	282
3360.37	294
3361.16	288
3361.95	314
3362.75	286
3363.54	286
3364.33	274
3365.12	284
3365.91	302
3366.7	292
3367.49	278
3368.28	304
3369.07	308
3369.86	276
3370.65	294
3371.44	278
3372.23	298
3373.02	278
3373.81	296
3374.6	268
3375.39	284
3376.18	282
3376.97	298
3377.75	274
3378.54	280
3379.33	292
3380.12	286
3380.91	280
3381.7	284
3382.49	282
3383.27	294
3384.06	304
3384.85	286
3385.64	298
3386.43	280
3387.21	290
3388	292
3388.79	294
3389.58	286
3390.36	274
3391.15	288
3391.94	278
3392.72	290
3393.51	298
3394.3	280
3395.08	298
3395.87	300
3396.66	300
3397.44	282
3398.23	282
3399.01	278
3399.8	282
3400.59	258
3401.37	258
3402.16	292
3402.94	276
3403.73	288
3404.51	288
3405.3	264
3406.08	288
3406.87	292
3407.65	264
3408.44	286
3409.22	268
3410.01	286
3410.79	274
3411.58	282
3412.36	280
3413.14	262
3413.93	278
3414.71	246
3415.5	268
3416.28	282
3417.06	280
3417.85	278
3418.63	278
3419.41	272
3420.2	276
3420.98	276
3421.76	284
3422.54	262
3423.33	288
3424.11	280
3424.89	276
3425.67	276
3426.46	254
3427.24	270
3428.02	274
3428.8	290
3429.58	262
3430.36	258
3431.15	260
3431.93	288
3432.71	258
3433.49	268
3434.27	274
3435.05	260
3435.83	254
3436.61	258
3437.4	276
3438.18	276
3438.96	276
3439.74	244
3440.52	260
3441.3	266
3442.08	258
3442.86	252
3443.64	268
3444.42	272
3445.2	262
3445.98	260
3446.76	264
3447.53	252
3448.31	272
3449.09	254
3449.87	272
3450.65	274
3451.43	240
3452.21	274
3452.99	254
3453.77	270
3454.54	256
3455.32	260
3456.1	262
3456.88	260
3457.66	268
3458.43	272
3459.21	250
3459.99	272
3460.77	266
3461.54	272
3462.32	272
3463.1	264
3463.88	258
3464.65	262
3465.43	268
3466.21	278
3466.98	276
3467.76	268
3468.53	256
3469.31	274
3470.09	250
3470.86	264
3471.64	278
3472.42	252
3473.19	268
3473.97	254
3474.74	264
3475.52	266
3476.29	258
3477.07	266
3477.84	268
3478.62	264
3479.39	268
3480.17	268
3480.94	254
3481.72	228
3482.49	270
3483.27	262
3484.04	260
3484.82	244
3485.59	232
3486.36	254
3487.14	248
3487.91	254
3488.68	274
3489.46	260
3490.23	266
3491	244
3491.78	248
3492.55	266
3493.32	264
3494.1	258
3494.87	252
3495.64	250
3496.42	236
3497.19	236
3497.96	232
3498.73	246
3499.5	262
3500.28	246
3501.05	244
3501.82	256
3502.59	246
3503.36	228
3504.14	250
3504.91	248
3505.68	246
3506.45	252
3507.22	242
3507.99	244
3508.76	248
3509.53	244
3510.3	256
3511.07	238
3511.84	244
3512.61	258
3513.38	248
3514.16	252
3514.92	246
3515.7	232
3516.46	246
3517.23	248
3518	248
3518.77	272
3519.54	252
3520.31	248
3521.08	228
3521.85	256
3522.62	244
3523.39	240
3524.16	236
3524.93	250
3525.69	240
3526.46	256
3527.23	230
3528	250
3528.77	250
3529.53	238
3530.3	240
3531.07	242
3531.84	244
3532.61	230
3533.37	232
3534.14	234
3534.91	246
3535.68	246
3536.44	252
3537.21	242
3537.98	234
3538.74	226
3539.51	238
3540.28	254
3541.04	248
3541.81	220
3542.58	244
3543.34	228
3544.11	238
3544.87	234
3545.64	232
3546.4	230
3547.17	234
3547.94	238
3548.7	228
3549.47	214
3550.23	232
3551	228
3551.76	234
3552.53	220
3553.29	250
3554.06	232
3554.82	236
3555.59	230
3556.35	234
3557.11	242
3557.88	234
3558.64	234
3559.41	236
3560.17	234
3560.93	224
3561.7	248
3562.46	232
3563.22	232
3563.99	240
3564.75	240
3565.51	240
3566.28	220
3567.04	220
3567.8	216
3568.56	240
3569.33	220
3570.09	230
3570.85	234
3571.61	234
3572.38	216
3573.14	224
3573.9	240
3574.66	240
3575.42	230
3576.19	232
3576.95	238
3577.71	244
3578.47	226
3579.23	234
3579.99	228
3580.75	236
3581.51	226
3582.28	226
3583.04	236
3583.8	226
3584.56	220
3585.32	218
3586.08	226
3586.84	222
3587.6	220
3588.36	240
3589.12	236
3589.88	244
3590.64	224
3591.4	236
3592.16	236
3592.92	234
3593.67	228
3594.43	212
3595.19	230
3595.95	220
3596.71	232
3597.47	232
3598.23	224
3598.99	228
3599.75	234
3600.5	218
3601.26	226
3602.02	222
3602.78	220
3603.54	234
3604.29	234
3605.05	222
3605.81	230
3606.57	224
3607.32	214
3608.08	228
3608.84	222
3609.59	232
3610.35	218
3611.11	220
3611.87	222
3612.62	220
3613.38	214
3614.13	216
3614.89	218
3615.65	226
3616.4	198
3617.16	230
3617.92	206
3618.67	224
3619.43	220
3620.18	216
3620.94	224
3621.69	218
3622.45	212
3623.2	220
3623.96	224
3624.71	224
3625.47	218
3626.22	210
3626.98	210
3627.73	226
3628.49	212
3629.24	214
3630	210
3630.75	220
3631.5	210
3632.26	218
3633.01	214
3633.77	222
3634.52	202
3635.27	214
3636.03	234
3636.78	212
3637.53	216
3638.29	210
3639.04	210
3639.79	204
3640.55	206
3641.3	210
3642.05	202
3642.8	218
3643.56	212
3644.31	220
3645.06	216
3645.81	214
3646.56	214
3647.32	196
3648.07	210
3648.82	226
3649.57	212
3650.32	210
3651.07	206
3651.83	192
3652.58	202
3653.33	220
3654.08	220
3654.83	206
3655.58	212
3656.33	212
3657.08	206
3657.83	204
3658.58	202
3659.33	214
3660.08	216
3660.83	212
3661.58	210
3662.33	200
3663.08	220
3663.83	206
3664.58	204
3665.33	212
3666.08	210
3666.83	192
3667.58	200
3668.33	220
3669.08	212
3669.83	188
3670.57	198
3671.32	196
3672.07	216
3672.82	210
3673.57	202
3674.32	200
3675.07	212
3675.81	202
3676.56	196
3677.31	204
3678.06	214
3678.8	210
3679.55	196
3680.3	206
3681.05	208
3681.79	214
3682.54	214
3683.29	208
3684.04	196
3684.78	208
3685.53	214
3686.28	208
3687.02	174
3687.77	200
3688.51	200
3689.26	206
3690.01	198
3690.75	192
3691.5	210
3692.24	200
3692.99	202
3693.74	202
3694.48	200
3695.23	208
3695.97	196
3696.72	192
3697.46	224
3698.21	196
3698.95	208
3699.7	210
3700.44	190
3701.19	196
3701.93	200
3702.68	194
3703.42	202
3704.16	200
3704.91	194
3705.65	194
3706.4	202
3707.14	208
3707.88	188
3708.63	202
3709.37	198
3710.11	200
3710.86	186
3711.6	200
3712.34	190
3713.09	206
3713.83	198
3714.57	194
3715.31	198
3716.06	198
3716.8	182
3717.54	178
3718.28	202
3719.03	194
3719.77	196
3720.51	198
3721.25	196
3721.99	198
3722.74	202
3723.48	186
3724.22	194
3724.96	184
3725.7	196
3726.44	196
3727.18	200
3727.92	204
3728.67	192
3729.41	192
3730.15	194
3730.89	194
3731.63	182
3732.37	188
3733.11	204
3733.85	190
3734.59	188
3735.33	202
3736.07	196
3736.81	220
3737.55	184
3738.29	194
3739.03	188
3739.77	196
3740.51	190
3741.24	190
3741.98	202
3742.72	202
3743.46	182
3744.2	198
3744.94	200
3745.68	190
3746.42	190
3747.15	174
3747.89	194
3748.63	202
3749.37	180
3750.11	186
3750.84	196
3751.58	180
3752.32	178
3753.06	178
3753.79	210
3754.53	180
3755.27	190
3756.01	184
3756.74	196
3757.48	194
3758.22	190
3758.95	188
3759.69	182
3760.43	186
3761.16	178
3761.9	184
3762.64	174
3763.37	197.913
3764.11	183.987
3764.84	178.22
3765.58	175.732
3766.32	179.877
3767.05	180.026
3767.79	191.904
3768.52	188.112
3769.26	173.442
3769.99	182.063
3770.73	193.628
3771.46	174.358
3772.2	198.094
3772.93	180.415
3773.67	184.447
3774.4	180.705
3775.14	178.467
3775.87	194.921
3776.61	170.703
3777.34	184.971
3778.07	176.004
3778.81	182.387
3779.54	185.058
3780.28	185.525
3781.01	185.092
3781.74	180.335
3782.48	174.641
3783.21	182.405
3783.94	180.754
3784.68	186.636
3785.41	177.228
3786.14	173.149
3786.88	180.441
3787.61	180.272
3788.34	183.161
3789.07	186.285
3789.81	172.267
3790.54	181.975
3791.27	179.837
3792	178.597
3792.74	177.097
3793.47	172.86
3794.2	181.654
3794.93	189.221
3795.66	184.742
3796.4	176.49
3797.13	175.056
3797.86	180.177
3798.59	172.575
3799.32	173.604
3800.05	181.141
3800.78	174.504
3801.52	179.403
3802.25	174.168
3802.98	183.199
3803.71	171.122
3804.44	168.903
3805.17	167.632
3805.9	175.878
3806.63	179.126
3807.36	184.864
3808.09	170.115
3808.82	177.769
3809.55	174.466
3810.28	179.738
3811.01	174.61
3811.74	170.658
3812.47	171.437
3813.2	176.406
3813.93	174.484
3814.66	177.256
3815.38	173.589
3816.11	173.041
3816.84	173.272
3817.57	172.468
3818.3	173.054
3819.03	169.932
3819.76	163.152
3820.49	175.284
3821.21	171.888
3821.94	169.928
3822.67	164.543
3823.4	164.652
3824.13	173.926
3824.85	174.538
3825.58	164.041
3826.31	165.829
3827.04	160.902
3827.77	164.285
3828.49	161.884
3829.22	157.894
3829.95	175.33
3830.67	176.408
3831.4	174.421
3832.13	171.633
3832.85	176.12
3833.58	168.379
3834.31	167.573
3835.03	167.653
3835.76	167.331
3836.49	168.788
3837.21	163.558
3837.94	160.843
3838.52	156
3839.25	164
3839.98	170
3840.71	166
3841.44	168
3842.17	156
3842.9	174
3843.63	174
3844.36	168
3845.09	162
3845.82	170
3846.55	148
3847.28	170
3848	164
3848.73	172
3849.46	162
3850.19	158
3850.92	162
3851.65	170
3852.38	166
3853.1	170
3853.83	170
3854.56	178
3855.29	164
3856.02	174
3856.74	172
3857.47	156
3858.2	166
3858.93	164
3859.65	158
3860.38	182
3861.11	156
3861.84	160
3862.56	164
3863.29	164
3864.02	146
3864.74	160
3865.47	154
3866.2	154
3866.92	156
3867.65	164
3868.38	168
3869.1	154
3869.83	168
3870.55	152
3871.28	154
3872.01	166
3872.73	164
3873.46	158
3874.18	158
3874.91	162
3875.63	164
3876.36	156
3877.08	158
3877.81	158
3878.53	170
3879.26	164
3879.98	158
3880.71	138
3881.43	170
3882.16	156
3882.88	162
3883.6	160
3884.33	168
3885.05	156
3885.78	146
3886.5	158
3887.22	174
3887.95	160
3888.67	160
3889.4	158
3890.12	164
3890.84	156
3891.57	154
3892.29	168
3893.01	158
3893.73	164
3894.46	146
3895.18	152
3895.9	156
3896.63	158
3897.35	154
3898.07	152
3898.79	156
3899.51	142
3900.24	162
3900.96	166
3901.68	162
3902.4	166
3903.12	162
3903.84	170
3904.57	162
3905.29	154
3906.01	156
3906.73	152
3907.45	160
3908.17	154
3908.89	154
3909.61	148
3910.33	152
3911.06	152
3911.78	152
3912.5	160
3913.22	162
3913.94	162
3914.66	154
3915.38	154
3916.1	150
3916.82	152
3917.54	166
3918.26	160
3918.98	164
3919.69	146
3920.41	154
3921.13	152
3921.85	158
3922.57	166
3923.29	156
3924.01	150
3924.73	156
3925.45	156
3926.17	160
3926.88	152
3927.6	160
3928.32	152
3929.04	146
3929.76	156
3930.47	162
3931.19	148
3931.91	146
3932.63	164
3933.35	154
3934.06	152
3934.78	158
3935.5	154
3936.22	142
3936.93	152
3937.65	162
3938.37	164
3939.08	150
3939.8	158
3940.52	154
3941.23	154
3941.95	146
3942.67	158
3943.38	144
3944.1	158
3944.82	156
3945.53	154
3946.25	146
3946.96	150
3947.68	148
3948.4	150
3949.11	146
3949.83	152
3950.54	144
3951.26	150
3951.97	146
3952.69	154
3953.4	144
3954.12	156
3954.83	152
3955.55	152
3956.26	150
3956.98	146
3957.69	146
3958.4	154
3959.12	144
3959.83	154
3960.55	158
3961.26	152
3961.97	160
3962.69	150
3963.4	140
3964.12	146
3964.83	148
3965.54	152
3966.26	156
3966.97	144
3967.68	136
3968.4	148
3969.11	150
3969.82	136
3970.53	148
3971.25	144
3971.96	148
3972.67	146
3973.38	150
3974.1	140
3974.81	152
3975.52	134
3976.23	148
3976.94	154
3977.66	156
3978.37	156
3979.08	138
3979.79	154
3980.5	140
3981.21	144
3981.92	152
3982.64	140
3983.35	144
3984.06	148
3984.77	154
3985.48	154
3986.19	146
3986.9	152
3987.61	148
3988.32	144
3989.03	134
3989.74	152
3990.45	144
3991.16	138
3991.87	148
3992.58	142
3993.29	138
3994	148
3994.71	138
3995.42	142
3996.13	154
3996.84	148
3997.55	146
3998.26	132
3998.97	136
3999.67	148
