#Acq. time (s)=	10
#Accumulations=	1
#Range (cm-¹)=	200...4000
#Windows=	5
#Autofocus=	Off
#AutoExposure=	Off
#Spike filter=	Off
#Delay time (s)=	0
#Binning=	1
#Readout mode=	Signal
#DeNoise=	Off
#ICS correction=	Off
#Dark correction=	Off
#Inst. Process=	Off
#Instrument=	LabRAM HR Evol
#Detector=	Syncerity OE
#Objective=	x100_VIS
#Grating=	600 (500nm)
#ND Filter=	25%
#Laser=	633nm_Edge
#Hole=	100.021
#Range=	Visible
#Project=	Omar
#Sample=	03-07-23
#Site=	1
#Title=	OR
#Remark=	
#Date=	03.07.2023 13:44
#Acquired=	03.07.2023 13:44:31
200.404	680
201.671	714
202.938	684
204.205	678
205.472	640
206.737	702
208.003	692
209.269	660
210.535	662
211.799	700
213.064	672
214.33	672
215.595	674
216.858	680
218.122	672
219.387	694
220.649	686
221.913	660
223.177	688
224.439	720
225.703	720
226.966	694
228.227	700
229.49	684
230.752	692
232.013	672
233.275	688
234.536	702
235.798	678
237.059	686
238.319	718
239.58	718
240.839	746
242.1	722
243.361	714
244.619	708
245.879	710
247.138	740
248.398	692
249.655	726
250.915	682
252.172	684
253.431	724
254.688	706
255.947	722
257.204	656
258.462	700
259.718	716
260.976	724
262.232	694
263.487	680
264.744	694
266	678
267.256	704
268.511	694
269.767	672
271.022	696
272.276	690
273.532	682
274.786	674
276.04	738
277.295	694
278.548	702
279.801	722
281.055	706
282.308	710
283.561	726
284.814	698
286.066	702
287.318	730
288.572	700
289.823	692
291.074	722
292.327	716
293.578	668
294.828	744
296.079	716
297.331	720
298.581	756
299.831	742
301.08	746
302.33	728
303.581	730
304.83	718
306.079	730
307.327	780
308.576	736
309.825	754
311.073	748
312.321	764
313.569	746
314.816	736
316.064	720
317.311	744
318.558	718
319.806	720
321.052	746
322.299	750
323.545	730
324.79	758
326.036	712
327.282	718
328.527	746
329.772	776
331.017	722
332.261	716
333.506	770
334.75	730
335.994	768
337.238	774
338.482	752
339.725	748
340.968	732
342.211	734
343.454	750
344.697	774
345.939	742
347.182	756
348.424	716
349.666	762
350.907	778
352.149	738
353.39	764
354.631	748
355.87	776
357.111	746
358.352	724
359.592	788
360.832	742
362.072	754
363.311	802
364.549	740
365.789	754
367.028	768
368.267	774
369.505	788
370.742	746
371.981	750
373.219	812
374.457	760
375.694	764
376.93	746
378.168	768
379.405	766
380.642	764
381.877	768
383.113	770
384.35	782
385.584	790
386.82	766
388.056	770
389.291	790
390.525	774
391.76	746
392.995	770
394.228	772
395.463	744
396.696	788
397.93	760
399.164	782
400.396	804
401.63	756
402.863	792
404.095	782
405.328	752
406.559	794
407.791	768
409.022	772
410.254	796
411.486	812
412.717	818
413.948	796
415.178	776
416.409	790
417.639	800
418.87	802
420.099	818
421.329	802
422.558	814
423.788	792
425.016	828
426.244	834
427.474	802
428.701	810
429.93	810
431.158	816
432.386	840
433.613	818
434.84	808
436.068	818
437.294	814
438.522	800
439.748	816
440.974	826
442.201	810
443.426	794
444.651	844
445.878	844
447.103	872
448.327	838
449.553	826
450.777	816
452.001	814
453.225	848
454.45	806
455.674	798
456.897	834
458.121	816
459.344	790
460.567	840
461.789	824
463.012	816
464.235	828
465.457	826
466.679	848
467.9	858
469.122	830
470.344	834
471.565	840
472.786	836
474.006	840
475.227	848
476.447	838
477.668	800
478.888	808
480.107	808
481.327	814
482.546	854
483.765	856
484.984	848
486.202	830
487.421	856
488.639	836
489.857	890
491.075	866
492.292	864
493.51	834
494.727	862
495.944	828
497.161	862
498.377	876
499.594	862
500.81	882
502.026	832
503.242	860
504.458	842
505.673	884
506.888	854
508.104	824
509.318	858
510.533	868
511.748	828
512.962	884
514.176	840
515.39	856
516.602	852
517.816	836
519.029	888
520.242	882
521.455	822
522.668	836
523.881	878
525.092	866
526.304	838
527.516	868
528.728	826
529.939	860
531.149	868
532.361	852
533.572	868
534.783	868
535.992	846
537.202	852
538.413	880
539.623	856
540.831	842
542.041	850
543.25	834
544.458	858
545.667	864
546.876	852
548.084	840
549.292	846
550.501	840
551.707	854
552.915	862
554.123	876
555.329	856
556.537	862
557.743	836
558.95	862
560.156	836
561.362	870
562.568	864
563.773	874
564.979	852
566.184	900
567.389	848
568.595	840
569.799	848
571.004	878
572.207	846
573.412	862
574.615	878
575.82	922
577.022	874
578.226	874
579.429	884
580.631	898
581.834	880
583.036	892
584.239	884
585.44	888
586.643	914
587.844	870
589.045	864
590.247	864
591.448	920
592.649	866
593.849	892
595.049	896
596.25	866
597.45	908
598.649	936
599.85	918
601.049	880
602.248	926
603.448	884
604.646	868
605.844	902
607.042	902
608.241	886
609.439	910
610.637	888
611.834	926
613.032	900
614.229	896
615.426	928
616.622	880
617.819	938
619.016	888
620.212	900
621.408	902
622.603	924
623.799	928
624.994	884
626.19	908
627.385	932
628.58	904
629.774	940
630.969	922
632.163	928
633.356	922
634.55	932
635.744	928
636.938	952
638.131	914
639.324	926
640.517	974
641.71	942
642.902	914
644.094	980
645.286	960
646.478	926
647.67	928
648.861	946
650.052	932
651.243	914
652.434	928
653.625	938
654.815	942
656.006	926
657.196	944
658.384	928
659.574	978
660.764	982
661.953	914
663.142	936
664.331	950
665.52	922
666.709	944
667.897	978
669.084	950
670.272	974
671.46	926
672.648	922
673.835	970
675.021	966
676.208	914
677.395	926
678.582	942
679.768	936
680.953	982
682.14	942
683.326	948
684.512	930
685.696	962
686.881	912
688.067	920
689.252	940
690.435	932
691.62	940
692.804	948
693.987	914
695.171	950
696.355	928
697.538	978
698.721	974
699.905	972
701.087	956
702.27	934
703.451	978
704.634	948
705.816	992
706.997	986
708.179	958
709.36	956
710.542	962
711.722	974
712.903	956
714.083	966
715.264	986
716.445	976
717.624	980
718.805	948
719.984	956
721.162	952
722.342	954
723.52	950
724.7	978
725.878	968
727.057	996
728.235	940
729.414	990
730.591	942
731.768	940
732.946	992
734.123	966
735.301	972
736.477	1026
737.653	998
738.83	964
740.006	998
741.182	960
742.358	972
743.534	968
744.709	956
745.885	1008
747.06	948
748.234	982
749.41	1012
750.584	962
751.758	984
752.931	958
754.106	1042
755.28	992
756.453	958
757.626	1010
758.8	974
759.973	968
761.145	972
762.318	962
763.49	998
764.662	962
765.835	988
767.006	982
768.178	988
769.349	944
770.52	1008
771.691	978
772.861	978
774.033	976
775.203	988
776.373	986
777.543	1004
778.713	992
779.883	982
781.052	952
782.221	1004
783.39	982
784.559	1008
785.727	1012
786.896	998
788.064	972
789.232	998
790.4	940
791.568	1020
792.735	970
793.903	976
795.07	1002
796.237	1012
797.404	1054
798.57	964
799.737	998
800.903	1008
802.068	1020
803.234	976
804.399	1024
805.565	988
806.73	1020
807.896	1022
809.061	1000
810.224	1014
811.389	1016
812.553	1026
813.717	996
814.881	1008
816.045	1018
817.208	1032
818.371	990
819.535	1028
820.698	996
821.859	994
823.022	1038
824.185	1048
825.347	1030
826.508	1010
827.67	1048
828.832	1010
829.993	1006
831.154	1002
832.316	1032
833.476	1042
834.637	1056
835.797	1054
836.957	1020
838.117	1038
839.278	1012
840.436	1032
841.596	1002
842.755	1048
843.914	1052
845.074	1064
846.232	1050
847.391	1048
848.548	1040
849.707	1060
850.864	1062
852.022	1040
853.179	1068
854.337	1086
855.493	1090
856.651	1082
857.807	1054
858.964	1048
860.12	1044
861.277	1078
862.432	1012
863.589	1054
864.744	1054
865.9	1016
867.055	1050
868.209	1048
869.365	1050
870.519	1096
871.674	1030
872.828	1074
873.982	1086
875.136	1056
876.29	1050
877.443	1020
878.597	1038
879.75	1078
880.902	1064
882.056	1076
883.208	1046
884.36	1040
885.512	1034
886.665	1068
887.816	1060
888.967	1052
890.118	1058
891.271	1048
892.421	1074
893.572	1058
894.722	1092
895.874	1032
897.024	1042
898.174	1060
899.323	1042
900.473	1036
901.622	1056
902.771	1016
903.922	1038
905.07	1072
906.219	1048
907.367	1062
908.516	1082
909.664	1022
910.811	1062
911.959	1028
913.107	1018
914.254	1036
915.401	1034
916.55	1038
917.696	1068
918.843	1092
919.99	1044
921.136	1034
922.282	1032
923.428	1056
924.574	1076
925.719	1036
926.863	1042
928.009	1012
929.154	1052
930.299	1058
931.443	1054
932.588	1066
933.732	1042
934.876	1072
936.02	1066
937.164	1070
938.308	1030
939.45	1048
940.593	1058
941.736	1082
942.879	1108
944.022	1078
945.165	1060
946.306	1040
947.448	1084
948.59	1090
949.732	1104
950.874	1092
952.014	1068
953.155	1066
954.296	1070
955.437	1098
956.577	1098
957.718	1072
958.858	1116
959.997	1082
961.137	1124
962.277	1108
963.416	1110
964.555	1098
965.695	1112
966.833	1088
967.972	1120
969.111	1112
970.248	1066
971.387	1120
972.524	1084
973.662	1102
974.8	1134
975.936	1068
977.074	1130
978.21	1084
979.348	1112
980.483	1110
981.62	1080
982.757	1106
983.893	1088
985.029	1082
986.164	1126
987.299	1090
988.435	1120
989.569	1116
990.705	1080
991.839	1136
992.974	1096
994.108	1074
995.243	1102
996.376	1090
997.509	1052
998.644	1104
999.777	1090
1000.91	1126
1002.04	1120
1003.18	1112
1004.31	1100
1005.44	1136
1006.57	1100
1007.71	1110
1008.84	1106
1009.97	1086
1011.1	1100
1012.23	1118
1013.36	1116
1014.49	1096
1015.63	1118
1016.76	1106
1017.89	1122
1019.02	1098
1020.15	1130
1021.28	1070
1022.41	1094
1023.54	1102
1024.66	1106
1025.79	1100
1026.92	1182
1028.05	1086
1029.18	1112
1030.31	1156
1031.44	1128
1032.56	1128
1033.69	1118
1034.82	1106
1035.95	1118
1037.08	1106
1038.2	1078
1039.33	1150
1040.46	1134
1041.58	1166
1042.71	1092
1043.83	1122
1044.96	1136
1046.09	1118
1047.21	1166
1048.34	1140
1049.46	1180
1050.59	1144
1051.71	1114
1052.84	1128
1053.96	1162
1055.09	1166
1056.21	1132
1057.33	1144
1058.46	1145
1059.58	1146
1060.71	1124
1061.83	1154
1062.95	1152
1064.07	1144
1065.2	1118
1066.32	1106
1067.44	1176
1068.56	1176
1069.69	1128
1070.81	1148
1071.93	1156
1073.05	1162
1074.17	1134
1075.29	1138
1076.41	1140
1077.54	1166
1078.66	1134
1079.78	1140
1080.9	1130
1082.02	1094
1083.14	1124
1084.25	1142
1085.37	1134
1086.49	1140
1087.61	1134
1088.73	1096
1089.85	1116
1090.97	1118
1092.09	1152
1093.21	1130
1094.32	1126
1095.44	1144
1096.56	1108
1097.68	1154
1098.79	1172
1099.91	1158
1101.03	1112
1102.14	1164
1103.26	1120
1104.38	1132
1105.49	1140
1106.61	1160
1107.72	1114
1108.84	1132
1109.96	1154
1111.07	1152
1112.19	1164
1113.3	1140
1114.42	1148
1115.53	1134
1116.64	1138
1117.76	1150
1118.87	1122
1119.99	1128
1121.1	1148
1122.21	1116
1123.33	1130
1124.44	1138
1125.55	1106
1126.66	1160
1127.78	1118
1128.89	1124
1130	1130
1131.11	1148
1132.23	1118
1133.34	1136
1134.45	1154
1135.56	1138
1136.67	1164
1137.78	1132
1138.89	1146
1140	1132
1141.11	1172
1142.22	1208
1143.33	1174
1144.44	1166
1145.55	1170
1146.66	1142
1147.77	1150
1148.88	1136
1149.99	1156
1151.1	1122
1152.21	1136
1153.32	1118
1154.42	1150
1155.53	1164
1156.64	1124
1157.75	1170
1158.85	1196
1159.96	1184
1161.07	1182
1162.17	1130
1163.28	1130
1164.39	1196
1165.49	1108
1166.6	1152
1167.71	1142
1168.81	1154
1169.92	1166
1171.02	1198
1172.13	1182
1173.23	1154
1174.34	1190
1175.44	1182
1176.55	1210
1177.65	1136
1178.76	1148
1179.86	1150
1180.97	1206
1182.07	1152
1183.17	1180
1184.28	1144
1185.38	1160
1186.48	1164
1187.58	1122
1188.69	1128
1189.79	1178
1190.89	1182
1191.99	1156
1193.1	1146
1194.2	1164
1195.3	1172
1196.4	1188
1197.5	1154
1198.6	1172
1199.7	1190
1200.8	1138
1201.9	1150
1203	1164
1204.1	1170
1205.2	1162
1206.3	1196
1207.4	1184
1208.5	1132
1209.6	1166
1210.7	1156
1211.8	1148
1212.9	1162
1214	1136
1215.1	1128
1216.19	1176
1217.29	1134
1218.39	1144
1219.49	1174
1220.58	1142
1221.68	1122
1222.78	1146
1223.88	1112
1224.97	1122
1226.07	1156
1227.17	1172
1228.26	1130
1229.36	1130
1230.45	1138
1231.55	1120
1232.65	1128
1233.74	1142
1234.84	1148
1235.93	1148
1237.02	1138
1238.12	1118
1239.21	1144
1240.31	1120
1241.4	1174
1242.5	1132
1243.59	1148
1244.68	1132
1245.78	1164
1246.87	1138
1247.96	1128
1249.06	1160
1250.15	1140
1251.24	1190
1252.33	1222
1253.43	1160
1254.52	1184
1255.61	1168
1256.7	1138
1257.79	1154
1258.88	1112
1259.98	1146
1261.07	1154
1262.16	1178
1263.25	1160
1264.34	1146
1265.43	1190
1266.52	1186
1267.61	1116
1268.7	1122
1269.79	1186
1270.88	1196
1271.96	1200
1273.05	1158
1274.14	1146
1275.23	1182
1276.32	1138
1277.41	1158
1278.5	1156
1279.58	1150
1280.67	1146.17
1281.76	1170.31
1282.85	1179.83
1283.93	1178.79
1285.02	1169.83
1286.11	1151.44
1287.19	1164.2
1288.28	1130.63
1289.37	1161
1290.45	1183.1
1291.54	1185.95
1292.63	1175.98
1293.71	1169.29
1294.8	1156.72
1295.88	1164.53
1296.97	1182.15
1298.05	1182.42
1299.14	1219.21
1300.22	1156.37
1301.31	1192.95
1302.39	1180.88
1303.47	1132.56
1304.56	1150.38
1305.64	1166.35
1306.72	1191.02
1307.81	1190.54
1308.89	1128.81
1309.97	1160.15
1311.06	1166.54
1312.14	1166.8
1313.22	1137.29
1314.3	1174.14
1315.39	1166.2
1316.47	1157.37
1317.55	1153.18
1318.63	1204.5
1319.71	1176.92
1320.79	1160.4
1321.88	1181.46
1322.96	1157.99
1324.04	1204.5
1325.12	1158.56
1326.2	1175.05
1327.28	1155.56
1328.36	1142.19
1329.44	1162.32
1330.52	1170.81
1331.6	1157.68
1332.68	1182.54
1333.76	1161.7
1334.84	1186.23
1335.91	1195.65
1336.99	1161.21
1338.07	1168.33
1339.15	1181.82
1340.23	1188.63
1341.31	1171.47
1342.38	1192.12
1343.46	1189.23
1344.54	1208.57
1345.62	1189.39
1346.69	1179.67
1347.77	1171.47
1348.85	1156.99
1349.92	1197.42
1351	1190.83
1352.08	1164.72
1353.15	1170.45
1354.23	1172.78
1355.3	1157.99
1356.38	1146.44
1357.46	1177.13
1358.53	1156.11
1359.6	1186.51
1360.68	1161.73
1361.75	1159.05
1362.83	1192.56
1363.9	1191.07
1364.98	1163.31
1366.05	1161.8
1367.13	1177.62
1368.2	1163.39
1369.27	1156.19
1370.35	1154.98
1371.42	1168.86
1372.49	1162.84
1373.56	1141.95
1374.64	1181.66
1375.71	1170.85
1376.78	1149.14
1377.85	1180.46
1378.93	1174.45
1380	1154.38
1381.07	1158.04
1382.14	1180.03
1383.21	1175.77
1384.28	1187.89
1385.35	1199.53
1386.43	1190.42
1387.5	1163.55
1388.57	1154.63
1389.64	1185.63
1390.13	1204
1391.2	1216
1392.28	1174
1393.35	1188
1394.43	1202
1395.5	1142
1396.57	1178
1397.65	1164
1398.72	1166
1399.8	1150
1400.87	1154
1401.94	1204
1403.02	1150
1404.09	1196
1405.17	1162
1406.24	1204
1407.31	1182
1408.38	1168
1409.46	1202
1410.53	1168
1411.6	1170
1412.67	1194
1413.74	1160
1414.82	1172
1415.89	1186
1416.96	1180
1418.03	1154
1419.1	1152
1420.17	1152
1421.24	1186
1422.31	1158
1423.38	1154
1424.45	1164
1425.52	1188
1426.59	1154
1427.66	1152
1428.73	1170
1429.8	1108
1430.87	1148
1431.94	1160
1433.01	1166
1434.08	1184
1435.14	1166
1436.21	1140
1437.28	1180
1438.35	1142
1439.42	1138
1440.48	1118
1441.55	1158
1442.62	1154
1443.68	1148
1444.75	1146
1445.82	1102
1446.89	1158
1447.95	1152
1449.02	1106
1450.08	1158
1451.15	1120
1452.22	1152
1453.28	1116
1454.35	1190
1455.41	1112
1456.48	1148
1457.54	1182
1458.61	1150
1459.67	1164
1460.73	1152
1461.8	1116
1462.86	1128
1463.93	1122
1464.99	1150
1466.05	1150
1467.12	1128
1468.18	1162
1469.24	1102
1470.31	1138
1471.37	1140
1472.43	1132
1473.49	1144
1474.56	1150
1475.62	1142
1476.68	1120
1477.74	1144
1478.8	1154
1479.86	1140
1480.93	1160
1481.99	1118
1483.05	1138
1484.11	1178
1485.17	1128
1486.23	1118
1487.29	1144
1488.35	1146
1489.41	1144
1490.47	1152
1491.53	1172
1492.59	1178
1493.65	1208
1494.71	1172
1495.76	1152
1496.82	1114
1497.88	1138
1498.94	1140
1500	1160
1501.06	1106
1502.11	1120
1503.17	1158
1504.23	1130
1505.29	1166
1506.34	1128
1507.4	1156
1508.46	1156
1509.51	1160
1510.57	1136
1511.63	1154
1512.68	1146
1513.74	1156
1514.8	1142
1515.85	1146
1516.91	1198
1517.96	1098
1519.02	1118
1520.07	1120
1521.13	1096
1522.18	1150
1523.24	1124
1524.29	1114
1525.34	1146
1526.4	1154
1527.45	1102
1528.51	1148
1529.56	1124
1530.61	1122
1531.67	1100
1532.72	1114
1533.77	1102
1534.82	1104
1535.88	1100
1536.93	1138
1537.98	1110
1539.03	1132
1540.08	1134
1541.14	1152
1542.19	1122
1543.24	1130
1544.29	1114
1545.34	1156
1546.39	1130
1547.44	1132
1548.49	1146
1549.54	1132
1550.59	1084
1551.64	1134
1552.69	1110
1553.74	1126
1554.79	1118
1555.84	1156
1556.89	1104
1557.94	1114
1558.99	1120
1560.04	1080
1561.09	1136
1562.14	1104
1563.18	1082
1564.23	1126
1565.28	1124
1566.33	1104
1567.37	1096
1568.42	1116
1569.47	1136
1570.52	1114
1571.56	1130
1572.61	1136
1573.66	1092
1574.7	1124
1575.75	1136
1576.79	1120
1577.84	1136
1578.89	1136
1579.93	1122
1580.98	1102
1582.02	1066
1583.07	1106
1584.11	1108
1585.16	1094
1586.2	1084
1587.25	1136
1588.29	1142
1589.34	1134
1590.38	1112
1591.42	1114
1592.47	1114
1593.51	1102
1594.55	1104
1595.6	1116
1596.64	1086
1597.68	1074
1598.72	1136
1599.77	1082
1600.81	1090
1601.85	1098
1602.89	1082
1603.94	1094
1604.98	1086
1606.02	1126
1607.06	1094
1608.1	1088
1609.14	1090
1610.18	1072
1611.22	1094
1612.26	1114
1613.3	1094
1614.34	1116
1615.38	1100
1616.42	1096
1617.46	1056
1618.5	1124
1619.54	1130
1620.58	1038
1621.62	1118
1622.66	1136
1623.7	1084
1624.74	1072
1625.78	1084
1626.81	1128
1627.85	1050
1628.89	1028
1629.93	1090
1630.97	1114
1632	1082
1633.04	1078
1634.08	1070
1635.11	1084
1636.15	1070
1637.19	1070
1638.22	1050
1639.26	1090
1640.3	1038
1641.33	1074
1642.37	1104
1643.4	1056
1644.44	1080
1645.47	1084
1646.51	1056
1647.55	1038
1648.58	1044
1649.61	1058
1650.65	1010
1651.68	1072
1652.72	1046
1653.75	1066
1654.79	1050
1655.82	1090
1656.85	1024
1657.89	1040
1658.92	1084
1659.95	1022
1660.98	1020
1662.02	1036
1663.05	1014
1664.08	1018
1665.12	1048
1666.15	1042
1667.18	1036
1668.21	1042
1669.24	1012
1670.27	1058
1671.3	1018
1672.34	1060
1673.37	952
1674.4	1002
1675.43	1032
1676.46	956
1677.49	994
1678.52	1042
1679.55	1044
1680.58	1036
1681.61	1030
1682.64	1036
1683.67	1006
1684.7	1026
1685.73	1016
1686.75	974
1687.78	1044
1688.81	1006
1689.84	984
1690.87	1026
1691.9	996
1692.93	1024
1693.95	986
1694.98	1018
1696.01	1002
1697.03	972
1698.06	978
1699.09	998
1700.12	992
1701.14	984
1702.17	1014
1703.2	1004
1704.22	1008
1705.25	984
1706.27	1000
1707.3	994
1708.32	990
1709.35	980
1710.37	974
1711.4	988
1712.42	998
1713.45	1020
1714.47	976
1715.5	966
1716.52	996
1717.55	1000
1718.57	972
1719.59	984
1720.62	986
1721.64	996
1722.67	960
1723.69	986
1724.71	986
1725.73	960
1726.76	974
1727.78	1000
1728.8	962
1729.82	1030
1730.84	984
1731.87	958
1732.89	984
1733.91	956
1734.93	952
1735.95	930
1736.97	990
1737.99	934
1739.01	934
1740.04	968
1741.06	964
1742.08	924
1743.1	942
1744.12	946
1745.14	954
1746.16	978
1747.18	954
1748.19	962
1749.21	990
1750.23	1000
1751.25	964
1752.27	956
1753.29	952
1754.31	958
1755.33	984
1756.34	942
1757.36	942
1758.38	1008
1759.4	966
1760.41	940
1761.43	946
1762.45	962
1763.47	954
1764.48	932
1765.5	934
1766.51	958
1767.53	972
1768.55	980
1769.56	932
1770.58	976
1771.6	984
1772.61	966
1773.63	938
1774.64	940
1775.66	910
1776.67	946
1777.69	964
1778.7	934
1779.71	952
1780.73	936
1781.74	976
1782.76	942
1783.77	942
1784.78	968
1785.8	950
1786.81	974
1787.82	978
1788.84	938
1789.85	964
1790.86	938
1791.88	936
1792.89	946
1793.9	948
1794.91	954
1795.92	944
1796.94	908
1797.95	936
1798.96	902
1799.97	942
1800.98	946
1801.99	922
1803	894
1804.01	940
1805.02	958
1806.03	896
1807.04	904
1808.05	966
1809.06	938
1810.07	940
1811.08	918
1812.09	924
1813.1	922
1814.11	938
1815.12	960
1816.13	974
1817.14	944
1818.14	916
1819.15	974
1820.16	958
1821.17	952
1822.18	892
1823.18	954
1824.19	936
1825.2	930
1826.21	942
1827.21	942
1828.22	912
1829.23	950
1830.23	904
1831.24	954
1832.25	912
1833.25	904
1834.26	886
1835.27	882
1836.27	910
1837.28	902
1838.28	876
1839.29	896
1840.29	898
1841.3	878
1842.3	918
1843.31	918
1844.31	840
1845.31	912
1846.32	884
1847.32	930
1848.33	926
1849.33	896
1850.33	902
1851.34	874
1852.34	926
1853.34	912
1854.35	894
1855.35	904
1856.35	898
1857.35	890
1858.36	926
1859.36	878
1860.36	918
1861.36	924
1862.36	858
1863.36	884
1864.36	900
1865.37	858
1866.37	872
1867.37	872
1868.37	862
1869.37	868
1870.37	892
1871.37	882
1872.37	888
1873.37	888
1874.37	896
1875.37	884
1876.37	916
1877.37	900
1878.37	874
1879.37	902
1880.36	898
1881.36	872
1882.36	848
1883.36	866
1884.36	884
1885.36	914
1886.35	894
1887.35	844
1888.35	912
1889.35	902
1890.34	918
1891.34	848
1892.34	898
1893.34	882
1894.33	866
1895.33	890
1896.33	862
1897.32	870
1898.32	886
1899.31	916
1900.31	906
1901.3	884
1902.3	888
1903.3	860
1904.29	872
1905.29	874
1906.28	888
1907.27	872
1908.27	890
1909.26	868
1910.26	882
1911.25	878
1912.25	866
1913.24	886
1914.23	870
1915.23	876
1916.22	844
1917.21	886
1918.21	910
1919.2	854
1920.19	842
1921.18	878
1922.18	892
1923.17	846
1924.16	876
1925.15	858
1926.14	824
1927.14	870
1928.13	846
1929.12	876
1930.11	884
1931.1	840
1932.09	858
1933.08	848
1934.07	892
1935.06	856
1936.05	870
1937.04	858
1938.03	854
1939.02	856
1940.01	874
1941	864
1941.99	840
1942.98	856
1943.97	844
1944.96	824
1945.95	840
1946.94	854
1947.92	858
1948.91	874
1949.9	862
1950.89	864
1951.88	868
1952.86	868
1953.85	878
1954.84	862
1955.83	852
1956.81	888
1957.8	842
1958.79	856
1959.77	858
1960.76	884
1961.75	810
1962.73	852
1963.72	828
1964.7	806
1965.69	812
1966.68	848
1967.66	850
1968.65	838
1969.63	826
1970.62	846
1971.6	838
1972.59	824
1973.57	804
1974.55	832
1975.54	838
1976.52	850
1977.51	812
1978.49	898
1979.47	822
1980.46	826
1981.44	858
1982.42	846
1983.41	850
1984.39	816
1985.37	854
1986.35	814
1987.34	820
1988.32	844
1989.3	848
1990.28	824
1991.27	816
1992.25	806
1993.23	830
1994.21	862
1995.19	812
1996.17	852
1997.15	840
1998.13	856
1999.11	834
2000.09	838
2001.07	806
2002.05	858
2003.03	840
2004.01	798
2004.99	856
2005.97	814
2006.95	858
2007.93	810
2008.91	830
2009.89	800
2010.87	800
2011.85	860
2012.82	832
2013.8	822
2014.78	824
2015.76	826
2016.74	810
2017.72	852
2018.69	818
2019.67	850
2020.65	828
2021.62	798
2022.6	828
2023.58	788
2024.55	768
2025.53	798
2026.51	828
2027.48	826
2028.46	814
2029.44	800
2030.41	850
2031.39	832
2032.36	820
2033.34	838
2034.31	816
2035.29	816
2036.26	832
2037.24	794
2038.21	804
2039.19	802
2040.16	836
2041.14	798
2042.11	820
2043.08	800
2044.06	798
2045.03	822
2046	812
2046.98	792
2047.95	776
2048.92	832
2049.9	798
2050.87	794
2051.84	788
2052.81	808
2053.79	802
2054.76	818
2055.73	810
2056.7	798
2057.67	816
2058.64	810
2059.61	800
2060.59	796
2061.56	788
2062.53	806
2063.5	812
2064.47	802
2065.44	768
2066.41	820
2067.38	786
2068.35	766
2069.32	782
2070.29	810
2071.26	834
2072.23	808
2073.2	770
2074.17	776
2075.14	818
2076.1	762
2077.07	774
2078.04	790
2079.01	776
2079.98	792
2080.95	782
2081.91	768
2082.88	766
2083.85	806
2084.82	768
2085.78	778
2086.75	818
2087.72	796
2088.68	766
2089.65	804
2090.62	800
2091.58	806
2092.55	736
2093.52	768
2094.48	804
2095.45	780
2096.41	746
2097.38	760
2098.35	764
2099.31	782
2100.28	742
2101.24	756
2102.21	798
2103.17	782
2104.14	790
2105.1	750
2106.06	776
2107.03	770
2107.99	768
2108.96	778
2109.92	786
2110.88	764
2111.85	782
2112.81	760
2113.77	750
2114.73	768
2115.7	780
2116.66	766
2117.62	782
2118.58	774
2119.55	778
2120.51	764
2121.47	776
2122.43	716
2123.39	778
2124.36	744
2125.32	754
2126.28	718
2127.24	774
2128.2	748
2129.16	782
2130.12	734
2131.08	740
2132.04	744
2133	746
2133.96	750
2134.92	734
2135.88	754
2136.84	736
2137.8	750
2138.76	732
2139.72	758
2140.68	732
2141.64	726
2142.59	736
2143.55	760
2144.51	762
2145.47	764
2146.43	718
2147.39	740
2148.34	766
2149.3	736
2150.26	760
2151.22	768
2152.17	738
2153.13	768
2154.09	752
2155.04	718
2156	720
2156.96	752
2157.91	726
2158.87	704
2159.82	742
2160.78	746
2161.74	754
2162.69	756
2163.65	724
2164.6	758
2165.56	782
2166.51	730
2167.47	738
2168.42	764
2169.38	728
2170.33	726
2171.29	716
2172.24	744
2173.19	754
2174.15	756
2175.1	710
2176.05	724
2177.01	776
2177.96	712
2178.91	728
2179.87	730
2180.82	726
2181.77	732
2182.73	686
2183.68	686
2184.63	700
2185.58	708
2186.53	716
2187.49	706
2188.44	694
2189.39	740
2190.34	722
2191.29	694
2192.24	732
2193.19	724
2194.14	734
2195.09	716
2196.05	734
2197	746
2197.95	708
2198.9	674
2199.85	710
2200.8	702
2201.75	694
2202.7	710
2203.64	700
2204.59	682
2205.54	718
2206.49	716
2207.44	698
2208.39	736
2209.34	712
2210.29	726
2211.23	704
2212.18	698
2213.13	690
2214.08	712
2215.03	696
2215.97	682
2216.92	686
2217.87	688
2218.81	712
2219.76	717.99
2220.71	715.814
2221.66	696.281
2222.6	689.198
2223.55	677.788
2224.49	694.772
2225.44	701.685
2226.39	689.581
2227.33	713.109
2228.28	692.406
2229.22	711.955
2230.17	703.26
2231.11	712.756
2232.06	706.11
2233	706.479
2233.95	691.955
2234.89	710.734
2235.84	703.081
2236.78	709.218
2237.73	690.551
2238.67	702.121
2239.61	701.745
2240.56	696.514
2241.5	699.148
2242.45	714.638
2243.39	700.788
2244.33	687.987
2245.28	702.881
2246.22	695.368
2247.16	698.726
2248.1	676.676
2249.05	704.993
2249.99	708.871
2250.93	716.4
2251.87	674.736
2252.81	707.74
2253.76	690.884
2254.7	702.546
2255.64	669.241
2256.58	705.431
2257.52	689.68
2258.46	707.491
2259.4	714.743
2260.34	700.494
2261.28	673.89
2262.23	692.588
2263.17	680.734
2264.11	705.123
2265.05	666.725
2265.99	696.036
2266.93	693
2267.87	712.309
2268.8	704.787
2269.74	701.307
2270.68	694.891
2271.62	686.16
2272.56	694.035
2273.5	696.051
2274.44	679.15
2275.38	688.817
2276.32	687.696
2277.25	679.319
2278.19	699.854
2279.13	695.004
2280.07	668.939
2281.01	692.762
2281.94	686.856
2282.88	691.664
2283.82	700.15
2284.76	660.109
2285.69	697.742
2286.63	698.808
2287.57	703.765
2288.5	693.461
2289.44	692.598
2290.37	696.561
2291.31	677.101
2292.25	663.611
2293.18	680.637
2294.12	662.369
2295.05	680.582
2295.99	674.731
2296.92	686.731
2297.86	678.364
2298.79	681.917
2299.73	675.396
2300.66	668.177
2301.6	675.727
2302.53	690.988
2303.47	676.344
2304.4	671.132
2305.34	688.66
2306.27	695.223
2307.2	688.432
2308.14	695.753
2309.07	684.691
2310	668.772
2310.94	684.666
2311.87	677.488
2312.8	679.241
2313.74	671.592
2313.98	668
2314.92	706
2315.86	656
2316.79	692
2317.73	664
2318.67	676
2319.6	660
2320.54	666
2321.48	668
2322.41	648
2323.35	692
2324.29	672
2325.22	678
2326.16	698
2327.09	664
2328.03	686
2328.96	712
2329.9	650
2330.83	686
2331.77	714
2332.7	676
2333.64	672
2334.57	682
2335.51	652
2336.44	664
2337.38	686
2338.31	652
2339.24	656
2340.18	672
2341.11	686
2342.04	680
2342.98	644
2343.91	680
2344.84	670
2345.78	668
2346.71	668
2347.64	666
2348.57	696
2349.51	650
2350.44	688
2351.37	650
2352.3	660
2353.24	696
2354.17	654
2355.1	636
2356.03	652
2356.96	644
2357.89	672
2358.82	676
2359.75	672
2360.68	634
2361.62	696
2362.55	642
2363.48	698
2364.41	664
2365.34	680
2366.27	670
2367.2	644
2368.13	674
2369.05	696
2369.98	674
2370.91	650
2371.84	664
2372.77	680
2373.7	656
2374.63	654
2375.56	654
2376.49	630
2377.41	640
2378.34	684
2379.27	636
2380.2	654
2381.12	638
2382.05	672
2382.98	652
2383.91	658
2384.83	688
2385.76	662
2386.69	648
2387.61	652
2388.54	672
2389.47	664
2390.39	668
2391.32	706
2392.25	634
2393.17	690
2394.1	652
2395.02	618
2395.95	666
2396.87	654
2397.8	652
2398.72	644
2399.65	668
2400.57	666
2401.5	668
2402.42	660
2403.35	636
2404.27	666
2405.2	660
2406.12	670
2407.04	686
2407.97	644
2408.89	656
2409.81	622
2410.74	674
2411.66	644
2412.58	642
2413.51	644
2414.43	620
2415.35	650
2416.27	652
2417.2	622
2418.12	644
2419.04	640
2419.96	644
2420.88	608
2421.81	632
2422.73	614
2423.65	638
2424.57	626
2425.49	644
2426.41	632
2427.33	644
2428.25	660
2429.17	632
2430.1	642
2431.02	636
2431.94	668
2432.85	646
2433.77	622
2434.7	628
2435.61	638
2436.53	628
2437.45	640
2438.37	626
2439.29	642
2440.21	672
2441.13	652
2442.05	642
2442.97	642
2443.88	642
2444.8	650
2445.72	640
2446.64	648
2447.56	622
2448.47	646
2449.39	642
2450.31	630
2451.23	642
2452.14	636
2453.06	638
2453.98	624
2454.89	642
2455.81	628
2456.73	624
2457.64	638
2458.56	644
2459.48	658
2460.39	606
2461.31	612
2462.22	634
2463.14	628
2464.05	626
2464.97	612
2465.88	620
2466.8	624
2467.71	650
2468.63	604
2469.54	626
2470.46	628
2471.37	630
2472.29	630
2473.2	614
2474.11	602
2475.03	622
2475.94	616
2476.86	612
2477.77	628
2478.68	650
2479.59	614
2480.51	620
2481.42	638
2482.33	626
2483.25	630
2484.16	586
2485.07	594
2485.98	624
2486.9	596
2487.81	626
2488.72	608
2489.63	630
2490.54	624
2491.45	602
2492.36	618
2493.28	636
2494.19	602
2495.1	640
2496.01	634
2496.92	664
2497.83	618
2498.74	630
2499.65	596
2500.56	616
2501.47	614
2502.38	604
2503.29	622
2504.2	588
2505.11	586
2506.02	610
2506.93	598
2507.83	624
2508.74	592
2509.65	614
2510.56	632
2511.47	614
2512.38	612
2513.29	626
2514.19	606
2515.1	596
2516.01	608
2516.92	612
2517.82	590
2518.73	584
2519.64	646
2520.55	626
2521.45	610
2522.36	608
2523.27	600
2524.17	610
2525.08	596
2525.99	568
2526.89	594
2527.8	614
2528.7	620
2529.61	590
2530.51	624
2531.42	576
2532.33	608
2533.23	596
2534.14	602
2535.04	586
2535.95	614
2536.85	592
2537.75	626
2538.66	580
2539.56	594
2540.47	610
2541.37	604
2542.28	584
2543.18	600
2544.08	582
2544.99	610
2545.89	596
2546.79	576
2547.7	584
2548.6	602
2549.5	572
2550.4	578
2551.31	580
2552.21	600
2553.11	560
2554.01	604
2554.92	596
2555.82	614
2556.72	592
2557.62	616
2558.52	598
2559.42	576
2560.32	580
2561.23	582
2562.13	586
2563.03	586
2563.93	586
2564.83	584
2565.73	576
2566.63	616
2567.53	570
2568.43	594
2569.33	568
2570.23	580
2571.13	598
2572.03	588
2572.93	570
2573.83	586
2574.73	598
2575.63	592
2576.52	574
2577.42	566
2578.32	554
2579.22	558
2580.12	598
2581.02	586
2581.91	566
2582.81	584
2583.71	572
2584.61	596
2585.51	560
2586.4	596
2587.3	576
2588.2	610
2589.09	586
2589.99	560
2590.89	568
2591.78	548
2592.68	566
2593.58	556
2594.47	560
2595.37	566
2596.26	580
2597.16	566
2598.06	560
2598.95	572
2599.85	552
2600.74	574
2601.64	582
2602.53	580
2603.43	584
2604.32	576
2605.22	580
2606.11	542
2607.01	578
2607.9	566
2608.79	554
2609.69	554
2610.58	580
2611.48	558
2612.37	566
2613.26	578
2614.16	550
2615.05	580
2615.94	550
2616.84	538
2617.73	588
2618.62	558
2619.51	576
2620.41	572
2621.3	560
2622.19	538
2623.08	548
2623.97	580
2624.87	556
2625.76	558
2626.65	538
2627.54	558
2628.43	552
2629.32	552
2630.21	568
2631.1	568
2631.99	584
2632.89	560
2633.78	532
2634.67	550
2635.56	584
2636.45	546
2637.34	538
2638.23	578
2639.12	532
2640.01	586
2640.9	552
2641.78	540
2642.67	538
2643.56	540
2644.45	534
2645.34	514
2646.23	528
2647.12	538
2648.01	566
2648.89	546
2649.78	540
2650.67	542
2651.56	536
2652.45	530
2653.33	562
2654.22	542
2655.11	540
2656	554
2656.88	530
2657.77	536
2658.66	522
2659.54	554
2660.43	534
2661.32	532
2662.2	572
2663.09	546
2663.97	546
2664.86	524
2665.75	542
2666.63	552
2667.52	542
2668.4	532
2669.29	556
2670.17	524
2671.06	548
2671.94	558
2672.83	546
2673.71	534
2674.6	566
2675.48	554
2676.37	522
2677.25	536
2678.13	526
2679.02	538
2679.9	518
2680.78	534
2681.67	530
2682.55	534
2683.43	540
2684.32	548
2685.2	546
2686.08	536
2686.97	512
2687.85	532
2688.73	532
2689.61	520
2690.5	524
2691.38	506
2692.26	530
2693.14	526
2694.02	514
2694.9	528
2695.79	548
2696.67	510
2697.55	522
2698.43	550
2699.31	514
2700.19	520
2701.07	542
2701.95	510
2702.83	528
2703.71	496
2704.59	544
2705.47	538
2706.35	540
2707.23	508
2708.11	530
2708.99	512
2709.87	522
2710.75	512
2711.63	514
2712.51	516
2713.39	524
2714.27	538
2715.14	526
2716.02	514
2716.9	512
2717.78	516
2718.66	510
2719.54	522
2720.41	536
2721.29	516
2722.17	502
2723.05	508
2723.92	488
2724.8	510
2725.68	500
2726.55	514
2727.43	512
2728.31	540
2729.18	524
2730.06	510
2730.94	498
2731.81	540
2732.69	494
2733.57	516
2734.44	490
2735.32	536
2736.19	502
2737.07	500
2737.94	504
2738.82	506
2739.69	522
2740.57	492
2741.44	498
2742.32	502
2743.19	530
2744.07	466
2744.94	474
2745.81	520
2746.69	512
2747.56	506
2748.44	504
2749.31	496
2750.18	494
2751.06	504
2751.93	512
2752.8	484
2753.68	502
2754.55	510
2755.42	494
2756.29	510
2757.17	516
2758.04	494
2758.91	498
2759.78	500
2760.65	528
2761.53	492
2762.4	478
2763.27	464
2764.14	496
2765.01	504
2765.88	486
2766.76	506
2767.63	492
2768.5	496
2769.37	500
2770.24	504
2771.11	482
2771.98	476
2772.85	470
2773.72	500
2774.59	508
2775.46	512
2776.33	494
2777.2	466
2778.07	478
2778.94	476
2779.81	480
2780.67	476
2781.54	478
2782.41	494
2783.28	486
2784.15	506
2785.02	498
2785.89	482
2786.75	492
2787.62	516
2788.49	498
2789.36	488
2790.23	482
2791.09	490
2791.96	482
2792.83	478
2793.7	492
2794.56	488
2795.43	496
2796.3	494
2797.16	484
2798.03	480
2798.9	480
2799.76	486
2800.63	494
2801.49	478
2802.36	486
2803.23	482
2804.09	490
2804.96	454
2805.82	476
2806.69	504
2807.55	488
2808.42	460
2809.28	480
2810.15	470
2811.01	496
2811.88	468
2812.74	492
2813.61	472
2814.47	492
2815.33	484
2816.2	450
2817.06	450
2817.93	484
2818.79	474
2819.65	488
2820.52	478
2821.38	468
2822.24	472
2823.11	480
2823.97	486
2824.83	460
2825.69	484
2826.55	466
2827.42	458
2828.28	454
2829.14	454
2830	454
2830.87	456
2831.73	462
2832.59	460
2833.45	484
2834.31	456
2835.17	492
2836.03	458
2836.89	452
2837.76	490
2838.62	458
2839.48	472
2840.34	442
2841.2	462
2842.06	462
2842.92	462
2843.78	448
2844.64	464
2845.5	486
2846.36	462
2847.22	456
2848.07	456
2848.93	450
2849.79	436
2850.65	458
2851.51	456
2852.37	460
2853.23	444
2854.09	464
2854.95	454
2855.8	458
2856.66	482
2857.52	446
2858.38	452
2859.24	438
2860.09	456
2860.95	438
2861.81	440
2862.66	434
2863.52	464
2864.38	452
2865.24	452
2866.09	434
2866.95	460
2867.81	450
2868.66	480
2869.52	444
2870.37	450
2871.23	456
2872.09	448
2872.94	444
2873.8	464
2874.65	444
2875.51	444
2876.36	456
2877.22	438
2878.07	468
2878.93	402
2879.78	432
2880.64	452
2881.49	430
2882.35	416
2883.2	428
2884.05	438
2884.91	428
2885.76	416
2886.62	440
2887.47	450
2888.32	424
2889.18	430
2890.03	432
2890.88	422
2891.74	442
2892.59	468
2893.44	414
2894.29	422
2895.15	430
2896	436
2896.85	398
2897.7	424
2898.55	470
2899.41	432
2900.26	444
2901.11	424
2901.96	436
2902.81	420
2903.66	460
2904.52	428
2905.37	424
2906.22	442
2907.07	432
2907.92	456
2908.77	440
2909.62	424
2910.47	414
2911.32	432
2912.17	406
2913.02	452
2913.87	420
2914.72	450
2915.57	438
2916.42	432
2917.27	436
2918.12	422
2918.97	454
2919.82	432
2920.66	424
2921.51	438
2922.36	438
2923.21	416
2924.06	436
2924.91	440
2925.75	408
2926.6	436
2927.45	426
2928.3	418
2929.15	420
2929.99	430
2930.84	424
2931.69	424
2932.54	400
2933.38	458
2934.23	426
2935.08	402
2935.92	424
2936.77	424
2937.62	432
2938.46	406
2939.31	416
2940.15	432
2941	422
2941.85	428
2942.69	438
2943.54	414
2944.38	420
2945.23	418
2946.07	408
2946.92	414
2947.76	418
2948.61	408
2949.45	434
2950.3	396
2951.14	390
2951.99	422
2952.83	388
2953.67	422
2954.52	412
2955.36	412
2956.21	400
2957.05	412
2957.89	412
2958.74	398
2959.58	400
2960.42	412
2961.27	406
2962.11	424
2962.95	398
2963.79	410
2964.64	402
2965.48	406
2966.32	386
2967.16	398
2968.01	404
2968.85	414
2969.69	388
2970.53	398
2971.37	410
2972.21	392
2973.05	412
2973.9	404
2974.74	414
2975.58	414
2976.42	420
2977.26	402
2978.1	400
2978.94	374
2979.78	406
2980.62	392
2981.46	386
2982.3	408
2983.14	404
2983.98	394
2984.82	400
2985.66	402
2986.5	412
2987.34	420
2988.18	374
2989.02	424
2989.86	396
2990.69	400
2991.53	392
2992.37	382
2993.21	386
2994.05	396
2994.89	384
2995.72	406
2996.56	394
2997.4	388
2998.24	374
2999.08	394
2999.91	390
3000.75	400
3001.59	412
3002.43	384
3003.26	406
3004.1	396
3004.94	380
3005.77	398
3006.61	384
3007.45	388
3008.28	402
3009.12	388
3009.95	392
3010.79	372
3011.63	382
3012.46	396
3013.3	368
3014.13	410
3014.97	380
3015.8	394
3016.64	394
3017.47	392
3018.31	400
3019.14	386
3019.98	392
3020.81	364
3021.65	384
3022.48	368
3023.31	396
3024.15	360
3024.98	374
3025.82	384
3026.65	370
3027.48	370
3028.32	378
3029.15	372
3029.98	378
3030.82	378
3031.65	354
3032.48	376
3033.31	372
3034.15	384
3034.98	372
3035.81	378
3036.64	374
3037.48	382
3038.31	370
3039.14	376
3039.97	384
3040.8	379.855
3041.63	385.86
3042.47	366.353
3043.3	377.485
3044.13	379.712
3044.96	357.339
3045.79	371.768
3046.62	371.993
3047.45	367.551
3048.28	354.098
3049.11	367.352
3049.94	352.683
3050.77	373.806
3051.6	379.816
3052.43	362.577
3053.26	368.147
3054.09	359.024
3054.92	364.259
3055.75	369.603
3056.58	364.14
3057.41	375.888
3058.24	366.572
3059.07	348.396
3059.9	350.128
3060.73	351.942
3061.55	365.421
3062.38	340.504
3063.21	374.173
3064.04	350.147
3064.87	373.969
3065.7	368.41
3066.52	362.62
3067.35	343.685
3068.18	381.24
3069.01	366.599
3069.83	349.465
3070.66	368.846
3071.49	346.373
3072.32	361.773
3073.14	353.045
3073.97	369.387
3074.8	340.858
3075.62	355.894
3076.45	355.641
3077.28	358.31
3078.1	331.393
3078.93	346.513
3079.75	345.604
3080.58	353.519
3081.41	345.406
3082.23	359.479
3083.06	339.743
3083.88	349.975
3084.71	346.511
3085.53	342.154
3086.36	362.296
3087.18	365.92
3088.01	368.126
3088.83	345.668
3089.66	351.043
3090.48	335.343
3091.31	343.145
3092.13	338.207
3092.96	342.718
3093.78	353.324
3094.6	351.727
3095.43	359.245
3096.25	343.581
3097.07	344.265
3097.9	343.35
3098.72	323.563
3099.54	345.729
3100.37	348.025
3101.19	351.617
3102.01	351.69
3102.84	348.468
3103.66	356.692
3104.48	342.374
3105.3	347.651
3106.13	346.896
3106.95	345.56
3107.77	335.031
3108.59	334.236
3109.41	348.73
3110.24	353.088
3111.06	347.22
3111.88	335.008
3112.7	335.139
3113.52	344.539
3114.34	347.231
3115.16	342.868
3115.98	332.847
3116.81	335.583
3117.63	321.436
3118.45	330.942
3119.27	346.234
3120.09	336.654
3120.91	332.362
3121.73	329.835
3122.55	324.594
3123.37	318.55
3123.73	314
3124.56	326
3125.38	344
3126.21	330
3127.03	326
3127.85	334
3128.68	316
3129.5	308
3130.32	334
3131.15	338
3131.97	322
3132.79	334
3133.62	314
3134.44	332
3135.26	324
3136.08	328
3136.91	320
3137.73	324
3138.55	316
3139.37	348
3140.19	314
3141.02	322
3141.84	350
3142.66	316
3143.48	298
3144.3	342
3145.13	322
3145.95	312
3146.77	314
3147.59	332
3148.41	306
3149.23	332
3150.05	326
3150.87	316
3151.69	334
3152.51	298
3153.33	320
3154.15	310
3154.97	316
3155.79	314
3156.61	330
3157.43	306
3158.25	280
3159.07	312
3159.89	320
3160.71	318
3161.53	324
3162.35	338
3163.17	320
3163.98	312
3164.8	326
3165.62	312
3166.44	304
3167.26	322
3168.08	308
3168.89	306
3169.71	314
3170.53	324
3171.35	330
3172.17	320
3172.98	310
3173.8	280
3174.62	304
3175.43	302
3176.25	314
3177.07	332
3177.89	298
3178.7	326
3179.52	302
3180.33	328
3181.15	318
3181.97	320
3182.78	314
3183.6	310
3184.41	298
3185.23	306
3186.05	316
3186.86	320
3187.68	298
3188.49	306
3189.31	286
3190.12	308
3190.94	306
3191.75	298
3192.57	296
3193.38	322
3194.2	290
3195.01	308
3195.82	312
3196.64	300
3197.45	304
3198.27	304
3199.08	290
3199.89	290
3200.71	310
3201.52	308
3202.33	294
3203.15	302
3203.96	292
3204.77	322
3205.59	300
3206.4	312
3207.21	300
3208.02	278
3208.84	316
3209.65	298
3210.46	274
3211.27	292
3212.09	306
3212.9	314
3213.71	318
3214.52	294
3215.33	296
3216.14	304
3216.96	306
3217.77	304
3218.58	298
3219.39	302
3220.2	306
3221.01	298
3221.82	292
3222.63	282
3223.44	290
3224.25	266
3225.06	300
3225.87	286
3226.68	294
3227.49	308
3228.3	292
3229.11	286
3229.92	274
3230.73	308
3231.54	330
3232.35	298
3233.16	302
3233.97	304
3234.77	288
3235.58	296
3236.39	262
3237.2	294
3238.01	304
3238.82	314
3239.63	288
3240.43	280
3241.24	270
3242.05	308
3242.86	296
3243.66	302
3244.47	278
3245.28	318
3246.09	292
3246.89	302
3247.7	288
3248.51	286
3249.31	300
3250.12	282
3250.93	298
3251.73	304
3252.54	278
3253.35	288
3254.15	302
3254.96	294
3255.76	286
3256.57	292
3257.38	284
3258.18	272
3258.99	260
3259.79	314
3260.6	302
3261.4	280
3262.21	292
3263.01	306
3263.82	288
3264.62	280
3265.43	286
3266.23	276
3267.04	292
3267.84	292
3268.64	280
3269.45	290
3270.25	284
3271.06	288
3271.86	276
3272.66	270
3273.47	286
3274.27	296
3275.07	284
3275.88	298
3276.68	280
3277.48	282
3278.28	278
3279.09	286
3279.89	284
3280.69	264
3281.49	286
3282.3	288
3283.1	266
3283.9	286
3284.7	294
3285.5	266
3286.31	270
3287.11	280
3287.91	280
3288.71	280
3289.51	292
3290.31	272
3291.11	282
3291.91	288
3292.71	264
3293.51	290
3294.31	254
3295.12	290
3295.92	266
3296.72	274
3297.52	262
3298.32	278
3299.12	284
3299.92	284
3300.72	270
3301.51	248
3302.31	290
3303.11	274
3303.91	282
3304.71	270
3305.51	288
3306.31	260
3307.11	282
3307.91	280
3308.71	270
3309.5	262
3310.3	262
3311.1	274
3311.9	276
3312.7	266
3313.49	274
3314.29	260
3315.09	274
3315.89	262
3316.69	264
3317.48	286
3318.28	282
3319.08	266
3319.87	280
3320.67	278
3321.47	262
3322.26	284
3323.06	278
3323.86	264
3324.65	270
3325.45	276
3326.25	248
3327.04	270
3327.84	260
3328.63	262
3329.43	276
3330.22	272
3331.02	292
3331.81	272
3332.61	244
3333.4	248
3334.2	258
3334.99	268
3335.79	276
3336.58	272
3337.38	268
3338.17	280
3338.97	246
3339.76	256
3340.56	250
3341.35	240
3342.14	266
3342.94	270
3343.73	292
3344.52	258
3345.32	280
3346.11	264
3346.9	254
3347.7	266
3348.49	246
3349.28	262
3350.08	254
3350.87	272
3351.66	258
3352.45	262
3353.25	272
3354.04	264
3354.83	270
3355.62	264
3356.41	268
3357.21	268
3358	270
3358.79	262
3359.58	252
3360.37	268
3361.16	256
3361.95	250
3362.75	246
3363.54	264
3364.33	258
3365.12	258
3365.91	252
3366.7	266
3367.49	266
3368.28	264
3369.07	248
3369.86	244
3370.65	264
3371.44	288
3372.23	266
3373.02	232
3373.81	264
3374.6	250
3375.39	274
3376.18	274
3376.97	248
3377.75	270
3378.54	256
3379.33	272
3380.12	262
3380.91	242
3381.7	258
3382.49	258
3383.27	246
3384.06	262
3384.85	264
3385.64	234
3386.43	254
3387.21	262
3388	240
3388.79	266
3389.58	246
3390.36	256
3391.15	236
3391.94	258
3392.72	256
3393.51	260
3394.3	248
3395.08	242
3395.87	252
3396.66	248
3397.44	258
3398.23	250
3399.01	250
3399.8	260
3400.59	244
3401.37	234
3402.16	276
3402.94	264
3403.73	242
3404.51	250
3405.3	254
3406.08	254
3406.87	248
3407.65	248
3408.44	244
3409.22	258
3410.01	254
3410.79	250
3411.58	240
3412.36	260
3413.14	248
3413.93	250
3414.71	238
3415.5	248
3416.28	244
3417.06	256
3417.85	234
3418.63	236
3419.41	226
3420.2	256
3420.98	238
3421.76	248
3422.54	242
3423.33	262
3424.11	236
3424.89	248
3425.67	260
3426.46	238
3427.24	244
3428.02	256
3428.8	234
3429.58	264
3430.36	248
3431.15	226
3431.93	236
3432.71	240
3433.49	254
3434.27	242
3435.05	246
3435.83	242
3436.61	246
3437.4	256
3438.18	272
3438.96	238
3439.74	234
3440.52	252
3441.3	242
3442.08	234
3442.86	234
3443.64	254
3444.42	218
3445.2	238
3445.98	266
3446.76	230
3447.53	240
3448.31	216
3449.09	240
3449.87	244
3450.65	244
3451.43	230
3452.21	232
3452.99	228
3453.77	242
3454.54	270
3455.32	226
3456.1	222
3456.88	250
3457.66	246
3458.43	248
3459.21	230
3459.99	248
3460.77	234
3461.54	234
3462.32	226
3463.1	246
3463.88	228
3464.65	224
3465.43	234
3466.21	254
3466.98	224
3467.76	232
3468.53	224
3469.31	234
3470.09	238
3470.86	212
3471.64	222
3472.42	212
3473.19	232
3473.97	224
3474.74	230
3475.52	230
3476.29	252
3477.07	222
3477.84	244
3478.62	240
3479.39	242
3480.17	218
3480.94	226
3481.72	232
3482.49	224
3483.27	246
3484.04	234
3484.82	240
3485.59	242
3486.36	240
3487.14	246
3487.91	222
3488.68	212
3489.46	222
3490.23	234
3491	230
3491.78	220
3492.55	226
3493.32	238
3494.1	226
3494.87	220
3495.64	238
3496.42	254
3497.19	224
3497.96	224
3498.73	228
3499.5	218
3500.28	224
3501.05	230
3501.82	226
3502.59	242
3503.36	240
3504.14	218
3504.91	204
3505.68	216
3506.45	228
3507.22	246
3507.99	236
3508.76	228
3509.53	224
3510.3	228
3511.07	224
3511.84	220
3512.61	220
3513.38	224
3514.16	210
3514.92	218
3515.7	222
3516.46	240
3517.23	228
3518	224
3518.77	208
3519.54	226
3520.31	224
3521.08	248
3521.85	224
3522.62	216
3523.39	214
3524.16	220
3524.93	226
3525.69	232
3526.46	228
3527.23	200
3528	218
3528.77	230
3529.53	222
3530.3	212
3531.07	206
3531.84	224
3532.61	218
3533.37	212
3534.14	222
3534.91	224
3535.68	236
3536.44	226
3537.21	238
3537.98	216
3538.74	230
3539.51	228
3540.28	226
3541.04	228
3541.81	218
3542.58	222
3543.34	212
3544.11	206
3544.87	236
3545.64	214
3546.4	220
3547.17	222
3547.94	226
3548.7	220
3549.47	232
3550.23	226
3551	208
3551.76	206
3552.53	234
3553.29	210
3554.06	204
3554.82	236
3555.59	216
3556.35	214
3557.11	218
3557.88	212
3558.64	224
3559.41	206
3560.17	206
3560.93	210
3561.7	226
3562.46	222
3563.22	192
3563.99	216
3564.75	206
3565.51	234
3566.28	216
3567.04	208
3567.8	208
3568.56	200
3569.33	216
3570.09	214
3570.85	210
3571.61	214
3572.38	208
3573.14	208
3573.9	206
3574.66	198
3575.42	208
3576.19	218
3576.95	222
3577.71	212
3578.47	202
3579.23	214
3579.99	206
3580.75	234
3581.51	212
3582.28	218
3583.04	200
3583.8	220
3584.56	196
3585.32	222
3586.08	204
3586.84	212
3587.6	224
3588.36	228
3589.12	202
3589.88	220
3590.64	232
3591.4	224
3592.16	204
3592.92	212
3593.67	214
3594.43	216
3595.19	214
3595.95	200
3596.71	206
3597.47	196
3598.23	208
3598.99	218
3599.75	200
3600.5	216
3601.26	206
3602.02	212
3602.78	222
3603.54	216
3604.29	200
3605.05	206
3605.81	196
3606.57	208
3607.32	208
3608.08	212
3608.84	206
3609.59	204
3610.35	204
3611.11	204
3611.87	202
3612.62	216
3613.38	212
3614.13	212
3614.89	212
3615.65	212
3616.4	212
3617.16	202
3617.92	196
3618.67	210
3619.43	204
3620.18	214
3620.94	202
3621.69	220
3622.45	200
3623.2	204
3623.96	204
3624.71	220
3625.47	198
3626.22	196
3626.98	200
3627.73	184
3628.49	196
3629.24	210
3630	204
3630.75	196
3631.5	212
3632.26	198
3633.01	216
3633.77	198
3634.52	208
3635.27	206
3636.03	198
3636.78	188
3637.53	202
3638.29	206
3639.04	200
3639.79	198
3640.55	186
3641.3	210
3642.05	192
3642.8	190
3643.56	208
3644.31	200
3645.06	200
3645.81	206
3646.56	206
3647.32	214
3648.07	190
3648.82	202
3649.57	208
3650.32	206
3651.07	204
3651.83	192
3652.58	192
3653.33	212
3654.08	214
3654.83	190
3655.58	214
3656.33	204
3657.08	206
3657.83	186
3658.58	192
3659.33	186
3660.08	202
3660.83	192
3661.58	204
3662.33	202
3663.08	194
3663.83	202
3664.58	198
3665.33	188
3666.08	206
3666.83	204
3667.58	204
3668.33	192
3669.08	194
3669.83	194
3670.57	192
3671.32	200
3672.07	196
3672.82	192
3673.57	206
3674.32	202
3675.07	194
3675.81	180
3676.56	176
3677.31	196
3678.06	190
3678.8	182
3679.55	188
3680.3	190
3681.05	194
3681.79	204
3682.54	190
3683.29	194
3684.04	184
3684.78	188
3685.53	200
3686.28	194
3687.02	200
3687.77	194
3688.51	198
3689.26	192
3690.01	180
3690.75	198
3691.5	208
3692.24	186
3692.99	216
3693.74	180
3694.48	186
3695.23	206
3695.97	182
3696.72	188
3697.46	202
3698.21	178
3698.95	176
3699.7	174
3700.44	206
3701.19	182
3701.93	178
3702.68	194
3703.42	200
3704.16	178
3704.91	184
3705.65	180
3706.4	198
3707.14	196
3707.88	200
3708.63	182
3709.37	194
3710.11	202
3710.86	190
3711.6	192
3712.34	198
3713.09	178
3713.83	174
3714.57	184
3715.31	194
3716.06	186
3716.8	176
3717.54	182
3718.28	188
3719.03	180
3719.77	186
3720.51	184
3721.25	176
3721.99	180
3722.74	174
3723.48	196
3724.22	188
3724.96	190
3725.7	174
3726.44	190
3727.18	178
3727.92	206
3728.67	180
3729.41	194
3730.15	190
3730.89	188
3731.63	194
3732.37	190
3733.11	204
3733.85	198
3734.59	190
3735.33	176
3736.07	196
3736.81	186
3737.55	190
3738.29	176
3739.03	174
3739.77	182
3740.51	162
3741.24	190
3741.98	180
3742.72	186
3743.46	200
3744.2	176
3744.94	170
3745.68	182
3746.42	190
3747.15	182
3747.89	178
3748.63	182
3749.37	190
3750.11	174
3750.84	190
3751.58	178
3752.32	188
3753.06	166
3753.79	176
3754.53	180
3755.27	184
3756.01	186
3756.74	172
3757.48	184
3758.22	198
3758.95	188
3759.69	184
3760.43	174
3761.16	170
3761.9	188
3762.64	182
3763.37	174.019
3764.11	176.074
3764.84	168.302
3765.58	190.076
3766.32	166.846
3767.05	172.051
3767.79	159.419
3768.52	189.996
3769.26	173.407
3769.99	168.359
3770.73	190.682
3771.46	180.768
3772.2	187.306
3772.93	178.262
3773.67	171.542
3774.4	174.385
3775.14	173.824
3775.87	174.999
3776.61	178.662
3777.34	180.922
3778.07	184.794
3778.81	180.602
3779.54	171.308
3780.28	176.787
3781.01	178.654
3781.74	189.944
3782.48	171.131
3783.21	179.806
3783.94	164.427
3784.68	183.491
3785.41	169.189
3786.14	192.017
3786.88	167.374
3787.61	171.73
3788.34	177.33
3789.07	179.428
3789.81	184.523
3790.54	177.042
3791.27	187.94
3792	183.475
3792.74	164.116
3793.47	162.972
3794.2	168.955
3794.93	163.695
3795.66	183.079
3796.4	169.481
3797.13	186.282
3797.86	177.379
3798.59	175.601
3799.32	178.128
3800.05	168.981
3800.78	167.017
3801.52	176.305
3802.25	173.181
3802.98	176.929
3803.71	171.203
3804.44	167.93
3805.17	181.816
3805.9	179.902
3806.63	179.213
3807.36	181.566
3808.09	178.525
3808.82	177.898
3809.55	171.95
3810.28	163.32
3811.01	169.933
3811.74	179.594
3812.47	177.522
3813.2	168.683
3813.93	172.121
3814.66	179.862
3815.38	168.165
3816.11	171.653
3816.84	172.369
3817.57	176.01
3818.3	174.964
3819.03	175.821
3819.76	181.809
3820.49	173.696
3821.21	180.793
3821.94	172.037
3822.67	161.01
3823.4	165.38
3824.13	186.735
3824.85	180.1
3825.58	174.161
3826.31	176.428
3827.04	171.566
3827.77	177.061
3828.49	168.338
3829.22	169.064
3829.95	177.561
3830.67	163.647
3831.4	158.87
3832.13	167.248
3832.85	180.351
3833.58	175.049
3834.31	170.04
3835.03	159.656
3835.76	163.69
3836.49	170.796
3837.21	178.821
3837.94	167.971
3838.52	168
3839.25	172
3839.98	172
3840.71	162
3841.44	168
3842.17	152
3842.9	174
3843.63	168
3844.36	176
3845.09	184
3845.82	166
3846.55	166
3847.28	160
3848	156
3848.73	168
3849.46	162
3850.19	164
3850.92	162
3851.65	172
3852.38	160
3853.1	188
3853.83	166
3854.56	156
3855.29	174
3856.02	164
3856.74	168
3857.47	174
3858.2	160
3858.93	162
3859.65	158
3860.38	164
3861.11	176
3861.84	170
3862.56	182
3863.29	152
3864.02	180
3864.74	156
3865.47	176
3866.2	166
3866.92	172
3867.65	162
3868.38	166
3869.1	158
3869.83	168
3870.55	164
3871.28	166
3872.01	176
3872.73	184
3873.46	170
3874.18	146
3874.91	158
3875.63	176
3876.36	176
3877.08	190
3877.81	170
3878.53	150
3879.26	158
3879.98	166
3880.71	166
3881.43	180
3882.16	172
3882.88	158
3883.6	162
3884.33	164
3885.05	166
3885.78	158
3886.5	166
3887.22	182
3887.95	148
3888.67	164
3889.4	172
3890.12	168
3890.84	176
3891.57	178
3892.29	172
3893.01	158
3893.73	178
3894.46	186
3895.18	160
3895.9	156
3896.63	156
3897.35	160
3898.07	170
3898.79	168
3899.51	176
3900.24	176
3900.96	164
3901.68	164
3902.4	150
3903.12	154
3903.84	152
3904.57	164
3905.29	164
3906.01	160
3906.73	166
3907.45	162
3908.17	174
3908.89	154
3909.61	150
3910.33	176
3911.06	168
3911.78	150
3912.5	178
3913.22	152
3913.94	146
3914.66	150
3915.38	168
3916.1	158
3916.82	154
3917.54	154
3918.26	162
3918.98	172
3919.69	174
3920.41	170
3921.13	172
3921.85	166
3922.57	164
3923.29	166
3924.01	166
3924.73	162
3925.45	150
3926.17	162
3926.88	160
3927.6	168
3928.32	170
3929.04	156
3929.76	152
3930.47	150
3931.19	168
3931.91	156
3932.63	162
3933.35	172
3934.06	152
3934.78	156
3935.5	160
3936.22	164
3936.93	148
3937.65	142
3938.37	178
3939.08	168
3939.8	164
3940.52	160
3941.23	138
3941.95	162
3942.67	138
3943.38	176
3944.1	162
3944.82	148
3945.53	176
3946.25	144
3946.96	150
3947.68	160
3948.4	142
3949.11	162
3949.83	168
3950.54	164
3951.26	160
3951.97	156
3952.69	160
3953.4	154
3954.12	128
3954.83	156
3955.55	158
3956.26	138
3956.98	160
3957.69	164
3958.4	158
3959.12	154
3959.83	162
3960.55	162
3961.26	150
3961.97	146
3962.69	160
3963.4	148
3964.12	154
3964.83	140
3965.54	158
3966.26	160
3966.97	154
3967.68	176
3968.4	160
3969.11	154
3969.82	152
3970.53	142
3971.25	148
3971.96	170
3972.67	152
3973.38	166
3974.1	162
3974.81	156
3975.52	162
3976.23	150
3976.94	148
3977.66	148
3978.37	148
3979.08	164
3979.79	146
3980.5	172
3981.21	144
3981.92	152
3982.64	154
3983.35	156
3984.06	158
3984.77	160
3985.48	160
3986.19	142
3986.9	154
3987.61	150
3988.32	150
3989.03	158
3989.74	152
3990.45	174
3991.16	164
3991.87	148
3992.58	134
3993.29	150
3994	148
3994.71	158
3995.42	144
3996.13	138
3996.84	166
3997.55	154
3998.26	146
3998.97	142
3999.67	158
