#Acq. time (s)=	10
#Accumulations=	1
#Range (cm-¹)=	200...4000
#Windows=	5
#Autofocus=	Off
#AutoExposure=	Off
#Spike filter=	Off
#Delay time (s)=	0
#Binning=	1
#Readout mode=	Signal
#DeNoise=	Off
#ICS correction=	Off
#Dark correction=	Off
#Inst. Process=	Off
#Instrument=	LabRAM HR Evol
#Detector=	Syncerity OE
#Objective=	x100_VIS
#Grating=	600 (500nm)
#ND Filter=	25%
#Laser=	633nm_Edge
#Hole=	100.021
#Range=	Visible
#Project=	Omar
#Sample=	03-07-23
#Site=	1
#Title=	OR
#Remark=	
#Date=	03.07.2023 13:50
#Acquired=	03.07.2023 13:50:37
200.404	852
201.671	808
202.938	810
204.205	800
205.472	786
206.737	814
208.003	806
209.269	804
210.535	814
211.799	826
213.064	844
214.33	838
215.595	824
216.858	802
218.122	812
219.387	814
220.649	838
221.913	840
223.177	826
224.439	836
225.703	842
226.966	850
228.227	836
229.49	808
230.752	836
232.013	836
233.275	830
234.536	816
235.798	866
237.059	820
238.319	852
239.58	876
240.839	860
242.1	822
243.361	854
244.619	846
245.879	860
247.138	822
248.398	830
249.655	878
250.915	842
252.172	868
253.431	802
254.688	864
255.947	852
257.204	826
258.462	806
259.718	856
260.976	820
262.232	858
263.487	854
264.744	874
266	864
267.256	870
268.511	832
269.767	870
271.022	850
272.276	840
273.532	848
274.786	832
276.04	898
277.295	892
278.548	846
279.801	850
281.055	874
282.308	862
283.561	868
284.814	836
286.066	852
287.318	850
288.572	872
289.823	858
291.074	914
292.327	896
293.578	874
294.828	838
296.079	860
297.331	872
298.581	872
299.831	860
301.08	864
302.33	890
303.581	870
304.83	870
306.079	856
307.327	852
308.576	874
309.825	894
311.073	880
312.321	852
313.569	876
314.816	894
316.064	880
317.311	910
318.558	886
319.806	922
321.052	916
322.299	918
323.545	872
324.79	886
326.036	882
327.282	876
328.527	910
329.772	912
331.017	876
332.261	900
333.506	870
334.75	892
335.994	884
337.238	896
338.482	894
339.725	924
340.968	920
342.211	880
343.454	894
344.697	910
345.939	894
347.182	882
348.424	874
349.666	908
350.907	936
352.149	866
353.39	932
354.631	882
355.87	880
357.111	924
358.352	944
359.592	938
360.832	926
362.072	920
363.311	892
364.549	910
365.789	906
367.028	906
368.267	946
369.505	924
370.742	918
371.981	932
373.219	906
374.457	944
375.694	920
376.93	904
378.168	910
379.405	904
380.642	860
381.877	952
383.113	920
384.35	914
385.584	936
386.82	896
388.056	916
389.291	866
390.525	912
391.76	908
392.995	876
394.228	912
395.463	936
396.696	900
397.93	944
399.164	932
400.396	932
401.63	926
402.863	914
404.095	934
405.328	912
406.559	940
407.791	920
409.022	928
410.254	934
411.486	956
412.717	964
413.948	934
415.178	958
416.409	976
417.639	952
418.87	930
420.099	956
421.329	946
422.558	970
423.788	930
425.016	960
426.244	994
427.474	980
428.701	988
429.93	982
431.158	992
432.386	948
433.613	960
434.84	974
436.068	968
437.294	968
438.522	948
439.748	946
440.974	1008
442.201	974
443.426	964
444.651	990
445.878	950
447.103	992
448.327	960
449.553	976
450.777	974
452.001	972
453.225	960
454.45	958
455.674	972
456.897	970
458.121	974
459.344	990
460.567	988
461.789	958
463.012	980
464.235	960
465.457	1004
466.679	968
467.9	958
469.122	964
470.344	974
471.565	944
472.786	988
474.006	984
475.227	1022
476.447	974
477.668	976
478.888	970
480.107	984
481.327	998
482.546	980
483.765	962
484.984	1014
486.202	1004
487.421	1028
488.639	1024
489.857	982
491.075	990
492.292	1026
493.51	996
494.727	964
495.944	986
497.161	992
498.377	970
499.594	976
500.81	1000
502.026	1026
503.242	976
504.458	1024
505.673	1002
506.888	956
508.104	970
509.318	994
510.533	994
511.748	1010
512.962	1008
514.176	988
515.39	1008
516.602	1022
517.816	982
519.029	976
520.242	1018
521.455	978
522.668	1004
523.881	1020
525.092	984
526.304	994
527.516	1000
528.728	1012
529.939	1004
531.149	1034
532.361	986
533.572	972
534.783	986
535.992	978
537.202	986
538.413	1050
539.623	1034
540.831	972
542.041	984
543.25	1022
544.458	1000
545.667	1020
546.876	1028
548.084	1016
549.292	964
550.501	1030
551.707	1056
552.915	1002
554.123	1022
555.329	976
556.537	984
557.743	1000
558.95	1000
560.156	984
561.362	1042
562.568	1024
563.773	1038
564.979	1000
566.184	1028
567.389	994
568.595	1026
569.799	1014
571.004	1010
572.207	996
573.412	1012
574.615	980
575.82	1020
577.022	1022
578.226	1020
579.429	990
580.631	1038
581.834	1022
583.036	1034
584.239	1068
585.44	1054
586.643	1016
587.844	1042
589.045	1032
590.247	1042
591.448	1008
592.649	1072
593.849	1056
595.049	992
596.25	1044
597.45	1026
598.649	1020
599.85	1030
601.049	1046
602.248	1030
603.448	1026
604.646	1016
605.844	1034
607.042	1008
608.241	1060
609.439	1050
610.637	1034
611.834	1034
613.032	1014
614.229	1044
615.426	1050
616.622	1066
617.819	1064
619.016	1044
620.212	1044
621.408	1054
622.603	1044
623.799	1024
624.994	1028
626.19	1062
627.385	1068
628.58	1050
629.774	1036
630.969	1054
632.163	1084
633.356	1040
634.55	1070
635.744	1132
636.938	1072
638.131	1080
639.324	1064
640.517	1054
641.71	1064
642.902	1068
644.094	1102
645.286	1074
646.478	1066
647.67	1060
648.861	1086
650.052	1124
651.243	1082
652.434	1062
653.625	1086
654.815	1058
656.006	1068
657.196	1062
658.384	1128
659.574	1048
660.764	1064
661.953	1076
663.142	1074
664.331	1090
665.52	1100
666.709	1044
667.897	1072
669.084	1096
670.272	1082
671.46	1076
672.648	1090
673.835	1086
675.021	1078
676.208	1080
677.395	1082
678.582	1068
679.768	1120
680.953	1108
682.14	1100
683.326	1082
684.512	1060
685.696	1082
686.881	1068
688.067	1090
689.252	1088
690.435	1100
691.62	1070
692.804	1098
693.987	1094
695.171	1104
696.355	1092
697.538	1098
698.721	1064
699.905	1070
701.087	1074
702.27	1082
703.451	1114
704.634	1094
705.816	1110
706.997	1078
708.179	1058
709.36	1080
710.542	1100
711.722	1090
712.903	1136
714.083	1730
715.264	1112
716.445	1104
717.624	1090
718.805	1112
719.984	1102
721.162	1088
722.342	1090
723.52	1144
724.7	1108
725.878	1076
727.057	1066
728.235	1132
729.414	1126
730.591	1066
731.768	1140
732.946	1138
734.123	1120
735.301	1160
736.477	1116
737.653	1154
738.83	1132
740.006	1112
741.182	1150
742.358	1134
743.534	1118
744.709	1128
745.885	1106
747.06	1120
748.234	1082
749.41	1150
750.584	1132
751.758	1106
752.931	1138
754.106	1132
755.28	1088
756.453	1120
757.626	1072
758.8	1104
759.973	1116
761.145	1118
762.318	1090
763.49	1128
764.662	1126
765.835	1088
767.006	1114
768.178	1112
769.349	1080
770.52	1122
771.691	1100
772.861	1102
774.033	1104
775.203	1074
776.373	1098
777.543	1138
778.713	1140
779.883	1126
781.052	1126
782.221	1140
783.39	1096
784.559	1112
785.727	1126
786.896	1148
788.064	1156
789.232	1070
790.4	1110
791.568	1166
792.735	1148
793.903	1152
795.07	1128
796.237	1124
797.404	1170
798.57	1168
799.737	1132
800.903	1136
802.068	1102
803.234	1152
804.399	1102
805.565	1152
806.73	1122
807.896	1124
809.061	1174
810.224	1112
811.389	1098
812.553	1112
813.717	1174
814.881	1148
816.045	1122
817.208	1126
818.371	1168
819.535	1116
820.698	1126
821.859	1188
823.022	1140
824.185	1166
825.347	1128
826.508	1146
827.67	1152
828.832	1158
829.993	1146
831.154	1196
832.316	1142
833.476	1186
834.637	1144
835.797	1158
836.957	1148
838.117	1202
839.278	1184
840.436	1170
841.596	1152
842.755	1128
843.914	1194
845.074	1176
846.232	1148
847.391	1156
848.548	1194
849.707	1158
850.864	1206
852.022	1158
853.179	1156
854.337	1198
855.493	1194
856.651	1190
857.807	1216
858.964	1154
860.12	1204
861.277	1136
862.432	1190
863.589	1178
864.744	1226
865.9	1196
867.055	1180
868.209	1224
869.365	1170
870.519	1220
871.674	1176
872.828	1172
873.982	1186
875.136	1236
876.29	1194
877.443	1204
878.597	1196
879.75	1174
880.902	1150
882.056	1224
883.208	1156
884.36	1174
885.512	1150
886.665	1204
887.816	1216
888.967	1166
890.118	1112
891.271	1128
892.421	1200
893.572	1204
894.722	1182
895.874	1178
897.024	1178
898.174	1164
899.323	1154
900.473	1196
901.622	1158
902.771	1200
903.922	1150
905.07	1214
906.219	1190
907.367	1146
908.516	1160
909.664	1166
910.811	1188
911.959	1164
913.107	1186
914.254	1162
915.401	1152
916.55	1180
917.696	1176
918.843	1194
919.99	1150
921.136	1188
922.282	1186
923.428	1166
924.574	1202
925.719	1156
926.863	1176
928.009	1160
929.154	1216
930.299	1162
931.443	1198
932.588	1196
933.732	1208
934.876	1204
936.02	1208
937.164	1232
938.308	1206
939.45	1142
940.593	1204
941.736	1208
942.879	1192
944.022	1220
945.165	1232
946.306	1186
947.448	1230
948.59	1230
949.732	1192
950.874	1248
952.014	1212
953.155	1244
954.296	1280
955.437	1212
956.577	1224
957.718	1182
958.858	1248
959.997	1244
961.137	1202
962.277	1252
963.416	1212
964.555	1210
965.695	1170
966.833	1226
967.972	1210
969.111	1224
970.248	1238
971.387	1220
972.524	1220
973.662	1212
974.8	1216
975.936	1204
977.074	1252
978.21	1248
979.348	1204
980.483	1256
981.62	1232
982.757	1264
983.893	1244
985.029	1278
986.164	1220
987.299	1238
988.435	1214
989.569	1214
990.705	1220
991.839	1244
992.974	1224
994.108	1188
995.243	1224
996.376	1196
997.509	1214
998.644	1214
999.777	1218
1000.91	1214
1002.04	1252
1003.18	1220
1004.31	1232
1005.44	1228
1006.57	1222
1007.71	1208
1008.84	1196
1009.97	1232
1011.1	1248
1012.23	1192
1013.36	1248
1014.49	1210
1015.63	1242
1016.76	1238
1017.89	1250
1019.02	1266
1020.15	1234
1021.28	1248
1022.41	1202
1023.54	1242
1024.66	1198
1025.79	1258
1026.92	1262
1028.05	1242
1029.18	1204
1030.31	1210
1031.44	1280
1032.56	1218
1033.69	1222
1034.82	1228
1035.95	1266
1037.08	1238
1038.2	1252
1039.33	1276
1040.46	1246
1041.58	1242
1042.71	1276
1043.83	1306
1044.96	1262
1046.09	1298
1047.21	1244
1048.34	1252
1049.46	1328
1050.59	1258
1051.71	1264
1052.84	1264
1053.96	1274
1055.09	1232
1056.21	1288
1057.33	1258
1058.46	1256
1059.58	1254
1060.71	1270
1061.83	1272
1062.95	1266
1064.07	1278
1065.2	1286
1066.32	1266
1067.44	1260
1068.56	1272
1069.69	1254
1070.81	1252
1071.93	1288
1073.05	1262
1074.17	1236
1075.29	1292
1076.41	1262
1077.54	1274
1078.66	1270
1079.78	1256
1080.9	1276
1082.02	1268
1083.14	1288
1084.25	1242
1085.37	1234
1086.49	1274
1087.61	1264
1088.73	1258
1089.85	1252
1090.97	1262
1092.09	1240
1093.21	1242
1094.32	1250
1095.44	1262
1096.56	1274
1097.68	1290
1098.79	1258
1099.91	1250
1101.03	1252
1102.14	1250
1103.26	1272
1104.38	1242
1105.49	1228
1106.61	1242
1107.72	1252
1108.84	1250
1109.96	1226
1111.07	1284
1112.19	1288
1113.3	1298
1114.42	1270
1115.53	1194
1116.64	1306
1117.76	1236
1118.87	1288
1119.99	1296
1121.1	1284
1122.21	1238
1123.33	1254
1124.44	1284
1125.55	1294
1126.66	1222
1127.78	1274
1128.89	1304
1130	1294
1131.11	1270
1132.23	1290
1133.34	1298
1134.45	1264
1135.56	1288
1136.67	1278
1137.78	1276
1138.89	1280
1140	1310
1141.11	1282
1142.22	1266
1143.33	1298
1144.44	1292
1145.55	1290
1146.66	1284
1147.77	1362
1148.88	1284
1149.99	1298
1151.1	1292
1152.21	1310
1153.32	1270
1154.42	1282
1155.53	1312
1156.64	1300
1157.75	1304
1158.85	1270
1159.96	1284
1161.07	1298
1162.17	1292
1163.28	1314
1164.39	1340
1165.49	1304
1166.6	1312
1167.71	1322
1168.81	1286
1169.92	1328
1171.02	1318
1172.13	1358
1173.23	1286
1174.34	1346
1175.44	1296
1176.55	1262
1177.65	1286
1178.76	1290
1179.86	1310
1180.97	1342
1182.07	1332
1183.17	1298
1184.28	1326
1185.38	1298
1186.48	1264
1187.58	1272
1188.69	1338
1189.79	1304
1190.89	1282
1191.99	1292
1193.1	1284
1194.2	1280
1195.3	1324
1196.4	1314
1197.5	1358
1198.6	1278
1199.7	1310
1200.8	1338
1201.9	1312
1203	1296
1204.1	1282
1205.2	1308
1206.3	1314
1207.4	1312
1208.5	1260
1209.6	1248
1210.7	1256
1211.8	1268
1212.9	1308
1214	1312
1215.1	1290
1216.19	1292
1217.29	1244
1218.39	1240
1219.49	1312
1220.58	1286
1221.68	1294
1222.78	1310
1223.88	1276
1224.97	1290
1226.07	1266
1227.17	1284
1228.26	1286
1229.36	1308
1230.45	1298
1231.55	1286
1232.65	1304
1233.74	1266
1234.84	1324
1235.93	1278
1237.02	1276
1238.12	1252
1239.21	1266
1240.31	1286
1241.4	1258
1242.5	1324
1243.59	1280
1244.68	1282
1245.78	1300
1246.87	1316
1247.96	1278
1249.06	1266
1250.15	1304
1251.24	1308
1252.33	1318
1253.43	1318
1254.52	1294
1255.61	1302
1256.7	1270
1257.79	1330
1258.88	1266
1259.98	1284
1261.07	1282
1262.16	1324
1263.25	1314
1264.34	1284
1265.43	1290
1266.52	1328
1267.61	1350
1268.7	1264
1269.79	1336
1270.88	1340
1271.96	1298
1273.05	1296
1274.14	1326
1275.23	1314
1276.32	1366
1277.41	1318
1278.5	1294
1279.58	1304
1280.67	1321.9
1281.76	1337.57
1282.85	1304.43
1283.93	1280.95
1285.02	1309.31
1286.11	1283.82
1287.19	1290.27
1288.28	1330.69
1289.37	1350.33
1290.45	1318.86
1291.54	1286.33
1292.63	1327.66
1293.71	1291.18
1294.8	1296.46
1295.88	1310.56
1296.97	1307.14
1298.05	1295.6
1299.14	1297.85
1300.22	1287.9
1301.31	1355.94
1302.39	1337.07
1303.47	1302.84
1304.56	1357.32
1305.64	1322.55
1306.72	1330.44
1307.81	1286.16
1308.89	1315.98
1309.97	1326.29
1311.06	1313.08
1312.14	1306.22
1313.22	1315.2
1314.3	1303.86
1315.39	1286.46
1316.47	1304.42
1317.55	1317.74
1318.63	1299.55
1319.71	1314.36
1320.79	1313.78
1321.88	1285.01
1322.96	1321.96
1324.04	1300.87
1325.12	1305.69
1326.2	1309.39
1327.28	1280.56
1328.36	1329.5
1329.44	1330.95
1330.52	1316.98
1331.6	1309.18
1332.68	1306.22
1333.76	1321.64
1334.84	1299.79
1335.91	1329.51
1336.99	1296.94
1338.07	1286.24
1339.15	1328.48
1340.23	1339.78
1341.31	1318.06
1342.38	1286.4
1343.46	1293.41
1344.54	1319.83
1345.62	1307.53
1346.69	1312.97
1347.77	1319.17
1348.85	1336.9
1349.92	1314.22
1351	1316.63
1352.08	1301.14
1353.15	1319.86
1354.23	1293.53
1355.3	1300.71
1356.38	1313.95
1357.46	1301.17
1358.53	1285.77
1359.6	1309.56
1360.68	1313.76
1361.75	1287.23
1362.83	1300.12
1363.9	1326.34
1364.98	1287.52
1366.05	1302.98
1367.13	1308.77
1368.2	1334.53
1369.27	1330.33
1370.35	1323.13
1371.42	1309.71
1372.49	1313.65
1373.56	1318.64
1374.64	1317.25
1375.71	1319.32
1376.78	1307.14
1377.85	1328.11
1378.93	1299.05
1380	1285.16
1381.07	1316.23
1382.14	1320.05
1383.21	1325.73
1384.28	1305.04
1385.35	1304.51
1386.43	1291.76
1387.5	1280.98
1388.57	1297.08
1389.64	1311.61
1390.13	1318
1391.2	1318
1392.28	1320
1393.35	1324
1394.43	1298
1395.5	1326
1396.57	1300
1397.65	1312
1398.72	1356
1399.8	1374
1400.87	1328
1401.94	1312
1403.02	1306
1404.09	1316
1405.17	1312
1406.24	1298
1407.31	1282
1408.38	1298
1409.46	1314
1410.53	1310
1411.6	1312
1412.67	1288
1413.74	1318
1414.82	1300
1415.89	1318
1416.96	1286
1418.03	1308
1419.1	1320
1420.17	1230
1421.24	1334
1422.31	1242
1423.38	1260
1424.45	1296
1425.52	1320
1426.59	1286
1427.66	1278
1428.73	1292
1429.8	1280
1430.87	1272
1431.94	1276
1433.01	1284
1434.08	1284
1435.14	1262
1436.21	1316
1437.28	1326
1438.35	1280
1439.42	1248
1440.48	1304
1441.55	1234
1442.62	1292
1443.68	1270
1444.75	1270
1445.82	1294
1446.89	1274
1447.95	1286
1449.02	1256
1450.08	1264
1451.15	1314
1452.22	1288
1453.28	1256
1454.35	1298
1455.41	1254
1456.48	1284
1457.54	1322
1458.61	1292
1459.67	1260
1460.73	1310
1461.8	1262
1462.86	1244
1463.93	1290
1464.99	1242
1466.05	1286
1467.12	1244
1468.18	1304
1469.24	1254
1470.31	1316
1471.37	1304
1472.43	1264
1473.49	1256
1474.56	1292
1475.62	1250
1476.68	1278
1477.74	1322
1478.8	1290
1479.86	1286
1480.93	1262
1481.99	1234
1483.05	1290
1484.11	1290
1485.17	1292
1486.23	1342
1487.29	1276
1488.35	1284
1489.41	1282
1490.47	1302
1491.53	1284
1492.59	1284
1493.65	1276
1494.71	1280
1495.76	1266
1496.82	1268
1497.88	1330
1498.94	1310
1500	1274
1501.06	1294
1502.11	1272
1503.17	1288
1504.23	1288
1505.29	1298
1506.34	1326
1507.4	1224
1508.46	1326
1509.51	1250
1510.57	1282
1511.63	1280
1512.68	1274
1513.74	1302
1514.8	1336
1515.85	1270
1516.91	1210
1517.96	1304
1519.02	1290
1520.07	1284
1521.13	1322
1522.18	1252
1523.24	1294
1524.29	1288
1525.34	1280
1526.4	1278
1527.45	1254
1528.51	1228
1529.56	1294
1530.61	1296
1531.67	1300
1532.72	1300
1533.77	1256
1534.82	1244
1535.88	1292
1536.93	1216
1537.98	1282
1539.03	1262
1540.08	1264
1541.14	1248
1542.19	1242
1543.24	1242
1544.29	1248
1545.34	1240
1546.39	1258
1547.44	1260
1548.49	1248
1549.54	1290
1550.59	1258
1551.64	1270
1552.69	1286
1553.74	1256
1554.79	1250
1555.84	1292
1556.89	1264
1557.94	1242
1558.99	1236
1560.04	1230
1561.09	1280
1562.14	1220
1563.18	1262
1564.23	1244
1565.28	1268
1566.33	1260
1567.37	1234
1568.42	1240
1569.47	1240
1570.52	1244
1571.56	1306
1572.61	1260
1573.66	1230
1574.7	1238
1575.75	1244
1576.79	1260
1577.84	1276
1578.89	1210
1579.93	1286
1580.98	1250
1582.02	1250
1583.07	1288
1584.11	1254
1585.16	1250
1586.2	1252
1587.25	1268
1588.29	1242
1589.34	1268
1590.38	1284
1591.42	1268
1592.47	1262
1593.51	1236
1594.55	1280
1595.6	1212
1596.64	1288
1597.68	1252
1598.72	1204
1599.77	1224
1600.81	1224
1601.85	1280
1602.89	1224
1603.94	1246
1604.98	1280
1606.02	1238
1607.06	1256
1608.1	1206
1609.14	1290
1610.18	1234
1611.22	1260
1612.26	1274
1613.3	1220
1614.34	1250
1615.38	1260
1616.42	1228
1617.46	1218
1618.5	1244
1619.54	1224
1620.58	1246
1621.62	1256
1622.66	1238
1623.7	1252
1624.74	1252
1625.78	1202
1626.81	1228
1627.85	1256
1628.89	1206
1629.93	1234
1630.97	1270
1632	1196
1633.04	1246
1634.08	1194
1635.11	1230
1636.15	1226
1637.19	1182
1638.22	1192
1639.26	1222
1640.3	1242
1641.33	1192
1642.37	1244
1643.4	1254
1644.44	1198
1645.47	1204
1646.51	1176
1647.55	1204
1648.58	1262
1649.61	1188
1650.65	1206
1651.68	1202
1652.72	1204
1653.75	1230
1654.79	1226
1655.82	1228
1656.85	1180
1657.89	1220
1658.92	1184
1659.95	1198
1660.98	1180
1662.02	1206
1663.05	1226
1664.08	1172
1665.12	1192
1666.15	1210
1667.18	1216
1668.21	1186
1669.24	1180
1670.27	1178
1671.3	1152
1672.34	1216
1673.37	1196
1674.4	1188
1675.43	1186
1676.46	1176
1677.49	1166
1678.52	1120
1679.55	1176
1680.58	1136
1681.61	1134
1682.64	1148
1683.67	1144
1684.7	1204
1685.73	1202
1686.75	1186
1687.78	1146
1688.81	1196
1689.84	1128
1690.87	1188
1691.9	1142
1692.93	1108
1693.95	1134
1694.98	1170
1696.01	1124
1697.03	1194
1698.06	1138
1699.09	1158
1700.12	1144
1701.14	1128
1702.17	1156
1703.2	1170
1704.22	1130
1705.25	1138
1706.27	1122
1707.3	1140
1708.32	1126
1709.35	1154
1710.37	1134
1711.4	1148
1712.42	1114
1713.45	1100
1714.47	1108
1715.5	1120
1716.52	1150
1717.55	1112
1718.57	1092
1719.59	1146
1720.62	1100
1721.64	1162
1722.67	1122
1723.69	1104
1724.71	1104
1725.73	1182
1726.76	1076
1727.78	1134
1728.8	1108
1729.82	1098
1730.84	1106
1731.87	1112
1732.89	1098
1733.91	1122
1734.93	1158
1735.95	1102
1736.97	1106
1737.99	1104
1739.01	1078
1740.04	1094
1741.06	1158
1742.08	1106
1743.1	1090
1744.12	1138
1745.14	1100
1746.16	1114
1747.18	1134
1748.19	1114
1749.21	1086
1750.23	1142
1751.25	1084
1752.27	1120
1753.29	1130
1754.31	1100
1755.33	1142
1756.34	1114
1757.36	1102
1758.38	1058
1759.4	1104
1760.41	1094
1761.43	1084
1762.45	1118
1763.47	1116
1764.48	1110
1765.5	1134
1766.51	1114
1767.53	1114
1768.55	1124
1769.56	1132
1770.58	1074
1771.6	1116
1772.61	1090
1773.63	1144
1774.64	1078
1775.66	1122
1776.67	1114
1777.69	1070
1778.7	1110
1779.71	1116
1780.73	1090
1781.74	1058
1782.76	1150
1783.77	1106
1784.78	1082
1785.8	1104
1786.81	1092
1787.82	1078
1788.84	1096
1789.85	1102
1790.86	1094
1791.88	1088
1792.89	1070
1793.9	1136
1794.91	1104
1795.92	1104
1796.94	1140
1797.95	1064
1798.96	1116
1799.97	1120
1800.98	1068
1801.99	1074
1803	1084
1804.01	1138
1805.02	1120
1806.03	1112
1807.04	1070
1808.05	1132
1809.06	1092
1810.07	1114
1811.08	1054
1812.09	1084
1813.1	1084
1814.11	1096
1815.12	1080
1816.13	1098
1817.14	1074
1818.14	1072
1819.15	1022
1820.16	1110
1821.17	1084
1822.18	1086
1823.18	1080
1824.19	1090
1825.2	1086
1826.21	1080
1827.21	1078
1828.22	1062
1829.23	1094
1830.23	1064
1831.24	1038
1832.25	1070
1833.25	1038
1834.26	1072
1835.27	1046
1836.27	1052
1837.28	1094
1838.28	1100
1839.29	1030
1840.29	1054
1841.3	1082
1842.3	1070
1843.31	1086
1844.31	1088
1845.31	1076
1846.32	1062
1847.32	1044
1848.33	1082
1849.33	1062
1850.33	1086
1851.34	1044
1852.34	1062
1853.34	1062
1854.35	1042
1855.35	1070
1856.35	1056
1857.35	1100
1858.36	1028
1859.36	1022
1860.36	1072
1861.36	1048
1862.36	1046
1863.36	1010
1864.36	1074
1865.37	1062
1866.37	1060
1867.37	1024
1868.37	1056
1869.37	1046
1870.37	1076
1871.37	1016
1872.37	1054
1873.37	1062
1874.37	1066
1875.37	1018
1876.37	1086
1877.37	1046
1878.37	1038
1879.37	1068
1880.36	1034
1881.36	1036
1882.36	1048
1883.36	1018
1884.36	1056
1885.36	1054
1886.35	1048
1887.35	1020
1888.35	1054
1889.35	1046
1890.34	1024
1891.34	1052
1892.34	1040
1893.34	1016
1894.33	1018
1895.33	1056
1896.33	1060
1897.32	1022
1898.32	1034
1899.31	1030
1900.31	1024
1901.3	1046
1902.3	1082
1903.3	1022
1904.29	1020
1905.29	1002
1906.28	1048
1907.27	1042
1908.27	1018
1909.26	1034
1910.26	1044
1911.25	1030
1912.25	1050
1913.24	1076
1914.23	1018
1915.23	1022
1916.22	1038
1917.21	1034
1918.21	1006
1919.2	1054
1920.19	1038
1921.18	1038
1922.18	1030
1923.17	1014
1924.16	1024
1925.15	1032
1926.14	1020
1927.14	1058
1928.13	1002
1929.12	1044
1930.11	1044
1931.1	1014
1932.09	1024
1933.08	1008
1934.07	1038
1935.06	1064
1936.05	988
1937.04	1060
1938.03	998
1939.02	1024
1940.01	1026
1941	1020
1941.99	990
1942.98	1000
1943.97	1026
1944.96	1028
1945.95	1006
1946.94	1002
1947.92	1002
1948.91	1062
1949.9	990
1950.89	1032
1951.88	1010
1952.86	1050
1953.85	1014
1954.84	1030
1955.83	1008
1956.81	1018
1957.8	990
1958.79	1000
1959.77	990
1960.76	990
1961.75	1012
1962.73	1000
1963.72	996
1964.7	1010
1965.69	996
1966.68	1022
1967.66	1032
1968.65	1042
1969.63	1030
1970.62	1034
1971.6	986
1972.59	1036
1973.57	992
1974.55	978
1975.54	1020
1976.52	1008
1977.51	1038
1978.49	990
1979.47	1020
1980.46	1010
1981.44	1010
1982.42	1002
1983.41	952
1984.39	1008
1985.37	1004
1986.35	998
1987.34	1014
1988.32	1034
1989.3	988
1990.28	1000
1991.27	980
1992.25	964
1993.23	996
1994.21	996
1995.19	1000
1996.17	1008
1997.15	998
1998.13	992
1999.11	1004
2000.09	976
2001.07	1014
2002.05	1010
2003.03	988
2004.01	994
2004.99	996
2005.97	1024
2006.95	992
2007.93	964
2008.91	1012
2009.89	990
2010.87	1014
2011.85	1006
2012.82	966
2013.8	986
2014.78	978
2015.76	980
2016.74	986
2017.72	946
2018.69	980
2019.67	988
2020.65	1002
2021.62	980
2022.6	998
2023.58	994
2024.55	972
2025.53	974
2026.51	976
2027.48	942
2028.46	966
2029.44	960
2030.41	986
2031.39	1004
2032.36	976
2033.34	948
2034.31	980
2035.29	960
2036.26	950
2037.24	978
2038.21	998
2039.19	984
2040.16	1002
2041.14	964
2042.11	988
2043.08	944
2044.06	992
2045.03	972
2046	992
2046.98	964
2047.95	968
2048.92	944
2049.9	984
2050.87	986
2051.84	942
2052.81	926
2053.79	1002
2054.76	954
2055.73	940
2056.7	994
2057.67	958
2058.64	932
2059.61	970
2060.59	960
2061.56	1028
2062.53	950
2063.5	956
2064.47	958
2065.44	952
2066.41	970
2067.38	950
2068.35	960
2069.32	950
2070.29	988
2071.26	958
2072.23	938
2073.2	898
2074.17	954
2075.14	936
2076.1	970
2077.07	906
2078.04	944
2079.01	988
2079.98	964
2080.95	954
2081.91	926
2082.88	908
2083.85	956
2084.82	954
2085.78	936
2086.75	904
2087.72	918
2088.68	936
2089.65	934
2090.62	938
2091.58	906
2092.55	948
2093.52	952
2094.48	942
2095.45	960
2096.41	934
2097.38	896
2098.35	972
2099.31	908
2100.28	926
2101.24	940
2102.21	930
2103.17	934
2104.14	890
2105.1	916
2106.06	968
2107.03	882
2107.99	954
2108.96	922
2109.92	878
2110.88	930
2111.85	922
2112.81	920
2113.77	946
2114.73	934
2115.7	902
2116.66	904
2117.62	912
2118.58	986
2119.55	918
2120.51	912
2121.47	936
2122.43	922
2123.39	958
2124.36	924
2125.32	928
2126.28	938
2127.24	928
2128.2	928
2129.16	888
2130.12	890
2131.08	904
2132.04	874
2133	944
2133.96	912
2134.92	906
2135.88	898
2136.84	892
2137.8	914
2138.76	928
2139.72	932
2140.68	924
2141.64	908
2142.59	914
2143.55	928
2144.51	916
2145.47	932
2146.43	872
2147.39	902
2148.34	942
2149.3	922
2150.26	898
2151.22	904
2152.17	920
2153.13	914
2154.09	896
2155.04	880
2156	920
2156.96	894
2157.91	908
2158.87	896
2159.82	900
2160.78	892
2161.74	890
2162.69	924
2163.65	866
2164.6	920
2165.56	928
2166.51	918
2167.47	880
2168.42	898
2169.38	910
2170.33	874
2171.29	910
2172.24	924
2173.19	882
2174.15	876
2175.1	872
2176.05	896
2177.01	866
2177.96	904
2178.91	880
2179.87	850
2180.82	898
2181.77	862
2182.73	884
2183.68	872
2184.63	878
2185.58	854
2186.53	862
2187.49	876
2188.44	862
2189.39	920
2190.34	866
2191.29	872
2192.24	852
2193.19	918
2194.14	892
2195.09	904
2196.05	882
2197	856
2197.95	890
2198.9	832
2199.85	862
2200.8	886
2201.75	876
2202.7	882
2203.64	860
2204.59	838
2205.54	824
2206.49	846
2207.44	860
2208.39	840
2209.34	846
2210.29	850
2211.23	838
2212.18	864
2213.13	868
2214.08	878
2215.03	842
2215.97	888
2216.92	846
2217.87	866
2218.81	854
2219.76	872.138
2220.71	865.978
2221.66	856.211
2222.6	863.895
2223.55	875.486
2224.49	873.192
2225.44	844.631
2226.39	859.809
2227.33	838.037
2228.28	850.476
2229.22	861.505
2230.17	834.329
2231.11	869.001
2232.06	837.985
2233	890.518
2233.95	879.56
2234.89	869.444
2235.84	847.644
2236.78	862.713
2237.73	846.113
2238.67	841.81
2239.61	844.992
2240.56	839.359
2241.5	852.519
2242.45	860.793
2243.39	845.203
2244.33	868.173
2245.28	862.569
2246.22	838.095
2247.16	856.782
2248.1	869.443
2249.05	866.476
2249.99	825.416
2250.93	849.53
2251.87	832.787
2252.81	839.96
2253.76	866.037
2254.7	852.79
2255.64	861.781
2256.58	843.778
2257.52	837.717
2258.46	866.218
2259.4	884.253
2260.34	839.597
2261.28	856.89
2262.23	861.911
2263.17	847.988
2264.11	838.404
2265.05	822.036
2265.99	850.445
2266.93	856
2267.87	858.168
2268.8	853.46
2269.74	857.518
2270.68	859.961
2271.62	858.653
2272.56	849.736
2273.5	846.441
2274.44	843.22
2275.38	848
2276.32	835.07
2277.25	834.85
2278.19	843.758
2279.13	841.14
2280.07	849.967
2281.01	810.562
2281.94	847.36
2282.88	844.099
2283.82	834.58
2284.76	832.277
2285.69	824.778
2286.63	847.171
2287.57	847.246
2288.5	841.469
2289.44	827.48
2290.37	855.654
2291.31	845.61
2292.25	827.618
2293.18	849.043
2294.12	851.2
2295.05	838.788
2295.99	840.211
2296.92	852.626
2297.86	851.858
2298.79	847.906
2299.73	837.087
2300.66	817.073
2301.6	849.506
2302.53	825.034
2303.47	841.844
2304.4	853.242
2305.34	826.331
2306.27	875.078
2307.2	862.064
2308.14	834.151
2309.07	830.347
2310	862.833
2310.94	854.991
2311.87	824.61
2312.8	830.393
2313.74	803.63
2313.98	792
2314.92	822
2315.86	820
2316.79	820
2317.73	862
2318.67	830
2319.6	890
2320.54	858
2321.48	864
2322.41	824
2323.35	844
2324.29	848
2325.22	836
2326.16	864
2327.09	846
2328.03	808
2328.96	854
2329.9	822
2330.83	800
2331.77	786
2332.7	790
2333.64	852
2334.57	870
2335.51	816
2336.44	844
2337.38	808
2338.31	858
2339.24	846
2340.18	830
2341.11	814
2342.04	832
2342.98	846
2343.91	830
2344.84	832
2345.78	842
2346.71	840
2347.64	834
2348.57	838
2349.51	822
2350.44	860
2351.37	812
2352.3	838
2353.24	810
2354.17	814
2355.1	852
2356.03	810
2356.96	852
2357.89	776
2358.82	844
2359.75	812
2360.68	830
2361.62	818
2362.55	856
2363.48	804
2364.41	830
2365.34	826
2366.27	866
2367.2	820
2368.13	794
2369.05	800
2369.98	804
2370.91	834
2371.84	818
2372.77	804
2373.7	842
2374.63	824
2375.56	824
2376.49	828
2377.41	804
2378.34	790
2379.27	790
2380.2	822
2381.12	834
2382.05	796
2382.98	802
2383.91	822
2384.83	830
2385.76	828
2386.69	778
2387.61	840
2388.54	842
2389.47	814
2390.39	804
2391.32	810
2392.25	804
2393.17	792
2394.1	796
2395.02	790
2395.95	800
2396.87	798
2397.8	780
2398.72	818
2399.65	828
2400.57	816
2401.5	824
2402.42	788
2403.35	798
2404.27	814
2405.2	822
2406.12	786
2407.04	822
2407.97	796
2408.89	810
2409.81	792
2410.74	812
2411.66	792
2412.58	802
2413.51	816
2414.43	790
2415.35	770
2416.27	832
2417.2	798
2418.12	780
2419.04	772
2419.96	800
2420.88	810
2421.81	810
2422.73	802
2423.65	796
2424.57	780
2425.49	780
2426.41	812
2427.33	792
2428.25	844
2429.17	832
2430.1	768
2431.02	780
2431.94	800
2432.85	822
2433.77	798
2434.7	754
2435.61	752
2436.53	824
2437.45	786
2438.37	788
2439.29	796
2440.21	772
2441.13	812
2442.05	780
2442.97	800
2443.88	788
2444.8	822
2445.72	774
2446.64	786
2447.56	776
2448.47	802
2449.39	786
2450.31	796
2451.23	798
2452.14	772
2453.06	750
2453.98	788
2454.89	800
2455.81	774
2456.73	774
2457.64	796
2458.56	776
2459.48	762
2460.39	780
2461.31	772
2462.22	780
2463.14	770
2464.05	734
2464.97	794
2465.88	778
2466.8	782
2467.71	796
2468.63	770
2469.54	748
2470.46	726
2471.37	780
2472.29	754
2473.2	788
2474.11	824
2475.03	772
2475.94	764
2476.86	768
2477.77	762
2478.68	746
2479.59	772
2480.51	762
2481.42	810
2482.33	792
2483.25	752
2484.16	764
2485.07	764
2485.98	758
2486.9	756
2487.81	764
2488.72	762
2489.63	758
2490.54	786
2491.45	762
2492.36	730
2493.28	790
2494.19	770
2495.1	772
2496.01	784
2496.92	752
2497.83	760
2498.74	694
2499.65	750
2500.56	788
2501.47	770
2502.38	782
2503.29	736
2504.2	756
2505.11	748
2506.02	756
2506.93	762
2507.83	748
2508.74	760
2509.65	786
2510.56	760
2511.47	770
2512.38	736
2513.29	778
2514.19	750
2515.1	760
2516.01	766
2516.92	768
2517.82	736
2518.73	772
2519.64	720
2520.55	770
2521.45	760
2522.36	786
2523.27	762
2524.17	764
2525.08	766
2525.99	766
2526.89	750
2527.8	764
2528.7	788
2529.61	732
2530.51	786
2531.42	726
2532.33	756
2533.23	732
2534.14	764
2535.04	736
2535.95	754
2536.85	722
2537.75	736
2538.66	744
2539.56	764
2540.47	744
2541.37	726
2542.28	768
2543.18	774
2544.08	766
2544.99	744
2545.89	774
2546.79	732
2547.7	736
2548.6	748
2549.5	734
2550.4	716
2551.31	774
2552.21	746
2553.11	760
2554.01	734
2554.92	720
2555.82	730
2556.72	718
2557.62	736
2558.52	716
2559.42	746
2560.32	722
2561.23	746
2562.13	740
2563.03	700
2563.93	704
2564.83	752
2565.73	764
2566.63	752
2567.53	740
2568.43	736
2569.33	742
2570.23	710
2571.13	740
2572.03	728
2572.93	730
2573.83	724
2574.73	740
2575.63	720
2576.52	712
2577.42	738
2578.32	738
2579.22	718
2580.12	732
2581.02	760
2581.91	748
2582.81	740
2583.71	716
2584.61	730
2585.51	748
2586.4	718
2587.3	718
2588.2	718
2589.09	696
2589.99	722
2590.89	716
2591.78	706
2592.68	688
2593.58	722
2594.47	700
2595.37	704
2596.26	738
2597.16	710
2598.06	736
2598.95	722
2599.85	702
2600.74	726
2601.64	708
2602.53	710
2603.43	714
2604.32	720
2605.22	718
2606.11	688
2607.01	700
2607.9	716
2608.79	728
2609.69	732
2610.58	704
2611.48	702
2612.37	708
2613.26	730
2614.16	710
2615.05	684
2615.94	734
2616.84	728
2617.73	722
2618.62	700
2619.51	690
2620.41	702
2621.3	690
2622.19	694
2623.08	730
2623.97	682
2624.87	692
2625.76	688
2626.65	722
2627.54	684
2628.43	716
2629.32	706
2630.21	692
2631.1	678
2631.99	686
2632.89	704
2633.78	726
2634.67	686
2635.56	710
2636.45	684
2637.34	686
2638.23	688
2639.12	694
2640.01	696
2640.9	674
2641.78	712
2642.67	690
2643.56	690
2644.45	666
2645.34	676
2646.23	702
2647.12	682
2648.01	676
2648.89	724
2649.78	682
2650.67	658
2651.56	680
2652.45	660
2653.33	680
2654.22	684
2655.11	706
2656	686
2656.88	664
2657.77	678
2658.66	668
2659.54	716
2660.43	658
2661.32	682
2662.2	700
2663.09	672
2663.97	676
2664.86	680
2665.75	656
2666.63	680
2667.52	678
2668.4	692
2669.29	680
2670.17	708
2671.06	714
2671.94	656
2672.83	664
2673.71	660
2674.6	678
2675.48	678
2676.37	666
2677.25	690
2678.13	688
2679.02	694
2679.9	698
2680.78	708
2681.67	694
2682.55	690
2683.43	660
2684.32	694
2685.2	672
2686.08	646
2686.97	666
2687.85	658
2688.73	648
2689.61	678
2690.5	666
2691.38	666
2692.26	642
2693.14	678
2694.02	690
2694.9	670
2695.79	692
2696.67	656
2697.55	676
2698.43	656
2699.31	666
2700.19	692
2701.07	692
2701.95	652
2702.83	662
2703.71	672
2704.59	666
2705.47	672
2706.35	678
2707.23	646
2708.11	654
2708.99	664
2709.87	628
2710.75	656
2711.63	672
2712.51	658
2713.39	640
2714.27	644
2715.14	706
2716.02	664
2716.9	666
2717.78	658
2718.66	664
2719.54	650
2720.41	656
2721.29	656
2722.17	660
2723.05	628
2723.92	664
2724.8	662
2725.68	648
2726.55	642
2727.43	656
2728.31	644
2729.18	652
2730.06	646
2730.94	646
2731.81	644
2732.69	670
2733.57	642
2734.44	636
2735.32	616
2736.19	634
2737.07	628
2737.94	634
2738.82	626
2739.69	654
2740.57	652
2741.44	646
2742.32	618
2743.19	624
2744.07	648
2744.94	666
2745.81	624
2746.69	644
2747.56	674
2748.44	642
2749.31	640
2750.18	622
2751.06	656
2751.93	632
2752.8	688
2753.68	624
2754.55	644
2755.42	648
2756.29	632
2757.17	656
2758.04	644
2758.91	656
2759.78	626
2760.65	640
2761.53	610
2762.4	632
2763.27	646
2764.14	628
2765.01	630
2765.88	598
2766.76	622
2767.63	612
2768.5	616
2769.37	620
2770.24	624
2771.11	634
2771.98	642
2772.85	600
2773.72	610
2774.59	620
2775.46	606
2776.33	606
2777.2	622
2778.07	644
2778.94	610
2779.81	614
2780.67	646
2781.54	606
2782.41	628
2783.28	632
2784.15	612
2785.02	638
2785.89	624
2786.75	600
2787.62	638
2788.49	630
2789.36	604
2790.23	630
2791.09	630
2791.96	626
2792.83	634
2793.7	584
2794.56	612
2795.43	592
2796.3	594
2797.16	592
2798.03	620
2798.9	610
2799.76	624
2800.63	618
2801.49	630
2802.36	610
2803.23	616
2804.09	620
2804.96	634
2805.82	618
2806.69	598
2807.55	624
2808.42	588
2809.28	576
2810.15	586
2811.01	600
2811.88	634
2812.74	626
2813.61	588
2814.47	614
2815.33	606
2816.2	632
2817.06	598
2817.93	588
2818.79	618
2819.65	632
2820.52	610
2821.38	586
2822.24	592
2823.11	592
2823.97	600
2824.83	610
2825.69	608
2826.55	602
2827.42	606
2828.28	612
2829.14	586
2830	624
2830.87	598
2831.73	612
2832.59	596
2833.45	590
2834.31	598
2835.17	598
2836.03	592
2836.89	548
2837.76	600
2838.62	580
2839.48	612
2840.34	604
2841.2	604
2842.06	618
2842.92	574
2843.78	568
2844.64	614
2845.5	566
2846.36	566
2847.22	586
2848.07	578
2848.93	584
2849.79	572
2850.65	596
2851.51	616
2852.37	602
2853.23	556
2854.09	578
2854.95	612
2855.8	598
2856.66	576
2857.52	566
2858.38	560
2859.24	578
2860.09	562
2860.95	570
2861.81	582
2862.66	548
2863.52	584
2864.38	570
2865.24	594
2866.09	562
2866.95	554
2867.81	584
2868.66	572
2869.52	556
2870.37	556
2871.23	556
2872.09	584
2872.94	556
2873.8	584
2874.65	566
2875.51	580
2876.36	546
2877.22	576
2878.07	592
2878.93	586
2879.78	536
2880.64	558
2881.49	578
2882.35	548
2883.2	550
2884.05	578
2884.91	554
2885.76	554
2886.62	562
2887.47	584
2888.32	574
2889.18	536
2890.03	558
2890.88	578
2891.74	572
2892.59	536
2893.44	556
2894.29	554
2895.15	538
2896	582
2896.85	556
2897.7	556
2898.55	542
2899.41	564
2900.26	550
2901.11	576
2901.96	564
2902.81	572
2903.66	558
2904.52	570
2905.37	540
2906.22	554
2907.07	552
2907.92	538
2908.77	520
2909.62	554
2910.47	560
2911.32	558
2912.17	544
2913.02	564
2913.87	546
2914.72	542
2915.57	556
2916.42	558
2917.27	506
2918.12	572
2918.97	544
2919.82	566
2920.66	532
2921.51	584
2922.36	562
2923.21	552
2924.06	574
2924.91	562
2925.75	536
2926.6	548
2927.45	540
2928.3	542
2929.15	538
2929.99	542
2930.84	532
2931.69	538
2932.54	554
2933.38	554
2934.23	556
2935.08	544
2935.92	512
2936.77	552
2937.62	562
2938.46	568
2939.31	548
2940.15	550
2941	532
2941.85	520
2942.69	516
2943.54	518
2944.38	528
2945.23	546
2946.07	526
2946.92	526
2947.76	554
2948.61	526
2949.45	544
2950.3	530
2951.14	524
2951.99	536
2952.83	514
2953.67	520
2954.52	518
2955.36	530
2956.21	550
2957.05	552
2957.89	520
2958.74	562
2959.58	528
2960.42	548
2961.27	548
2962.11	536
2962.95	542
2963.79	552
2964.64	520
2965.48	522
2966.32	516
2967.16	532
2968.01	528
2968.85	526
2969.69	516
2970.53	518
2971.37	524
2972.21	522
2973.05	510
2973.9	530
2974.74	532
2975.58	530
2976.42	516
2977.26	532
2978.1	548
2978.94	528
2979.78	494
2980.62	522
2981.46	532
2982.3	520
2983.14	514
2983.98	512
2984.82	518
2985.66	532
2986.5	502
2987.34	526
2988.18	516
2989.02	524
2989.86	514
2990.69	524
2991.53	546
2992.37	520
2993.21	502
2994.05	480
2994.89	514
2995.72	488
2996.56	488
2997.4	504
2998.24	476
2999.08	510
2999.91	502
3000.75	484
3001.59	484
3002.43	480
3003.26	520
3004.1	500
3004.94	476
3005.77	528
3006.61	490
3007.45	508
3008.28	494
3009.12	504
3009.95	496
3010.79	496
3011.63	496
3012.46	508
3013.3	470
3014.13	498
3014.97	496
3015.8	490
3016.64	494
3017.47	502
3018.31	494
3019.14	508
3019.98	492
3020.81	462
3021.65	504
3022.48	492
3023.31	486
3024.15	496
3024.98	510
3025.82	492
3026.65	492
3027.48	512
3028.32	494
3029.15	476
3029.98	478
3030.82	488
3031.65	484
3032.48	490
3033.31	490
3034.15	484
3034.98	498
3035.81	502
3036.64	502
3037.48	470
3038.31	494
3039.14	476
3039.97	512
3040.8	493.811
3041.63	505.509
3042.47	452.76
3043.3	497.616
3044.13	480.767
3044.96	489.37
3045.79	505.134
3046.62	480.933
3047.45	487.7
3048.28	486.608
3049.11	492.143
3049.94	453.027
3050.77	457.849
3051.6	494.623
3052.43	469.161
3053.26	484.08
3054.09	497.696
3054.92	477.988
3055.75	474.902
3056.58	491.365
3057.41	467.169
3058.24	464.695
3059.07	495.344
3059.9	470.604
3060.73	459.84
3061.55	467.008
3062.38	469.36
3063.21	467.228
3064.04	476.863
3064.87	471.944
3065.7	476.789
3066.52	480.326
3067.35	461.595
3068.18	475.275
3069.01	462.777
3069.83	471.817
3070.66	453.106
3071.49	471.839
3072.32	458.715
3073.14	458.087
3073.97	470.828
3074.8	465.591
3075.62	453.277
3076.45	465.07
3077.28	469.286
3078.1	470.267
3078.93	454.703
3079.75	450.873
3080.58	464.006
3081.41	459.216
3082.23	475.521
3083.06	460.397
3083.88	450.217
3084.71	463.29
3085.53	457.91
3086.36	446.917
3087.18	464.902
3088.01	468.47
3088.83	465.19
3089.66	449.455
3090.48	435.095
3091.31	458.938
3092.13	461.046
3092.96	464.807
3093.78	447.057
3094.6	441.791
3095.43	451.924
3096.25	450.104
3097.07	458.09
3097.9	463.592
3098.72	455.29
3099.54	454.579
3100.37	448.797
3101.19	451.299
3102.01	450.984
3102.84	449.345
3103.66	445.176
3104.48	424.304
3105.3	419.46
3106.13	436.913
3106.95	440.529
3107.77	442.042
3108.59	429.56
3109.41	424.354
3110.24	433.47
3111.06	434.856
3111.88	419.273
3112.7	418.713
3113.52	431.081
3114.34	428.676
3115.16	421.873
3115.98	421.115
3116.81	437.066
3117.63	434.15
3118.45	439.792
3119.27	434.851
3120.09	440.795
3120.91	436.274
3121.73	414.627
3122.55	415.102
3123.37	422.368
3123.73	424
3124.56	426
3125.38	440
3126.21	440
3127.03	420
3127.85	426
3128.68	414
3129.5	412
3130.32	416
3131.15	426
3131.97	414
3132.79	468
3133.62	438
3134.44	430
3135.26	442
3136.08	422
3136.91	418
3137.73	428
3138.55	426
3139.37	424
3140.19	414
3141.02	442
3141.84	426
3142.66	434
3143.48	422
3144.3	412
3145.13	422
3145.95	436
3146.77	404
3147.59	408
3148.41	408
3149.23	432
3150.05	424
3150.87	432
3151.69	398
3152.51	402
3153.33	410
3154.15	424
3154.97	390
3155.79	404
3156.61	416
3157.43	396
3158.25	428
3159.07	416
3159.89	404
3160.71	422
3161.53	396
3162.35	404
3163.17	426
3163.98	418
3164.8	414
3165.62	438
3166.44	400
3167.26	436
3168.08	414
3168.89	418
3169.71	416
3170.53	380
3171.35	400
3172.17	416
3172.98	422
3173.8	410
3174.62	398
3175.43	404
3176.25	430
3177.07	406
3177.89	416
3178.7	388
3179.52	396
3180.33	410
3181.15	412
3181.97	408
3182.78	402
3183.6	392
3184.41	428
3185.23	396
3186.05	380
3186.86	410
3187.68	394
3188.49	390
3189.31	440
3190.12	416
3190.94	398
3191.75	422
3192.57	370
3193.38	396
3194.2	432
3195.01	406
3195.82	404
3196.64	432
3197.45	380
3198.27	416
3199.08	402
3199.89	410
3200.71	394
3201.52	416
3202.33	388
3203.15	402
3203.96	400
3204.77	412
3205.59	378
3206.4	404
3207.21	404
3208.02	414
3208.84	392
3209.65	390
3210.46	406
3211.27	414
3212.09	392
3212.9	394
3213.71	394
3214.52	384
3215.33	400
3216.14	378
3216.96	396
3217.77	410
3218.58	426
3219.39	384
3220.2	420
3221.01	394
3221.82	394
3222.63	378
3223.44	406
3224.25	390
3225.06	412
3225.87	388
3226.68	382
3227.49	392
3228.3	402
3229.11	402
3229.92	406
3230.73	396
3231.54	386
3232.35	382
3233.16	400
3233.97	394
3234.77	376
3235.58	410
3236.39	356
3237.2	402
3238.01	404
3238.82	404
3239.63	370
3240.43	392
3241.24	388
3242.05	400
3242.86	388
3243.66	394
3244.47	410
3245.28	382
3246.09	352
3246.89	382
3247.7	376
3248.51	390
3249.31	372
3250.12	376
3250.93	382
3251.73	400
3252.54	408
3253.35	380
3254.15	378
3254.96	350
3255.76	394
3256.57	384
3257.38	400
3258.18	368
3258.99	366
3259.79	382
3260.6	394
3261.4	368
3262.21	366
3263.01	388
3263.82	382
3264.62	406
3265.43	360
3266.23	388
3267.04	380
3267.84	374
3268.64	386
3269.45	386
3270.25	382
3271.06	374
3271.86	392
3272.66	380
3273.47	374
3274.27	380
3275.07	368
3275.88	374
3276.68	358
3277.48	382
3278.28	366
3279.09	376
3279.89	366
3280.69	358
3281.49	374
3282.3	368
3283.1	372
3283.9	396
3284.7	376
3285.5	374
3286.31	374
3287.11	360
3287.91	352
3288.71	386
3289.51	362
3290.31	374
3291.11	354
3291.91	364
3292.71	382
3293.51	360
3294.31	352
3295.12	358
3295.92	362
3296.72	366
3297.52	362
3298.32	368
3299.12	384
3299.92	356
3300.72	366
3301.51	380
3302.31	378
3303.11	382
3303.91	372
3304.71	360
3305.51	352
3306.31	386
3307.11	334
3307.91	364
3308.71	404
3309.5	358
3310.3	370
3311.1	338
3311.9	364
3312.7	350
3313.49	360
3314.29	364
3315.09	362
3315.89	374
3316.69	336
3317.48	354
3318.28	342
3319.08	340
3319.87	354
3320.67	370
3321.47	350
3322.26	370
3323.06	348
3323.86	350
3324.65	374
3325.45	388
3326.25	330
3327.04	346
3327.84	358
3328.63	340
3329.43	348
3330.22	326
3331.02	344
3331.81	348
3332.61	352
3333.4	346
3334.2	362
3334.99	360
3335.79	352
3336.58	374
3337.38	340
3338.17	352
3338.97	362
3339.76	374
3340.56	356
3341.35	370
3342.14	356
3342.94	352
3343.73	346
3344.52	374
3345.32	370
3346.11	360
3346.9	334
3347.7	360
3348.49	326
3349.28	348
3350.08	366
3350.87	322
3351.66	328
3352.45	364
3353.25	326
3354.04	350
3354.83	336
3355.62	342
3356.41	344
3357.21	334
3358	348
3358.79	352
3359.58	342
3360.37	336
3361.16	350
3361.95	350
3362.75	336
3363.54	354
3364.33	352
3365.12	354
3365.91	356
3366.7	338
3367.49	364
3368.28	332
3369.07	336
3369.86	344
3370.65	358
3371.44	360
3372.23	334
3373.02	350
3373.81	358
3374.6	332
3375.39	336
3376.18	342
3376.97	342
3377.75	360
3378.54	348
3379.33	348
3380.12	334
3380.91	326
3381.7	334
3382.49	326
3383.27	346
3384.06	340
3384.85	348
3385.64	346
3386.43	346
3387.21	324
3388	332
3388.79	334
3389.58	350
3390.36	340
3391.15	360
3391.94	336
3392.72	330
3393.51	330
3394.3	342
3395.08	346
3395.87	334
3396.66	360
3397.44	318
3398.23	336
3399.01	338
3399.8	320
3400.59	350
3401.37	344
3402.16	342
3402.94	332
3403.73	310
3404.51	342
3405.3	334
3406.08	326
3406.87	328
3407.65	338
3408.44	332
3409.22	328
3410.01	330
3410.79	342
3411.58	316
3412.36	326
3413.14	338
3413.93	340
3414.71	332
3415.5	348
3416.28	324
3417.06	334
3417.85	306
3418.63	322
3419.41	322
3420.2	318
3420.98	326
3421.76	336
3422.54	318
3423.33	330
3424.11	338
3424.89	310
3425.67	308
3426.46	336
3427.24	314
3428.02	310
3428.8	336
3429.58	322
3430.36	318
3431.15	306
3431.93	302
3432.71	338
3433.49	308
3434.27	338
3435.05	310
3435.83	328
3436.61	308
3437.4	342
3438.18	324
3438.96	310
3439.74	302
3440.52	340
3441.3	320
3442.08	306
3442.86	302
3443.64	344
3444.42	342
3445.2	314
3445.98	306
3446.76	330
3447.53	298
3448.31	314
3449.09	298
3449.87	316
3450.65	308
3451.43	320
3452.21	312
3452.99	342
3453.77	332
3454.54	318
3455.32	308
3456.1	330
3456.88	320
3457.66	344
3458.43	314
3459.21	300
3459.99	320
3460.77	318
3461.54	318
3462.32	286
3463.1	310
3463.88	292
3464.65	314
3465.43	296
3466.21	314
3466.98	332
3467.76	298
3468.53	304
3469.31	326
3470.09	314
3470.86	324
3471.64	316
3472.42	310
3473.19	308
3473.97	306
3474.74	280
3475.52	304
3476.29	286
3477.07	332
3477.84	318
3478.62	312
3479.39	304
3480.17	334
3480.94	306
3481.72	314
3482.49	314
3483.27	314
3484.04	308
3484.82	302
3485.59	318
3486.36	318
3487.14	330
3487.91	276
3488.68	312
3489.46	308
3490.23	300
3491	294
3491.78	304
3492.55	308
3493.32	326
3494.1	298
3494.87	298
3495.64	312
3496.42	298
3497.19	314
3497.96	328
3498.73	304
3499.5	300
3500.28	314
3501.05	298
3501.82	308
3502.59	312
3503.36	316
3504.14	310
3504.91	316
3505.68	318
3506.45	304
3507.22	306
3507.99	304
3508.76	334
3509.53	288
3510.3	308
3511.07	300
3511.84	328
3512.61	290
3513.38	308
3514.16	292
3514.92	296
3515.7	314
3516.46	300
3517.23	306
3518	290
3518.77	310
3519.54	312
3520.31	280
3521.08	294
3521.85	308
3522.62	286
3523.39	292
3524.16	310
3524.93	322
3525.69	290
3526.46	302
3527.23	308
3528	316
3528.77	300
3529.53	290
3530.3	304
3531.07	288
3531.84	290
3532.61	300
3533.37	298
3534.14	312
3534.91	286
3535.68	298
3536.44	310
3537.21	292
3537.98	290
3538.74	280
3539.51	312
3540.28	306
3541.04	306
3541.81	292
3542.58	320
3543.34	300
3544.11	290
3544.87	278
3545.64	304
3546.4	296
3547.17	276
3547.94	306
3548.7	282
3549.47	304
3550.23	312
3551	296
3551.76	294
3552.53	302
3553.29	318
3554.06	302
3554.82	290
3555.59	296
3556.35	284
3557.11	278
3557.88	306
3558.64	290
3559.41	286
3560.17	300
3560.93	290
3561.7	286
3562.46	282
3563.22	300
3563.99	282
3564.75	284
3565.51	274
3566.28	286
3567.04	298
3567.8	294
3568.56	280
3569.33	284
3570.09	304
3570.85	288
3571.61	304
3572.38	282
3573.14	296
3573.9	284
3574.66	284
3575.42	292
3576.19	282
3576.95	304
3577.71	274
3578.47	276
3579.23	286
3579.99	286
3580.75	308
3581.51	274
3582.28	276
3583.04	294
3583.8	290
3584.56	298
3585.32	276
3586.08	280
3586.84	284
3587.6	282
3588.36	304
3589.12	288
3589.88	296
3590.64	274
3591.4	296
3592.16	280
3592.92	296
3593.67	276
3594.43	300
3595.19	288
3595.95	276
3596.71	280
3597.47	284
3598.23	282
3598.99	304
3599.75	272
3600.5	260
3601.26	270
3602.02	294
3602.78	302
3603.54	290
3604.29	268
3605.05	286
3605.81	292
3606.57	266
3607.32	260
3608.08	274
3608.84	292
3609.59	288
3610.35	278
3611.11	270
3611.87	278
3612.62	266
3613.38	284
3614.13	278
3614.89	272
3615.65	268
3616.4	296
3617.16	262
3617.92	284
3618.67	282
3619.43	268
3620.18	282
3620.94	268
3621.69	274
3622.45	258
3623.2	280
3623.96	278
3624.71	262
3625.47	276
3626.22	272
3626.98	266
3627.73	300
3628.49	272
3629.24	270
3630	290
3630.75	272
3631.5	276
3632.26	266
3633.01	290
3633.77	278
3634.52	268
3635.27	284
3636.03	266
3636.78	282
3637.53	276
3638.29	254
3639.04	274
3639.79	274
3640.55	258
3641.3	264
3642.05	280
3642.8	254
3643.56	260
3644.31	264
3645.06	284
3645.81	256
3646.56	290
3647.32	258
3648.07	272
3648.82	250
3649.57	250
3650.32	264
3651.07	276
3651.83	272
3652.58	266
3653.33	258
3654.08	280
3654.83	244
3655.58	260
3656.33	276
3657.08	262
3657.83	258
3658.58	250
3659.33	262
3660.08	274
3660.83	262
3661.58	262
3662.33	266
3663.08	258
3663.83	294
3664.58	272
3665.33	270
3666.08	266
3666.83	266
3667.58	280
3668.33	266
3669.08	252
3669.83	262
3670.57	272
3671.32	268
3672.07	270
3672.82	254
3673.57	276
3674.32	252
3675.07	266
3675.81	280
3676.56	266
3677.31	262
3678.06	280
3678.8	264
3679.55	254
3680.3	264
3681.05	256
3681.79	268
3682.54	260
3683.29	278
3684.04	260
3684.78	250
3685.53	260
3686.28	270
3687.02	250
3687.77	264
3688.51	264
3689.26	254
3690.01	262
3690.75	262
3691.5	300
3692.24	268
3692.99	262
3693.74	246
3694.48	262
3695.23	260
3695.97	272
3696.72	268
3697.46	254
3698.21	272
3698.95	268
3699.7	268
3700.44	262
3701.19	256
3701.93	254
3702.68	270
3703.42	264
3704.16	234
3704.91	248
3705.65	258
3706.4	254
3707.14	266
3707.88	262
3708.63	276
3709.37	246
3710.11	242
3710.86	256
3711.6	232
3712.34	260
3713.09	240
3713.83	252
3714.57	252
3715.31	250
3716.06	258
3716.8	264
3717.54	266
3718.28	258
3719.03	250
3719.77	250
3720.51	254
3721.25	246
3721.99	252
3722.74	242
3723.48	254
3724.22	270
3724.96	246
3725.7	252
3726.44	236
3727.18	254
3727.92	248
3728.67	244
3729.41	248
3730.15	236
3730.89	252
3731.63	238
3732.37	244
3733.11	236
3733.85	244
3734.59	256
3735.33	254
3736.07	264
3736.81	260
3737.55	246
3738.29	250
3739.03	258
3739.77	244
3740.51	240
3741.24	250
3741.98	268
3742.72	256
3743.46	262
3744.2	262
3744.94	238
3745.68	238
3746.42	264
3747.15	230
3747.89	248
3748.63	244
3749.37	242
3750.11	248
3750.84	258
3751.58	240
3752.32	238
3753.06	260
3753.79	240
3754.53	260
3755.27	260
3756.01	252
3756.74	244
3757.48	252
3758.22	234
3758.95	230
3759.69	256
3760.43	240
3761.16	258
3761.9	258
3762.64	268
3763.37	234.117
3764.11	271.728
3764.84	267.238
3765.58	253.564
3766.32	246.709
3767.05	240.771
3767.79	232.38
3768.52	275.229
3769.26	239.547
3769.99	234.422
3770.73	253.775
3771.46	241.429
3772.2	247.722
3772.93	234.754
3773.67	248.509
3774.4	225.549
3775.14	240.523
3775.87	209.838
3776.61	248.433
3777.34	221.909
3778.07	242.003
3778.81	235.066
3779.54	238.586
3780.28	242.789
3781.01	250.194
3781.74	223.502
3782.48	236.303
3783.21	241.949
3783.94	244.899
3784.68	235.469
3785.41	239.952
3786.14	247.659
3786.88	257.494
3787.61	259.979
3788.34	234.309
3789.07	239.346
3789.81	249.304
3790.54	241.516
3791.27	254.953
3792	246.31
3792.74	254.842
3793.47	243.331
3794.2	244.3
3794.93	235.494
3795.66	230.244
3796.4	236.703
3797.13	243.59
3797.86	249.985
3798.59	223.551
3799.32	235.737
3800.05	227.24
3800.78	240.496
3801.52	234.733
3802.25	249.652
3802.98	244.025
3803.71	229.746
3804.44	228.764
3805.17	238.92
3805.9	243.73
3806.63	239.142
3807.36	242.79
3808.09	249.656
3808.82	237.376
3809.55	241.18
3810.28	239.479
3811.01	248.071
3811.74	243.395
3812.47	240.036
3813.2	242.673
3813.93	233.043
3814.66	236.594
3815.38	231.662
3816.11	239.449
3816.84	230.559
3817.57	235.861
3818.3	245.976
3819.03	246.82
3819.76	238.372
3820.49	235.037
3821.21	234.855
3821.94	237.635
3822.67	237.028
3823.4	239.024
3824.13	227.612
3824.85	222.221
3825.58	232.861
3826.31	228.276
3827.04	221.863
3827.77	237.984
3828.49	247.969
3829.22	239.06
3829.95	240.41
3830.67	216.767
3831.4	240.226
3832.13	253.726
3832.85	237.782
3833.58	230.301
3834.31	240.152
3835.03	218.956
3835.76	217.603
3836.49	220.291
3837.21	221.767
3837.94	230.895
3838.52	242
3839.25	230
3839.98	238
3840.71	228
3841.44	246
3842.17	232
3842.9	238
3843.63	234
3844.36	232
3845.09	226
3845.82	228
3846.55	234
3847.28	228
3848	208
3848.73	252
3849.46	232
3850.19	218
3850.92	246
3851.65	228
3852.38	218
3853.1	216
3853.83	228
3854.56	246
3855.29	212
3856.02	218
3856.74	228
3857.47	236
3858.2	226
3858.93	224
3859.65	228
3860.38	224
3861.11	238
3861.84	228
3862.56	222
3863.29	230
3864.02	230
3864.74	224
3865.47	226
3866.2	228
3866.92	226
3867.65	236
3868.38	230
3869.1	238
3869.83	228
3870.55	238
3871.28	222
3872.01	232
3872.73	214
3873.46	236
3874.18	234
3874.91	228
3875.63	226
3876.36	230
3877.08	226
3877.81	228
3878.53	208
3879.26	218
3879.98	224
3880.71	216
3881.43	220
3882.16	212
3882.88	240
3883.6	248
3884.33	228
3885.05	230
3885.78	224
3886.5	222
3887.22	220
3887.95	230
3888.67	222
3889.4	216
3890.12	212
3890.84	210
3891.57	232
3892.29	218
3893.01	202
3893.73	222
3894.46	230
3895.18	228
3895.9	244
3896.63	218
3897.35	220
3898.07	222
3898.79	232
3899.51	232
3900.24	224
3900.96	226
3901.68	216
3902.4	236
3903.12	220
3903.84	220
3904.57	236
3905.29	220
3906.01	226
3906.73	206
3907.45	238
3908.17	234
3908.89	210
3909.61	206
3910.33	218
3911.06	232
3911.78	238
3912.5	214
3913.22	234
3913.94	226
3914.66	228
3915.38	236
3916.1	220
3916.82	234
3917.54	232
3918.26	222
3918.98	210
3919.69	220
3920.41	226
3921.13	210
3921.85	220
3922.57	226
3923.29	210
3924.01	228
3924.73	236
3925.45	218
3926.17	204
3926.88	214
3927.6	224
3928.32	220
3929.04	226
3929.76	216
3930.47	200
3931.19	228
3931.91	224
3932.63	220
3933.35	226
3934.06	220
3934.78	228
3935.5	214
3936.22	212
3936.93	214
3937.65	224
3938.37	222
3939.08	230
3939.8	206
3940.52	202
3941.23	214
3941.95	216
3942.67	216
3943.38	232
3944.1	206
3944.82	210
3945.53	234
3946.25	226
3946.96	204
3947.68	212
3948.4	220
3949.11	216
3949.83	218
3950.54	238
3951.26	214
3951.97	214
3952.69	218
3953.4	210
3954.12	222
3954.83	212
3955.55	222
3956.26	216
3956.98	210
3957.69	218
3958.4	214
3959.12	218
3959.83	212
3960.55	200
3961.26	208
3961.97	214
3962.69	228
3963.4	206
3964.12	206
3964.83	224
3965.54	218
3966.26	206
3966.97	222
3967.68	216
3968.4	206
3969.11	222
3969.82	202
3970.53	228
3971.25	210
3971.96	206
3972.67	220
3973.38	206
3974.1	198
3974.81	202
3975.52	216
3976.23	202
3976.94	192
3977.66	212
3978.37	218
3979.08	208
3979.79	208
3980.5	200
3981.21	216
3981.92	222
3982.64	198
3983.35	212
3984.06	214
3984.77	200
3985.48	224
3986.19	196
3986.9	204
3987.61	190
3988.32	210
3989.03	224
3989.74	208
3990.45	204
3991.16	208
3991.87	202
3992.58	204
3993.29	204
3994	200
3994.71	216
3995.42	186
3996.13	200
3996.84	208
3997.55	196
3998.26	196
3998.97	196
3999.67	230
