#Acq. time (s)=	10
#Accumulations=	1
#Range (cm-¹)=	200...4000
#Windows=	5
#Autofocus=	Off
#AutoExposure=	Off
#Spike filter=	Off
#Delay time (s)=	0
#Binning=	1
#Readout mode=	Signal
#DeNoise=	Off
#ICS correction=	Off
#Dark correction=	Off
#Inst. Process=	Off
#Instrument=	LabRAM HR Evol
#Detector=	Syncerity OE
#Objective=	x100_VIS
#Grating=	600 (500nm)
#ND Filter=	25%
#Laser=	633nm_Edge
#Hole=	100.021
#Range=	Visible
#Project=	Omar
#Sample=	03-07-23
#Site=	1
#Title=	OR
#Remark=	
#Date=	03.07.2023 13:52
#Acquired=	03.07.2023 13:52:27
200.404	906
201.671	880
202.938	920
204.205	882
205.472	882
206.737	894
208.003	902
209.269	882
210.535	878
211.799	888
213.064	878
214.33	910
215.595	924
216.858	924
218.122	886
219.387	918
220.649	902
221.913	890
223.177	930
224.439	930
225.703	912
226.966	936
228.227	914
229.49	952
230.752	896
232.013	936
233.275	930
234.536	894
235.798	914
237.059	922
238.319	918
239.58	934
240.839	896
242.1	956
243.361	926
244.619	880
245.879	932
247.138	924
248.398	910
249.655	912
250.915	942
252.172	922
253.431	946
254.688	934
255.947	956
257.204	954
258.462	906
259.718	916
260.976	934
262.232	934
263.487	918
264.744	932
266	932
267.256	924
268.511	938
269.767	932
271.022	912
272.276	944
273.532	894
274.786	934
276.04	908
277.295	958
278.548	928
279.801	910
281.055	946
282.308	974
283.561	966
284.814	920
286.066	942
287.318	940
288.572	928
289.823	940
291.074	954
292.327	974
293.578	956
294.828	932
296.079	932
297.331	958
298.581	930
299.831	968
301.08	956
302.33	924
303.581	988
304.83	972
306.079	958
307.327	958
308.576	944
309.825	954
311.073	970
312.321	958
313.569	960
314.816	998
316.064	938
317.311	920
318.558	972
319.806	974
321.052	970
322.299	964
323.545	952
324.79	960
326.036	970
327.282	948
328.527	990
329.772	952
331.017	956
332.261	978
333.506	962
334.75	990
335.994	952
337.238	994
338.482	992
339.725	992
340.968	990
342.211	988
343.454	992
344.697	1006
345.939	1012
347.182	980
348.424	994
349.666	1032
350.907	984
352.149	976
353.39	1008
354.631	986
355.87	958
357.111	976
358.352	940
359.592	992
360.832	996
362.072	1012
363.311	1000
364.549	976
365.789	1018
367.028	980
368.267	1026
369.505	998
370.742	1002
371.981	982
373.219	974
374.457	988
375.694	1008
376.93	1002
378.168	940
379.405	992
380.642	1008
381.877	992
383.113	968
384.35	1008
385.584	988
386.82	1008
388.056	958
389.291	988
390.525	966
391.76	1010
392.995	1032
394.228	1012
395.463	1062
396.696	1004
397.93	986
399.164	976
400.396	1020
401.63	1048
402.863	1034
404.095	1002
405.328	1008
406.559	986
407.791	1020
409.022	1006
410.254	1014
411.486	1026
412.717	1002
413.948	1024
415.178	1032
416.409	1072
417.639	1078
418.87	1048
420.099	1054
421.329	1018
422.558	1074
423.788	1070
425.016	1052
426.244	1052
427.474	1050
428.701	1042
429.93	1062
431.158	1086
432.386	1060
433.613	1088
434.84	1040
436.068	1044
437.294	1084
438.522	1056
439.748	1086
440.974	1066
442.201	1052
443.426	1084
444.651	1022
445.878	1074
447.103	1026
448.327	1098
449.553	1068
450.777	1100
452.001	1078
453.225	1072
454.45	1050
455.674	1052
456.897	1082
458.121	1018
459.344	1028
460.567	1044
461.789	1044
463.012	1076
464.235	1066
465.457	1090
466.679	1100
467.9	1086
469.122	1056
470.344	1078
471.565	1106
472.786	1048
474.006	1074
475.227	1052
476.447	1088
477.668	1084
478.888	1086
480.107	1094
481.327	1100
482.546	1086
483.765	1072
484.984	1110
486.202	1046
487.421	1096
488.639	1126
489.857	1106
491.075	1088
492.292	1062
493.51	1092
494.727	1078
495.944	1068
497.161	1102
498.377	1094
499.594	1094
500.81	1074
502.026	1080
503.242	1082
504.458	1128
505.673	1060
506.888	1044
508.104	1088
509.318	1056
510.533	1116
511.748	1138
512.962	1106
514.176	1112
515.39	1078
516.602	1076
517.816	1064
519.029	1102
520.242	1096
521.455	1122
522.668	1096
523.881	1078
525.092	1108
526.304	1116
527.516	1088
528.728	1070
529.939	1088
531.149	1070
532.361	1082
533.572	1096
534.783	1078
535.992	1060
537.202	1098
538.413	1104
539.623	1100
540.831	1060
542.041	1078
543.25	1078
544.458	1078
545.667	1100
546.876	1082
548.084	1116
549.292	1124
550.501	1102
551.707	1098
552.915	1110
554.123	1086
555.329	1086
556.537	1100
557.743	1100
558.95	1106
560.156	1120
561.362	1056
562.568	1102
563.773	1098
564.979	1076
566.184	1074
567.389	1080
568.595	1112
569.799	1100
571.004	1128
572.207	1150
573.412	1140
574.615	1088
575.82	1158
577.022	1094
578.226	1142
579.429	1118
580.631	1150
581.834	1118
583.036	1116
584.239	1156
585.44	1104
586.643	1130
587.844	1142
589.045	1132
590.247	1116
591.448	1140
592.649	1128
593.849	1108
595.049	1110
596.25	1100
597.45	1112
598.649	1162
599.85	1150
601.049	1118
602.248	1090
603.448	1114
604.646	1112
605.844	1158
607.042	1144
608.241	1118
609.439	1148
610.637	1106
611.834	1136
613.032	1114
614.229	1120
615.426	1130
616.622	1140
617.819	1154
619.016	1090
620.212	1162
621.408	1180
622.603	1146
623.799	1156
624.994	1138
626.19	1138
627.385	1146
628.58	1130
629.774	1144
630.969	1120
632.163	1108
633.356	1158
634.55	1160
635.744	1146
636.938	1100
638.131	1180
639.324	1164
640.517	1180
641.71	1176
642.902	1174
644.094	1132
645.286	1178
646.478	1130
647.67	1160
648.861	1180
650.052	1182
651.243	1174
652.434	1174
653.625	1184
654.815	1176
656.006	1166
657.196	1198
658.384	1200
659.574	1156
660.764	1158
661.953	1186
663.142	1138
664.331	1168
665.52	1172
666.709	1148
667.897	1154
669.084	1168
670.272	1174
671.46	1188
672.648	1164
673.835	1182
675.021	1146
676.208	1186
677.395	1210
678.582	1190
679.768	1194
680.953	1218
682.14	1160
683.326	1176
684.512	1160
685.696	1168
686.881	1174
688.067	1204
689.252	1156
690.435	1174
691.62	1168
692.804	1162
693.987	1148
695.171	1184
696.355	1200
697.538	1178
698.721	1192
699.905	1216
701.087	1172
702.27	1196
703.451	1206
704.634	1248
705.816	1220
706.997	1178
708.179	1180
709.36	1212
710.542	1176
711.722	1192
712.903	1228
714.083	1180
715.264	1188
716.445	1164
717.624	1180
718.805	1196
719.984	1192
721.162	1170
722.342	1192
723.52	1218
724.7	1194
725.878	1218
727.057	1186
728.235	1210
729.414	1222
730.591	1228
731.768	1214
732.946	1220
734.123	1152
735.301	1216
736.477	1226
737.653	1230
738.83	1214
740.006	1254
741.182	1214
742.358	1206
743.534	1174
744.709	1214
745.885	1192
747.06	1210
748.234	1210
749.41	1176
750.584	1292
751.758	1198
752.931	1218
754.106	1236
755.28	1246
756.453	1208
757.626	1204
758.8	1204
759.973	1206
761.145	1230
762.318	1242
763.49	1230
764.662	1184
765.835	1228
767.006	1204
768.178	1194
769.349	1248
770.52	1192
771.691	1224
772.861	1246
774.033	1214
775.203	1206
776.373	1218
777.543	1234
778.713	1170
779.883	1184
781.052	1200
782.221	1220
783.39	1184
784.559	1234
785.727	1202
786.896	1262
788.064	1186
789.232	1216
790.4	1156
791.568	1238
792.735	1210
793.903	1236
795.07	1238
796.237	1204
797.404	1228
798.57	1248
799.737	1194
800.903	1272
802.068	1222
803.234	1222
804.399	1190
805.565	1250
806.73	1178
807.896	1242
809.061	1280
810.224	1256
811.389	1252
812.553	1194
813.717	1226
814.881	1266
816.045	1262
817.208	1184
818.371	1222
819.535	1248
820.698	1260
821.859	1286
823.022	1262
824.185	1216
825.347	1252
826.508	1228
827.67	1258
828.832	1282
829.993	1260
831.154	1200
832.316	1220
833.476	1268
834.637	1256
835.797	1224
836.957	1232
838.117	1232
839.278	1284
840.436	1302
841.596	1264
842.755	1272
843.914	1292
845.074	1258
846.232	1296
847.391	1246
848.548	1242
849.707	1270
850.864	1234
852.022	1344
853.179	1322
854.337	1232
855.493	1266
856.651	1260
857.807	1286
858.964	1302
860.12	1284
861.277	1268
862.432	1250
863.589	1286
864.744	1276
865.9	1288
867.055	1286
868.209	1304
869.365	1282
870.519	1294
871.674	1270
872.828	1286
873.982	1256
875.136	1230
876.29	1284
877.443	1326
878.597	1252
879.75	1280
880.902	1250
882.056	1274
883.208	1278
884.36	1280
885.512	1282
886.665	1274
887.816	1280
888.967	1264
890.118	1274
891.271	1252
892.421	1268
893.572	1286
894.722	1288
895.874	1260
897.024	1298
898.174	1266
899.323	1316
900.473	1312
901.622	1286
902.771	1234
903.922	1218
905.07	1288
906.219	1280
907.367	1280
908.516	1278
909.664	1306
910.811	1238
911.959	1284
913.107	1262
914.254	1288
915.401	1266
916.55	1234
917.696	1256
918.843	1308
919.99	1268
921.136	1348
922.282	1276
923.428	1288
924.574	1290
925.719	1284
926.863	1310
928.009	1300
929.154	1306
930.299	1278
931.443	1284
932.588	1316
933.732	1284
934.876	1278
936.02	1308
937.164	1238
938.308	1280
939.45	1278
940.593	1296
941.736	1294
942.879	1268
944.022	1326
945.165	1286
946.306	1298
947.448	1302
948.59	1316
949.732	1298
950.874	1346
952.014	1320
953.155	1276
954.296	1356
955.437	1320
956.577	1262
957.718	1340
958.858	1308
959.997	1316
961.137	1288
962.277	1316
963.416	1280
964.555	1290
965.695	1334
966.833	1324
967.972	1312
969.111	1310
970.248	1298
971.387	1342
972.524	1338
973.662	1282
974.8	1336
975.936	1324
977.074	1342
978.21	1334
979.348	1360
980.483	1332
981.62	1356
982.757	1326
983.893	1348
985.029	1310
986.164	1360
987.299	1340
988.435	1304
989.569	1330
990.705	1320
991.839	1376
992.974	1330
994.108	1318
995.243	1386
996.376	1314
997.509	1330
998.644	1306
999.777	1368
1000.91	1318
1002.04	1344
1003.18	1320
1004.31	1306
1005.44	1326
1006.57	1376
1007.71	1342
1008.84	1324
1009.97	1352
1011.1	1320
1012.23	1318
1013.36	1334
1014.49	1346
1015.63	1310
1016.76	1318
1017.89	1288
1019.02	1334
1020.15	1372
1021.28	1336
1022.41	1342
1023.54	1264
1024.66	1348
1025.79	1410
1026.92	1384
1028.05	1370
1029.18	1350
1030.31	1366
1031.44	1338
1032.56	1346
1033.69	1338
1034.82	1346
1035.95	1316
1037.08	1316
1038.2	1364
1039.33	1388
1040.46	1374
1041.58	1338
1042.71	1348
1043.83	1340
1044.96	1372
1046.09	1362
1047.21	1410
1048.34	1356
1049.46	1412
1050.59	1376
1051.71	1400
1052.84	1392
1053.96	1386
1055.09	1388
1056.21	1396
1057.33	1404
1058.46	1404
1059.58	1404
1060.71	1358
1061.83	1408
1062.95	1372
1064.07	1358
1065.2	1378
1066.32	1384
1067.44	1376
1068.56	1376
1069.69	1346
1070.81	1366
1071.93	1430
1073.05	1400
1074.17	1372
1075.29	1408
1076.41	1344
1077.54	1310
1078.66	1334
1079.78	1346
1080.9	1398
1082.02	1400
1083.14	1390
1084.25	1356
1085.37	1344
1086.49	1350
1087.61	1374
1088.73	1366
1089.85	1352
1090.97	1396
1092.09	1398
1093.21	1354
1094.32	1320
1095.44	1372
1096.56	1314
1097.68	1388
1098.79	1384
1099.91	1386
1101.03	1374
1102.14	1402
1103.26	1338
1104.38	1346
1105.49	1346
1106.61	1350
1107.72	1346
1108.84	1346
1109.96	1386
1111.07	1340
1112.19	1344
1113.3	1362
1114.42	1350
1115.53	1354
1116.64	1352
1117.76	1400
1118.87	1336
1119.99	1332
1121.1	1412
1122.21	1384
1123.33	1308
1124.44	1390
1125.55	1356
1126.66	1396
1127.78	1406
1128.89	1338
1130	1446
1131.11	1384
1132.23	1354
1133.34	1410
1134.45	1388
1135.56	1322
1136.67	1394
1137.78	1392
1138.89	1420
1140	1376
1141.11	1388
1142.22	1400
1143.33	1382
1144.44	1372
1145.55	1362
1146.66	1442
1147.77	1408
1148.88	1428
1149.99	1362
1151.1	1396
1152.21	1396
1153.32	1364
1154.42	1408
1155.53	1348
1156.64	1352
1157.75	1376
1158.85	1396
1159.96	1398
1161.07	1380
1162.17	1432
1163.28	1400
1164.39	1384
1165.49	1370
1166.6	1412
1167.71	1434
1168.81	1398
1169.92	1376
1171.02	1384
1172.13	1438
1173.23	1396
1174.34	1392
1175.44	1442
1176.55	1348
1177.65	1410
1178.76	1428
1179.86	1374
1180.97	1390
1182.07	1398
1183.17	1408
1184.28	1378
1185.38	1430
1186.48	1398
1187.58	1384
1188.69	1382
1189.79	1384
1190.89	1382
1191.99	1448
1193.1	1382
1194.2	1384
1195.3	1414
1196.4	1420
1197.5	1464
1198.6	1328
1199.7	1378
1200.8	1394
1201.9	1426
1203	1412
1204.1	1418
1205.2	1436
1206.3	1366
1207.4	1414
1208.5	1362
1209.6	1420
1210.7	1404
1211.8	1416
1212.9	1368
1214	1408
1215.1	1408
1216.19	1370
1217.29	1396
1218.39	1396
1219.49	1386
1220.58	1366
1221.68	1436
1222.78	1394
1223.88	1380
1224.97	1352
1226.07	1392
1227.17	1430
1228.26	1390
1229.36	1428
1230.45	1370
1231.55	1354
1232.65	1396
1233.74	1392
1234.84	1382
1235.93	1402
1237.02	1370
1238.12	1368
1239.21	1356
1240.31	1412
1241.4	1380
1242.5	1392
1243.59	1378
1244.68	1398
1245.78	1390
1246.87	1436
1247.96	1382
1249.06	1380
1250.15	1364
1251.24	1420
1252.33	1372
1253.43	1416
1254.52	1356
1255.61	1422
1256.7	1400
1257.79	1378
1258.88	1426
1259.98	1404
1261.07	1424
1262.16	1390
1263.25	1408
1264.34	1416
1265.43	1392
1266.52	1420
1267.61	1390
1268.7	1390
1269.79	1436
1270.88	1416
1271.96	1380
1273.05	1414
1274.14	1420
1275.23	1372
1276.32	1378
1277.41	1446
1278.5	1390
1279.58	1412
1280.67	1348.22
1281.76	1415.94
1282.85	1423.5
1283.93	1430.64
1285.02	1444.25
1286.11	1438.89
1287.19	1410.24
1288.28	1433.7
1289.37	1473.83
1290.45	1379.35
1291.54	1401.07
1292.63	1412.24
1293.71	1389.96
1294.8	1453.96
1295.88	1441.18
1296.97	1408.61
1298.05	1404.1
1299.14	1407.47
1300.22	1408.32
1301.31	1440.56
1302.39	1402.27
1303.47	1408.44
1304.56	1426.17
1305.64	1413.56
1306.72	1426.17
1307.81	1389.78
1308.89	1412.91
1309.97	1418.51
1311.06	1390.33
1312.14	1403.68
1313.22	1399.93
1314.3	1425.06
1315.39	1406.27
1316.47	1415.59
1317.55	1426.84
1318.63	1392.52
1319.71	1448.8
1320.79	1434.44
1321.88	1410.15
1322.96	1416.52
1324.04	1411.63
1325.12	1412.42
1326.2	1401.34
1327.28	1400.96
1328.36	1389.53
1329.44	1406.25
1330.52	1382.24
1331.6	1401.8
1332.68	1400.28
1333.76	1396.45
1334.84	1414.29
1335.91	1411.8
1336.99	1405.45
1338.07	1399.51
1339.15	1435.32
1340.23	1393.96
1341.31	1395.72
1342.38	1395.41
1343.46	1392.06
1344.54	1384.21
1345.62	1380.11
1346.69	1406.58
1347.77	1431.47
1348.85	1389.59
1349.92	1391.98
1351	1386.36
1352.08	1399.73
1353.15	1398.55
1354.23	1427.28
1355.3	1401.52
1356.38	1416.15
1357.46	1399.37
1358.53	1412.59
1359.6	1413.68
1360.68	1389.46
1361.75	1399.93
1362.83	1413.02
1363.9	1405
1364.98	1396.27
1366.05	1400.44
1367.13	1382.29
1368.2	1396.78
1369.27	1409.28
1370.35	1394.94
1371.42	1408.23
1372.49	1390.56
1373.56	1391.46
1374.64	1410.69
1375.71	1399.16
1376.78	1420.75
1377.85	1425.89
1378.93	1417.35
1380	1416.23
1381.07	1409.72
1382.14	1414.1
1383.21	1400.48
1384.28	1375.69
1385.35	1403.84
1386.43	1397.76
1387.5	1389.68
1388.57	1423.27
1389.64	1437.7
1390.13	1436
1391.2	1414
1392.28	1384
1393.35	1366
1394.43	1390
1395.5	1362
1396.57	1400
1397.65	1368
1398.72	1404
1399.8	1398
1400.87	1362
1401.94	1392
1403.02	1420
1404.09	1400
1405.17	1396
1406.24	1406
1407.31	1364
1408.38	1424
1409.46	1376
1410.53	1382
1411.6	1426
1412.67	1390
1413.74	1388
1414.82	1350
1415.89	1344
1416.96	1412
1418.03	1376
1419.1	1378
1420.17	1368
1421.24	1378
1422.31	1396
1423.38	1366
1424.45	1382
1425.52	1372
1426.59	1386
1427.66	1426
1428.73	1338
1429.8	1384
1430.87	1390
1431.94	1388
1433.01	1350
1434.08	1396
1435.14	1384
1436.21	1358
1437.28	1366
1438.35	1404
1439.42	1384
1440.48	1356
1441.55	1388
1442.62	1380
1443.68	1330
1444.75	1354
1445.82	1370
1446.89	1336
1447.95	1360
1449.02	1340
1450.08	1384
1451.15	1394
1452.22	1386
1453.28	1354
1454.35	1378
1455.41	1344
1456.48	1348
1457.54	1422
1458.61	1396
1459.67	1388
1460.73	1344
1461.8	1378
1462.86	1390
1463.93	1412
1464.99	1370
1466.05	1366
1467.12	1374
1468.18	1420
1469.24	1338
1470.31	1428
1471.37	1352
1472.43	1360
1473.49	1394
1474.56	1396
1475.62	1386
1476.68	1430
1477.74	1370
1478.8	1390
1479.86	1364
1480.93	1472
1481.99	1358
1483.05	1384
1484.11	1356
1485.17	1384
1486.23	1424
1487.29	1378
1488.35	1380
1489.41	1396
1490.47	1374
1491.53	1384
1492.59	1386
1493.65	1424
1494.71	1362
1495.76	1380
1496.82	1370
1497.88	1442
1498.94	1408
1500	1420
1501.06	1424
1502.11	1398
1503.17	1362
1504.23	1380
1505.29	1388
1506.34	1376
1507.4	1382
1508.46	1370
1509.51	1366
1510.57	1364
1511.63	1360
1512.68	1358
1513.74	1386
1514.8	1366
1515.85	1390
1516.91	1394
1517.96	1364
1519.02	1382
1520.07	1382
1521.13	1388
1522.18	1384
1523.24	1356
1524.29	1382
1525.34	1374
1526.4	1438
1527.45	1406
1528.51	1364
1529.56	1358
1530.61	1398
1531.67	1392
1532.72	1378
1533.77	1394
1534.82	1396
1535.88	1326
1536.93	1412
1537.98	1344
1539.03	1366
1540.08	1366
1541.14	1330
1542.19	1392
1543.24	1336
1544.29	1376
1545.34	1366
1546.39	1318
1547.44	1338
1548.49	1340
1549.54	1346
1550.59	1318
1551.64	1406
1552.69	1352
1553.74	1334
1554.79	1360
1555.84	1392
1556.89	1324
1557.94	1358
1558.99	1352
1560.04	1388
1561.09	1348
1562.14	1372
1563.18	1364
1564.23	1414
1565.28	1368
1566.33	1326
1567.37	1328
1568.42	1390
1569.47	1322
1570.52	1350
1571.56	1354
1572.61	1364
1573.66	1380
1574.7	1362
1575.75	1310
1576.79	1326
1577.84	1316
1578.89	1368
1579.93	1410
1580.98	1366
1582.02	1356
1583.07	1340
1584.11	1372
1585.16	1366
1586.2	1382
1587.25	1310
1588.29	1362
1589.34	1358
1590.38	1346
1591.42	1354
1592.47	1352
1593.51	1306
1594.55	1318
1595.6	1328
1596.64	1368
1597.68	1360
1598.72	1394
1599.77	1366
1600.81	1362
1601.85	1394
1602.89	1364
1603.94	1378
1604.98	1324
1606.02	1336
1607.06	1338
1608.1	1342
1609.14	1318
1610.18	1328
1611.22	1328
1612.26	1362
1613.3	1320
1614.34	1356
1615.38	1340
1616.42	1336
1617.46	1324
1618.5	1356
1619.54	1320
1620.58	1362
1621.62	1330
1622.66	1330
1623.7	1382
1624.74	1394
1625.78	1314
1626.81	1304
1627.85	1366
1628.89	1280
1629.93	1376
1630.97	1366
1632	1306
1633.04	1356
1634.08	1314
1635.11	1320
1636.15	1280
1637.19	1350
1638.22	1310
1639.26	1330
1640.3	1344
1641.33	1320
1642.37	1306
1643.4	1352
1644.44	1306
1645.47	1298
1646.51	1284
1647.55	1312
1648.58	1288
1649.61	1340
1650.65	1314
1651.68	1278
1652.72	1322
1653.75	1318
1654.79	1306
1655.82	1312
1656.85	1330
1657.89	1312
1658.92	1304
1659.95	1286
1660.98	1302
1662.02	1286
1663.05	1258
1664.08	1288
1665.12	1284
1666.15	1276
1667.18	1274
1668.21	1268
1669.24	1302
1670.27	1288
1671.3	1284
1672.34	1290
1673.37	1256
1674.4	1242
1675.43	1236
1676.46	1314
1677.49	1256
1678.52	1250
1679.55	1244
1680.58	1220
1681.61	1286
1682.64	1288
1683.67	1242
1684.7	1280
1685.73	1292
1686.75	1252
1687.78	1240
1688.81	1230
1689.84	1228
1690.87	1216
1691.9	1280
1692.93	1246
1693.95	1282
1694.98	1290
1696.01	1280
1697.03	1248
1698.06	1234
1699.09	1276
1700.12	1286
1701.14	1224
1702.17	1266
1703.2	1240
1704.22	1246
1705.25	1212
1706.27	1254
1707.3	1244
1708.32	1260
1709.35	1264
1710.37	1240
1711.4	1242
1712.42	1208
1713.45	1268
1714.47	1206
1715.5	1216
1716.52	1222
1717.55	1202
1718.57	1200
1719.59	1222
1720.62	1256
1721.64	1254
1722.67	1216
1723.69	1246
1724.71	1212
1725.73	1218
1726.76	1232
1727.78	1232
1728.8	1178
1729.82	1224
1730.84	1242
1731.87	1184
1732.89	1202
1733.91	1216
1734.93	1184
1735.95	1206
1736.97	1182
1737.99	1174
1739.01	1192
1740.04	1216
1741.06	1216
1742.08	1214
1743.1	1240
1744.12	1258
1745.14	1226
1746.16	1234
1747.18	1190
1748.19	1200
1749.21	1232
1750.23	1240
1751.25	1222
1752.27	1192
1753.29	1162
1754.31	1226
1755.33	1238
1756.34	1212
1757.36	1194
1758.38	1166
1759.4	1204
1760.41	1194
1761.43	1224
1762.45	1180
1763.47	1230
1764.48	1220
1765.5	1204
1766.51	1188
1767.53	1220
1768.55	1230
1769.56	1196
1770.58	1214
1771.6	1206
1772.61	1220
1773.63	1206
1774.64	1198
1775.66	1212
1776.67	1188
1777.69	1182
1778.7	1198
1779.71	1224
1780.73	1198
1781.74	1226
1782.76	1198
1783.77	1198
1784.78	1264
1785.8	1202
1786.81	1218
1787.82	1226
1788.84	1224
1789.85	1186
1790.86	1252
1791.88	1180
1792.89	1176
1793.9	1200
1794.91	1186
1795.92	1222
1796.94	1214
1797.95	1212
1798.96	1216
1799.97	1206
1800.98	1218
1801.99	1198
1803	1204
1804.01	1210
1805.02	1184
1806.03	1250
1807.04	1240
1808.05	1224
1809.06	1214
1810.07	1198
1811.08	1176
1812.09	1198
1813.1	1190
1814.11	1232
1815.12	1186
1816.13	1182
1817.14	1208
1818.14	1178
1819.15	1208
1820.16	1180
1821.17	1176
1822.18	1160
1823.18	1192
1824.19	1208
1825.2	1170
1826.21	1186
1827.21	1190
1828.22	1196
1829.23	1178
1830.23	1194
1831.24	1174
1832.25	1132
1833.25	1182
1834.26	1142
1835.27	1174
1836.27	1174
1837.28	1210
1838.28	1188
1839.29	1168
1840.29	1164
1841.3	1200
1842.3	1158
1843.31	1174
1844.31	1152
1845.31	1148
1846.32	1172
1847.32	1142
1848.33	1154
1849.33	1202
1850.33	1126
1851.34	1174
1852.34	1152
1853.34	1152
1854.35	1174
1855.35	1144
1856.35	1114
1857.35	1110
1858.36	1154
1859.36	1160
1860.36	1168
1861.36	1130
1862.36	1182
1863.36	1168
1864.36	1174
1865.37	1116
1866.37	1134
1867.37	1160
1868.37	1132
1869.37	1142
1870.37	1146
1871.37	1140
1872.37	1158
1873.37	1136
1874.37	1140
1875.37	1134
1876.37	1142
1877.37	1116
1878.37	1132
1879.37	1182
1880.36	1124
1881.36	1130
1882.36	1174
1883.36	1152
1884.36	1134
1885.36	1168
1886.35	1126
1887.35	1144
1888.35	1134
1889.35	1142
1890.34	1148
1891.34	1142
1892.34	1124
1893.34	1142
1894.33	1152
1895.33	1118
1896.33	1126
1897.32	1130
1898.32	1154
1899.31	1134
1900.31	1158
1901.3	1166
1902.3	1114
1903.3	1124
1904.29	1146
1905.29	1154
1906.28	1120
1907.27	1152
1908.27	1112
1909.26	1076
1910.26	1122
1911.25	1116
1912.25	1158
1913.24	1156
1914.23	1118
1915.23	1160
1916.22	1142
1917.21	1108
1918.21	1088
1919.2	1106
1920.19	1134
1921.18	1136
1922.18	1122
1923.17	1148
1924.16	1110
1925.15	1088
1926.14	1162
1927.14	1076
1928.13	1176
1929.12	1116
1930.11	1116
1931.1	1140
1932.09	1106
1933.08	1138
1934.07	1092
1935.06	1128
1936.05	1108
1937.04	1134
1938.03	1168
1939.02	1072
1940.01	1102
1941	1144
1941.99	1132
1942.98	1122
1943.97	1108
1944.96	1154
1945.95	1110
1946.94	1108
1947.92	1074
1948.91	1116
1949.9	1128
1950.89	1120
1951.88	1100
1952.86	1140
1953.85	1152
1954.84	1110
1955.83	1116
1956.81	1102
1957.8	1136
1958.79	1092
1959.77	1070
1960.76	1092
1961.75	1118
1962.73	1102
1963.72	1148
1964.7	1126
1965.69	1094
1966.68	1074
1967.66	1118
1968.65	1146
1969.63	1106
1970.62	1136
1971.6	1106
1972.59	1094
1973.57	1086
1974.55	1058
1975.54	1118
1976.52	1104
1977.51	1098
1978.49	1108
1979.47	1072
1980.46	1136
1981.44	1154
1982.42	1114
1983.41	1104
1984.39	1100
1985.37	1090
1986.35	1076
1987.34	1086
1988.32	1066
1989.3	1120
1990.28	1066
1991.27	1070
1992.25	1078
1993.23	1110
1994.21	1090
1995.19	1110
1996.17	1108
1997.15	1108
1998.13	1082
1999.11	1120
2000.09	1092
2001.07	1058
2002.05	1094
2003.03	1112
2004.01	1092
2004.99	1070
2005.97	1076
2006.95	1108
2007.93	1082
2008.91	1104
2009.89	1080
2010.87	1080
2011.85	1088
2012.82	1086
2013.8	1080
2014.78	1074
2015.76	1074
2016.74	1084
2017.72	1092
2018.69	1082
2019.67	1092
2020.65	1068
2021.62	1074
2022.6	1100
2023.58	1106
2024.55	1074
2025.53	1068
2026.51	1062
2027.48	1088
2028.46	1072
2029.44	1102
2030.41	1076
2031.39	1054
2032.36	1094
2033.34	1048
2034.31	1084
2035.29	1086
2036.26	1064
2037.24	1066
2038.21	1060
2039.19	1070
2040.16	1020
2041.14	1062
2042.11	1050
2043.08	1068
2044.06	1044
2045.03	1040
2046	1084
2046.98	1030
2047.95	1070
2048.92	1074
2049.9	1062
2050.87	1048
2051.84	1080
2052.81	1074
2053.79	1048
2054.76	1076
2055.73	1042
2056.7	1058
2057.67	1070
2058.64	1072
2059.61	1066
2060.59	1040
2061.56	1068
2062.53	1028
2063.5	1044
2064.47	1026
2065.44	1048
2066.41	1092
2067.38	1034
2068.35	1020
2069.32	1022
2070.29	1044
2071.26	1084
2072.23	1048
2073.2	1038
2074.17	1028
2075.14	1038
2076.1	1034
2077.07	1052
2078.04	1036
2079.01	1052
2079.98	1020
2080.95	1050
2081.91	1092
2082.88	1028
2083.85	1042
2084.82	1032
2085.78	1010
2086.75	1042
2087.72	1048
2088.68	1074
2089.65	1028
2090.62	1062
2091.58	1050
2092.55	1064
2093.52	1074
2094.48	1028
2095.45	1054
2096.41	1048
2097.38	1066
2098.35	994
2099.31	1030
2100.28	1042
2101.24	1048
2102.21	1044
2103.17	1018
2104.14	1004
2105.1	1002
2106.06	1018
2107.03	1042
2107.99	970
2108.96	1014
2109.92	1026
2110.88	1024
2111.85	1040
2112.81	1038
2113.77	1054
2114.73	1004
2115.7	1054
2116.66	1032
2117.62	992
2118.58	978
2119.55	1002
2120.51	1076
2121.47	1018
2122.43	1000
2123.39	1008
2124.36	1036
2125.32	1014
2126.28	1028
2127.24	1010
2128.2	1004
2129.16	1050
2130.12	988
2131.08	1020
2132.04	1014
2133	1026
2133.96	1044
2134.92	1020
2135.88	1028
2136.84	1008
2137.8	1020
2138.76	1004
2139.72	988
2140.68	1032
2141.64	996
2142.59	1026
2143.55	972
2144.51	972
2145.47	1018
2146.43	1038
2147.39	988
2148.34	992
2149.3	994
2150.26	998
2151.22	982
2152.17	986
2153.13	1014
2154.09	998
2155.04	984
2156	974
2156.96	972
2157.91	956
2158.87	1024
2159.82	964
2160.78	934
2161.74	1010
2162.69	972
2163.65	992
2164.6	984
2165.56	1004
2166.51	974
2167.47	942
2168.42	1002
2169.38	980
2170.33	954
2171.29	952
2172.24	984
2173.19	978
2174.15	960
2175.1	970
2176.05	974
2177.01	942
2177.96	966
2178.91	976
2179.87	940
2180.82	946
2181.77	964
2182.73	956
2183.68	980
2184.63	990
2185.58	990
2186.53	974
2187.49	934
2188.44	944
2189.39	984
2190.34	968
2191.29	956
2192.24	958
2193.19	948
2194.14	954
2195.09	958
2196.05	968
2197	958
2197.95	950
2198.9	974
2199.85	956
2200.8	942
2201.75	958
2202.7	954
2203.64	978
2204.59	926
2205.54	956
2206.49	1002
2207.44	908
2208.39	964
2209.34	946
2210.29	918
2211.23	960
2212.18	950
2213.13	932
2214.08	918
2215.03	948
2215.97	958
2216.92	942
2217.87	894
2218.81	950
2219.76	940.019
2220.71	921.948
2221.66	939.874
2222.6	950.057
2223.55	929.867
2224.49	955.847
2225.44	938.957
2226.39	962.656
2227.33	936.877
2228.28	947.608
2229.22	932.913
2230.17	944.343
2231.11	956.511
2232.06	934.461
2233	935.122
2233.95	920.639
2234.89	937.61
2235.84	966.469
2236.78	927.247
2237.73	915.614
2238.67	926.094
2239.61	909.397
2240.56	931.14
2241.5	928.128
2242.45	924.792
2243.39	919.283
2244.33	924.998
2245.28	926.931
2246.22	966.543
2247.16	904.28
2248.1	924.795
2249.05	927.009
2249.99	932.852
2250.93	905.51
2251.87	941.36
2252.81	950.104
2253.76	949.86
2254.7	931.175
2255.64	941.963
2256.58	946.824
2257.52	925.857
2258.46	929.963
2259.4	932.285
2260.34	914.335
2261.28	941.751
2262.23	917.215
2263.17	939.284
2264.11	915.893
2265.05	929.747
2265.99	943.768
2266.93	921
2267.87	917.942
2268.8	911.489
2269.74	934.426
2270.68	922.038
2271.62	913.649
2272.56	947.11
2273.5	905.834
2274.44	926.208
2275.38	905.693
2276.32	931.15
2277.25	932.372
2278.19	934.905
2279.13	947.003
2280.07	935.511
2281.01	904.338
2281.94	909.93
2282.88	924.478
2283.82	905.794
2284.76	930.191
2285.69	939.396
2286.63	944.369
2287.57	925.106
2288.5	907.233
2289.44	919.118
2290.37	895.853
2291.31	909.181
2292.25	925.089
2293.18	923.383
2294.12	894.597
2295.05	918.224
2295.99	909.231
2296.92	905.946
2297.86	918.825
2298.79	921.182
2299.73	896
2300.66	906.867
2301.6	909.938
2302.53	904.446
2303.47	907.878
2304.4	927.185
2305.34	896.075
2306.27	943.737
2307.2	907.333
2308.14	893.937
2309.07	894.119
2310	896.279
2310.94	905.494
2311.87	927.688
2312.8	895.259
2313.74	892.309
2313.98	896
2314.92	908
2315.86	886
2316.79	894
2317.73	894
2318.67	896
2319.6	864
2320.54	886
2321.48	890
2322.41	916
2323.35	920
2324.29	924
2325.22	872
2326.16	906
2327.09	906
2328.03	872
2328.96	932
2329.9	898
2330.83	914
2331.77	890
2332.7	890
2333.64	880
2334.57	884
2335.51	886
2336.44	866
2337.38	884
2338.31	878
2339.24	890
2340.18	894
2341.11	906
2342.04	878
2342.98	884
2343.91	886
2344.84	896
2345.78	892
2346.71	906
2347.64	884
2348.57	888
2349.51	900
2350.44	894
2351.37	930
2352.3	902
2353.24	886
2354.17	868
2355.1	928
2356.03	880
2356.96	874
2357.89	896
2358.82	914
2359.75	870
2360.68	904
2361.62	866
2362.55	892
2363.48	896
2364.41	890
2365.34	874
2366.27	910
2367.2	866
2368.13	860
2369.05	872
2369.98	880
2370.91	890
2371.84	912
2372.77	928
2373.7	866
2374.63	860
2375.56	856
2376.49	874
2377.41	868
2378.34	868
2379.27	870
2380.2	862
2381.12	884
2382.05	868
2382.98	854
2383.91	872
2384.83	844
2385.76	854
2386.69	918
2387.61	864
2388.54	908
2389.47	878
2390.39	884
2391.32	852
2392.25	852
2393.17	914
2394.1	876
2395.02	906
2395.95	866
2396.87	862
2397.8	834
2398.72	860
2399.65	852
2400.57	850
2401.5	900
2402.42	898
2403.35	870
2404.27	866
2405.2	902
2406.12	834
2407.04	834
2407.97	890
2408.89	890
2409.81	840
2410.74	864
2411.66	870
2412.58	844
2413.51	886
2414.43	880
2415.35	858
2416.27	840
2417.2	876
2418.12	844
2419.04	858
2419.96	858
2420.88	852
2421.81	862
2422.73	842
2423.65	882
2424.57	852
2425.49	834
2426.41	826
2427.33	854
2428.25	880
2429.17	882
2430.1	888
2431.02	848
2431.94	862
2432.85	858
2433.77	860
2434.7	864
2435.61	870
2436.53	822
2437.45	856
2438.37	854
2439.29	872
2440.21	816
2441.13	870
2442.05	884
2442.97	810
2443.88	842
2444.8	884
2445.72	868
2446.64	846
2447.56	854
2448.47	838
2449.39	834
2450.31	852
2451.23	852
2452.14	884
2453.06	814
2453.98	810
2454.89	896
2455.81	844
2456.73	862
2457.64	832
2458.56	836
2459.48	838
2460.39	896
2461.31	856
2462.22	846
2463.14	822
2464.05	860
2464.97	872
2465.88	844
2466.8	830
2467.71	852
2468.63	872
2469.54	834
2470.46	844
2471.37	846
2472.29	834
2473.2	852
2474.11	830
2475.03	848
2475.94	822
2476.86	830
2477.77	840
2478.68	824
2479.59	864
2480.51	828
2481.42	834
2482.33	824
2483.25	844
2484.16	838
2485.07	832
2485.98	822
2486.9	872
2487.81	844
2488.72	830
2489.63	820
2490.54	828
2491.45	858
2492.36	800
2493.28	810
2494.19	844
2495.1	832
2496.01	818
2496.92	816
2497.83	812
2498.74	844
2499.65	844
2500.56	824
2501.47	812
2502.38	806
2503.29	804
2504.2	776
2505.11	804
2506.02	822
2506.93	784
2507.83	810
2508.74	804
2509.65	838
2510.56	832
2511.47	804
2512.38	808
2513.29	822
2514.19	800
2515.1	798
2516.01	786
2516.92	820
2517.82	766
2518.73	780
2519.64	804
2520.55	830
2521.45	842
2522.36	772
2523.27	826
2524.17	802
2525.08	832
2525.99	824
2526.89	802
2527.8	798
2528.7	840
2529.61	820
2530.51	798
2531.42	812
2532.33	824
2533.23	790
2534.14	798
2535.04	826
2535.95	764
2536.85	766
2537.75	872
2538.66	782
2539.56	812
2540.47	806
2541.37	790
2542.28	766
2543.18	788
2544.08	846
2544.99	790
2545.89	860
2546.79	820
2547.7	836
2548.6	814
2549.5	796
2550.4	804
2551.31	810
2552.21	774
2553.11	788
2554.01	824
2554.92	822
2555.82	766
2556.72	762
2557.62	812
2558.52	822
2559.42	788
2560.32	816
2561.23	804
2562.13	780
2563.03	786
2563.93	786
2564.83	786
2565.73	794
2566.63	788
2567.53	800
2568.43	814
2569.33	806
2570.23	764
2571.13	752
2572.03	756
2572.93	774
2573.83	776
2574.73	792
2575.63	768
2576.52	796
2577.42	816
2578.32	802
2579.22	820
2580.12	798
2581.02	806
2581.91	786
2582.81	788
2583.71	798
2584.61	780
2585.51	778
2586.4	780
2587.3	774
2588.2	804
2589.09	786
2589.99	790
2590.89	754
2591.78	790
2592.68	792
2593.58	780
2594.47	782
2595.37	796
2596.26	748
2597.16	792
2598.06	774
2598.95	766
2599.85	780
2600.74	796
2601.64	780
2602.53	740
2603.43	784
2604.32	792
2605.22	814
2606.11	766
2607.01	796
2607.9	752
2608.79	758
2609.69	768
2610.58	794
2611.48	776
2612.37	768
2613.26	766
2614.16	766
2615.05	778
2615.94	788
2616.84	750
2617.73	760
2618.62	800
2619.51	790
2620.41	796
2621.3	734
2622.19	744
2623.08	750
2623.97	780
2624.87	776
2625.76	812
2626.65	758
2627.54	776
2628.43	768
2629.32	762
2630.21	800
2631.1	704
2631.99	760
2632.89	810
2633.78	742
2634.67	734
2635.56	746
2636.45	742
2637.34	756
2638.23	736
2639.12	752
2640.01	720
2640.9	772
2641.78	756
2642.67	756
2643.56	726
2644.45	750
2645.34	736
2646.23	732
2647.12	742
2648.01	724
2648.89	694
2649.78	748
2650.67	728
2651.56	738
2652.45	722
2653.33	736
2654.22	750
2655.11	746
2656	752
2656.88	736
2657.77	738
2658.66	746
2659.54	730
2660.43	736
2661.32	722
2662.2	736
2663.09	724
2663.97	724
2664.86	760
2665.75	724
2666.63	734
2667.52	718
2668.4	780
2669.29	746
2670.17	758
2671.06	744
2671.94	734
2672.83	720
2673.71	708
2674.6	766
2675.48	716
2676.37	738
2677.25	736
2678.13	738
2679.02	724
2679.9	714
2680.78	748
2681.67	740
2682.55	814
2683.43	736
2684.32	698
2685.2	730
2686.08	726
2686.97	730
2687.85	712
2688.73	730
2689.61	734
2690.5	724
2691.38	722
2692.26	722
2693.14	762
2694.02	738
2694.9	712
2695.79	706
2696.67	710
2697.55	746
2698.43	728
2699.31	708
2700.19	698
2701.07	744
2701.95	712
2702.83	700
2703.71	708
2704.59	728
2705.47	716
2706.35	708
2707.23	726
2708.11	718
2708.99	716
2709.87	724
2710.75	712
2711.63	712
2712.51	766
2713.39	690
2714.27	708
2715.14	696
2716.02	738
2716.9	702
2717.78	734
2718.66	748
2719.54	708
2720.41	700
2721.29	692
2722.17	720
2723.05	734
2723.92	704
2724.8	702
2725.68	722
2726.55	682
2727.43	702
2728.31	704
2729.18	680
2730.06	704
2730.94	708
2731.81	742
2732.69	720
2733.57	688
2734.44	690
2735.32	706
2736.19	690
2737.07	712
2737.94	702
2738.82	672
2739.69	680
2740.57	660
2741.44	696
2742.32	696
2743.19	682
2744.07	678
2744.94	694
2745.81	686
2746.69	694
2747.56	698
2748.44	688
2749.31	692
2750.18	712
2751.06	694
2751.93	716
2752.8	682
2753.68	712
2754.55	682
2755.42	660
2756.29	680
2757.17	710
2758.04	716
2758.91	678
2759.78	680
2760.65	676
2761.53	698
2762.4	694
2763.27	710
2764.14	686
2765.01	690
2765.88	700
2766.76	692
2767.63	672
2768.5	674
2769.37	710
2770.24	676
2771.11	684
2771.98	666
2772.85	684
2773.72	692
2774.59	694
2775.46	662
2776.33	690
2777.2	666
2778.07	676
2778.94	696
2779.81	682
2780.67	670
2781.54	686
2782.41	682
2783.28	692
2784.15	652
2785.02	676
2785.89	684
2786.75	644
2787.62	676
2788.49	644
2789.36	664
2790.23	664
2791.09	682
2791.96	680
2792.83	682
2793.7	676
2794.56	668
2795.43	658
2796.3	682
2797.16	662
2798.03	678
2798.9	660
2799.76	658
2800.63	644
2801.49	660
2802.36	696
2803.23	662
2804.09	658
2804.96	676
2805.82	644
2806.69	676
2807.55	670
2808.42	692
2809.28	648
2810.15	670
2811.01	664
2811.88	638
2812.74	666
2813.61	672
2814.47	658
2815.33	674
2816.2	664
2817.06	686
2817.93	670
2818.79	656
2819.65	658
2820.52	668
2821.38	654
2822.24	646
2823.11	656
2823.97	664
2824.83	638
2825.69	610
2826.55	624
2827.42	664
2828.28	662
2829.14	642
2830	640
2830.87	678
2831.73	660
2832.59	648
2833.45	650
2834.31	650
2835.17	630
2836.03	670
2836.89	604
2837.76	642
2838.62	640
2839.48	630
2840.34	628
2841.2	612
2842.06	634
2842.92	642
2843.78	610
2844.64	626
2845.5	664
2846.36	636
2847.22	650
2848.07	644
2848.93	624
2849.79	630
2850.65	636
2851.51	630
2852.37	658
2853.23	626
2854.09	622
2854.95	630
2855.8	648
2856.66	666
2857.52	618
2858.38	630
2859.24	616
2860.09	612
2860.95	642
2861.81	626
2862.66	622
2863.52	626
2864.38	648
2865.24	622
2866.09	630
2866.95	626
2867.81	620
2868.66	596
2869.52	634
2870.37	642
2871.23	650
2872.09	644
2872.94	630
2873.8	598
2874.65	580
2875.51	618
2876.36	606
2877.22	624
2878.07	574
2878.93	624
2879.78	608
2880.64	650
2881.49	590
2882.35	608
2883.2	616
2884.05	622
2884.91	616
2885.76	620
2886.62	584
2887.47	588
2888.32	612
2889.18	592
2890.03	616
2890.88	606
2891.74	624
2892.59	600
2893.44	598
2894.29	598
2895.15	606
2896	604
2896.85	598
2897.7	610
2898.55	592
2899.41	618
2900.26	582
2901.11	580
2901.96	580
2902.81	616
2903.66	628
2904.52	618
2905.37	596
2906.22	592
2907.07	602
2907.92	612
2908.77	606
2909.62	618
2910.47	580
2911.32	592
2912.17	608
2913.02	602
2913.87	594
2914.72	612
2915.57	582
2916.42	604
2917.27	578
2918.12	620
2918.97	582
2919.82	604
2920.66	594
2921.51	586
2922.36	586
2923.21	618
2924.06	574
2924.91	602
2925.75	584
2926.6	594
2927.45	596
2928.3	572
2929.15	580
2929.99	564
2930.84	616
2931.69	598
2932.54	602
2933.38	572
2934.23	594
2935.08	586
2935.92	592
2936.77	584
2937.62	582
2938.46	580
2939.31	590
2940.15	580
2941	554
2941.85	608
2942.69	548
2943.54	592
2944.38	584
2945.23	582
2946.07	602
2946.92	600
2947.76	616
2948.61	544
2949.45	584
2950.3	590
2951.14	584
2951.99	588
2952.83	566
2953.67	582
2954.52	572
2955.36	566
2956.21	570
2957.05	588
2957.89	586
2958.74	580
2959.58	590
2960.42	550
2961.27	574
2962.11	598
2962.95	610
2963.79	570
2964.64	556
2965.48	580
2966.32	570
2967.16	540
2968.01	558
2968.85	544
2969.69	562
2970.53	574
2971.37	570
2972.21	594
2973.05	556
2973.9	580
2974.74	580
2975.58	590
2976.42	572
2977.26	580
2978.1	544
2978.94	558
2979.78	588
2980.62	534
2981.46	566
2982.3	572
2983.14	600
2983.98	566
2984.82	578
2985.66	572
2986.5	580
2987.34	548
2988.18	578
2989.02	542
2989.86	562
2990.69	566
2991.53	542
2992.37	534
2993.21	568
2994.05	560
2994.89	554
2995.72	580
2996.56	548
2997.4	540
2998.24	544
2999.08	550
2999.91	570
3000.75	532
3001.59	574
3002.43	564
3003.26	570
3004.1	516
3004.94	528
3005.77	552
3006.61	532
3007.45	560
3008.28	548
3009.12	542
3009.95	552
3010.79	500
3011.63	540
3012.46	532
3013.3	540
3014.13	510
3014.97	528
3015.8	536
3016.64	548
3017.47	536
3018.31	556
3019.14	524
3019.98	518
3020.81	542
3021.65	518
3022.48	540
3023.31	524
3024.15	538
3024.98	566
3025.82	556
3026.65	528
3027.48	524
3028.32	548
3029.15	514
3029.98	534
3030.82	522
3031.65	536
3032.48	524
3033.31	530
3034.15	530
3034.98	562
3035.81	518
3036.64	554
3037.48	508
3038.31	544
3039.14	528
3039.97	532
3040.8	529.941
3041.63	557.403
3042.47	549.115
3043.3	532.734
3044.13	525.39
3044.96	550.764
3045.79	527.991
3046.62	551.687
3047.45	534.568
3048.28	509.106
3049.11	520.677
3049.94	516.995
3050.77	520.93
3051.6	534.708
3052.43	531.474
3053.26	544.689
3054.09	529.208
3054.92	499.633
3055.75	505.243
3056.58	510.516
3057.41	500.299
3058.24	516.768
3059.07	517.091
3059.9	500.172
3060.73	529.68
3061.55	531.919
3062.38	518.042
3063.21	516.183
3064.04	523.643
3064.87	511.819
3065.7	501.339
3066.52	508.243
3067.35	515.693
3068.18	503.906
3069.01	501.51
3069.83	506.74
3070.66	517.463
3071.49	518.508
3072.32	506.715
3073.14	516.355
3073.97	521.3
3074.8	497.976
3075.62	516.208
3076.45	517.348
3077.28	496.71
3078.1	504.037
3078.93	512.747
3079.75	497.157
3080.58	488.482
3081.41	480.96
3082.23	498.479
3083.06	516.761
3083.88	514.398
3084.71	500.076
3085.53	493.071
3086.36	480.644
3087.18	482.088
3088.01	485.588
3088.83	503.95
3089.66	487.464
3090.48	503.623
3091.31	494.556
3092.13	497.027
3092.96	493.827
3093.78	503.902
3094.6	476.511
3095.43	493.902
3096.25	478.345
3097.07	486.43
3097.9	477.719
3098.72	472.113
3099.54	474.52
3100.37	484.98
3101.19	477.199
3102.01	499.231
3102.84	500.457
3103.66	475.763
3104.48	467.001
3105.3	485.84
3106.13	490.364
3106.95	481.354
3107.77	495.747
3108.59	479.29
3109.41	474.042
3110.24	474.869
3111.06	488.702
3111.88	484.599
3112.7	468.426
3113.52	469.944
3114.34	471.26
3115.16	475.985
3115.98	491.299
3116.81	476.313
3117.63	474.667
3118.45	482.129
3119.27	473.56
3120.09	454.996
3120.91	461.149
3121.73	473.034
3122.55	467.124
3123.37	462.497
3123.73	464
3124.56	462
3125.38	446
3126.21	486
3127.03	466
3127.85	474
3128.68	454
3129.5	434
3130.32	460
3131.15	490
3131.97	466
3132.79	474
3133.62	474
3134.44	472
3135.26	446
3136.08	468
3136.91	450
3137.73	434
3138.55	458
3139.37	456
3140.19	458
3141.02	434
3141.84	458
3142.66	464
3143.48	450
3144.3	442
3145.13	450
3145.95	446
3146.77	488
3147.59	492
3148.41	448
3149.23	444
3150.05	478
3150.87	456
3151.69	484
3152.51	484
3153.33	436
3154.15	484
3154.97	452
3155.79	458
3156.61	454
3157.43	450
3158.25	424
3159.07	430
3159.89	456
3160.71	446
3161.53	414
3162.35	448
3163.17	458
3163.98	442
3164.8	452
3165.62	464
3166.44	450
3167.26	430
3168.08	460
3168.89	442
3169.71	430
3170.53	450
3171.35	460
3172.17	426
3172.98	428
3173.8	448
3174.62	446
3175.43	452
3176.25	470
3177.07	442
3177.89	438
3178.7	458
3179.52	446
3180.33	448
3181.15	460
3181.97	440
3182.78	442
3183.6	458
3184.41	450
3185.23	470
3186.05	434
3186.86	448
3187.68	446
3188.49	452
3189.31	442
3190.12	438
3190.94	434
3191.75	430
3192.57	432
3193.38	410
3194.2	414
3195.01	438
3195.82	440
3196.64	436
3197.45	440
3198.27	456
3199.08	436
3199.89	448
3200.71	426
3201.52	428
3202.33	432
3203.15	420
3203.96	432
3204.77	458
3205.59	452
3206.4	458
3207.21	446
3208.02	454
3208.84	420
3209.65	428
3210.46	434
3211.27	430
3212.09	434
3212.9	436
3213.71	416
3214.52	448
3215.33	438
3216.14	444
3216.96	444
3217.77	442
3218.58	398
3219.39	428
3220.2	436
3221.01	428
3221.82	432
3222.63	416
3223.44	424
3224.25	414
3225.06	420
3225.87	420
3226.68	420
3227.49	424
3228.3	422
3229.11	410
3229.92	442
3230.73	412
3231.54	396
3232.35	434
3233.16	424
3233.97	412
3234.77	436
3235.58	416
3236.39	426
3237.2	436
3238.01	422
3238.82	398
3239.63	428
3240.43	416
3241.24	428
3242.05	428
3242.86	424
3243.66	426
3244.47	414
3245.28	414
3246.09	438
3246.89	418
3247.7	430
3248.51	426
3249.31	400
3250.12	424
3250.93	412
3251.73	420
3252.54	418
3253.35	430
3254.15	418
3254.96	408
3255.76	428
3256.57	410
3257.38	410
3258.18	394
3258.99	418
3259.79	396
3260.6	416
3261.4	402
3262.21	418
3263.01	398
3263.82	400
3264.62	410
3265.43	410
3266.23	406
3267.04	388
3267.84	380
3268.64	418
3269.45	406
3270.25	426
3271.06	366
3271.86	400
3272.66	416
3273.47	422
3274.27	416
3275.07	422
3275.88	386
3276.68	386
3277.48	430
3278.28	400
3279.09	400
3279.89	400
3280.69	408
3281.49	392
3282.3	382
3283.1	398
3283.9	402
3284.7	414
3285.5	406
3286.31	390
3287.11	390
3287.91	386
3288.71	390
3289.51	402
3290.31	400
3291.11	400
3291.91	408
3292.71	404
3293.51	370
3294.31	410
3295.12	372
3295.92	410
3296.72	414
3297.52	382
3298.32	390
3299.12	382
3299.92	374
3300.72	388
3301.51	390
3302.31	402
3303.11	400
3303.91	402
3304.71	424
3305.51	400
3306.31	386
3307.11	392
3307.91	398
3308.71	380
3309.5	426
3310.3	366
3311.1	412
3311.9	380
3312.7	376
3313.49	396
3314.29	382
3315.09	384
3315.89	392
3316.69	398
3317.48	382
3318.28	406
3319.08	388
3319.87	398
3320.67	382
3321.47	398
3322.26	418
3323.06	406
3323.86	410
3324.65	398
3325.45	368
3326.25	390
3327.04	386
3327.84	398
3328.63	370
3329.43	372
3330.22	382
3331.02	352
3331.81	376
3332.61	380
3333.4	390
3334.2	404
3334.99	376
3335.79	382
3336.58	392
3337.38	386
3338.17	378
3338.97	378
3339.76	382
3340.56	380
3341.35	366
3342.14	382
3342.94	382
3343.73	396
3344.52	396
3345.32	388
3346.11	382
3346.9	390
3347.7	350
3348.49	388
3349.28	384
3350.08	386
3350.87	374
3351.66	396
3352.45	362
3353.25	380
3354.04	380
3354.83	394
3355.62	384
3356.41	378
3357.21	400
3358	384
3358.79	380
3359.58	370
3360.37	386
3361.16	382
3361.95	376
3362.75	382
3363.54	368
3364.33	378
3365.12	380
3365.91	378
3366.7	372
3367.49	390
3368.28	394
3369.07	366
3369.86	372
3370.65	390
3371.44	396
3372.23	372
3373.02	372
3373.81	340
3374.6	366
3375.39	382
3376.18	356
3376.97	390
3377.75	370
3378.54	378
3379.33	360
3380.12	364
3380.91	370
3381.7	392
3382.49	364
3383.27	388
3384.06	354
3384.85	358
3385.64	374
3386.43	362
3387.21	364
3388	378
3388.79	360
3389.58	352
3390.36	358
3391.15	380
3391.94	384
3392.72	354
3393.51	352
3394.3	372
3395.08	380
3395.87	386
3396.66	358
3397.44	336
3398.23	370
3399.01	378
3399.8	360
3400.59	366
3401.37	362
3402.16	322
3402.94	374
3403.73	360
3404.51	358
3405.3	362
3406.08	378
3406.87	364
3407.65	378
3408.44	378
3409.22	354
3410.01	354
3410.79	364
3411.58	342
3412.36	368
3413.14	368
3413.93	346
3414.71	360
3415.5	350
3416.28	360
3417.06	362
3417.85	366
3418.63	362
3419.41	340
3420.2	356
3420.98	366
3421.76	372
3422.54	354
3423.33	352
3424.11	346
3424.89	362
3425.67	352
3426.46	352
3427.24	340
3428.02	354
3428.8	346
3429.58	370
3430.36	370
3431.15	358
3431.93	376
3432.71	354
3433.49	374
3434.27	346
3435.05	344
3435.83	332
3436.61	368
3437.4	348
3438.18	354
3438.96	350
3439.74	354
3440.52	346
3441.3	354
3442.08	334
3442.86	346
3443.64	332
3444.42	354
3445.2	342
3445.98	360
3446.76	350
3447.53	344
3448.31	346
3449.09	364
3449.87	350
3450.65	342
3451.43	328
3452.21	348
3452.99	342
3453.77	330
3454.54	332
3455.32	342
3456.1	354
3456.88	340
3457.66	320
3458.43	346
3459.21	348
3459.99	348
3460.77	352
3461.54	354
3462.32	320
3463.1	346
3463.88	334
3464.65	350
3465.43	334
3466.21	340
3466.98	320
3467.76	332
3468.53	356
3469.31	328
3470.09	348
3470.86	350
3471.64	348
3472.42	350
3473.19	326
3473.97	340
3474.74	354
3475.52	348
3476.29	310
3477.07	344
3477.84	338
3478.62	350
3479.39	326
3480.17	322
3480.94	334
3481.72	332
3482.49	340
3483.27	330
3484.04	332
3484.82	318
3485.59	336
3486.36	358
3487.14	346
3487.91	336
3488.68	328
3489.46	326
3490.23	338
3491	320
3491.78	342
3492.55	326
3493.32	300
3494.1	324
3494.87	316
3495.64	332
3496.42	338
3497.19	350
3497.96	340
3498.73	342
3499.5	320
3500.28	340
3501.05	294
3501.82	350
3502.59	328
3503.36	320
3504.14	316
3504.91	326
3505.68	318
3506.45	334
3507.22	324
3507.99	346
3508.76	356
3509.53	334
3510.3	348
3511.07	304
3511.84	348
3512.61	334
3513.38	338
3514.16	324
3514.92	350
3515.7	328
3516.46	320
3517.23	328
3518	350
3518.77	308
3519.54	328
3520.31	316
3521.08	324
3521.85	310
3522.62	336
3523.39	330
3524.16	342
3524.93	340
3525.69	318
3526.46	322
3527.23	330
3528	338
3528.77	326
3529.53	330
3530.3	342
3531.07	330
3531.84	322
3532.61	318
3533.37	330
3534.14	334
3534.91	314
3535.68	326
3536.44	326
3537.21	322
3537.98	292
3538.74	318
3539.51	310
3540.28	322
3541.04	336
3541.81	330
3542.58	306
3543.34	308
3544.11	324
3544.87	300
3545.64	320
3546.4	348
3547.17	310
3547.94	292
3548.7	350
3549.47	328
3550.23	338
3551	322
3551.76	322
3552.53	314
3553.29	342
3554.06	320
3554.82	336
3555.59	312
3556.35	324
3557.11	300
3557.88	334
3558.64	300
3559.41	308
3560.17	324
3560.93	316
3561.7	332
3562.46	320
3563.22	314
3563.99	314
3564.75	306
3565.51	324
3566.28	304
3567.04	298
3567.8	338
3568.56	320
3569.33	304
3570.09	342
3570.85	308
3571.61	306
3572.38	280
3573.14	328
3573.9	318
3574.66	298
3575.42	322
3576.19	322
3576.95	332
3577.71	292
3578.47	316
3579.23	272
3579.99	294
3580.75	328
3581.51	286
3582.28	304
3583.04	322
3583.8	320
3584.56	318
3585.32	306
3586.08	304
3586.84	302
3587.6	316
3588.36	306
3589.12	318
3589.88	298
3590.64	286
3591.4	292
3592.16	314
3592.92	302
3593.67	302
3594.43	316
3595.19	318
3595.95	304
3596.71	294
3597.47	306
3598.23	328
3598.99	306
3599.75	290
3600.5	304
3601.26	296
3602.02	312
3602.78	294
3603.54	308
3604.29	296
3605.05	302
3605.81	288
3606.57	308
3607.32	310
3608.08	314
3608.84	282
3609.59	316
3610.35	302
3611.11	322
3611.87	304
3612.62	314
3613.38	316
3614.13	312
3614.89	308
3615.65	320
3616.4	304
3617.16	270
3617.92	314
3618.67	288
3619.43	290
3620.18	306
3620.94	278
3621.69	318
3622.45	298
3623.2	312
3623.96	280
3624.71	300
3625.47	302
3626.22	288
3626.98	304
3627.73	292
3628.49	278
3629.24	280
3630	296
3630.75	306
3631.5	296
3632.26	302
3633.01	278
3633.77	294
3634.52	298
3635.27	300
3636.03	280
3636.78	290
3637.53	320
3638.29	296
3639.04	282
3639.79	296
3640.55	300
3641.3	290
3642.05	306
3642.8	300
3643.56	284
3644.31	282
3645.06	280
3645.81	298
3646.56	292
3647.32	294
3648.07	274
3648.82	292
3649.57	314
3650.32	288
3651.07	284
3651.83	276
3652.58	306
3653.33	294
3654.08	294
3654.83	278
3655.58	280
3656.33	292
3657.08	302
3657.83	292
3658.58	282
3659.33	288
3660.08	318
3660.83	294
3661.58	276
3662.33	276
3663.08	290
3663.83	280
3664.58	270
3665.33	282
3666.08	292
3666.83	278
3667.58	292
3668.33	302
3669.08	314
3669.83	274
3670.57	282
3671.32	276
3672.07	276
3672.82	296
3673.57	288
3674.32	264
3675.07	282
3675.81	286
3676.56	306
3677.31	294
3678.06	268
3678.8	304
3679.55	284
3680.3	282
3681.05	292
3681.79	290
3682.54	292
3683.29	314
3684.04	282
3684.78	304
3685.53	288
3686.28	282
3687.02	280
3687.77	278
3688.51	266
3689.26	288
3690.01	300
3690.75	292
3691.5	266
3692.24	278
3692.99	294
3693.74	280
3694.48	292
3695.23	288
3695.97	270
3696.72	288
3697.46	286
3698.21	286
3698.95	292
3699.7	266
3700.44	300
3701.19	282
3701.93	270
3702.68	278
3703.42	288
3704.16	292
3704.91	268
3705.65	262
3706.4	282
3707.14	280
3707.88	278
3708.63	288
3709.37	280
3710.11	264
3710.86	276
3711.6	296
3712.34	288
3713.09	282
3713.83	292
3714.57	266
3715.31	264
3716.06	280
3716.8	266
3717.54	268
3718.28	294
3719.03	290
3719.77	278
3720.51	270
3721.25	286
3721.99	272
3722.74	262
3723.48	282
3724.22	278
3724.96	282
3725.7	276
3726.44	274
3727.18	280
3727.92	288
3728.67	286
3729.41	280
3730.15	274
3730.89	264
3731.63	258
3732.37	282
3733.11	270
3733.85	292
3734.59	268
3735.33	276
3736.07	260
3736.81	284
3737.55	274
3738.29	300
3739.03	278
3739.77	282
3740.51	254
3741.24	260
3741.98	278
3742.72	270
3743.46	282
3744.2	264
3744.94	272
3745.68	254
3746.42	290
3747.15	284
3747.89	268
3748.63	250
3749.37	266
3750.11	272
3750.84	260
3751.58	274
3752.32	278
3753.06	268
3753.79	274
3754.53	270
3755.27	270
3756.01	264
3756.74	286
3757.48	282
3758.22	258
3758.95	286
3759.69	280
3760.43	268
3761.16	262
3761.9	272
3762.64	264
3763.37	260.039
3764.11	264.058
3764.84	256.217
3765.58	279.612
3766.32	254.367
3767.05	260.242
3767.79	258.41
3768.52	272.283
3769.26	279.757
3769.99	273.239
3770.73	276.054
3771.46	262.471
3772.2	268.894
3772.93	250.074
3773.67	259.513
3774.4	272.075
3775.14	255.498
3775.87	258.911
3776.61	261.235
3777.34	260.703
3778.07	263.046
3778.81	257.862
3779.54	254.024
3780.28	268.983
3781.01	259.049
3781.74	253.944
3782.48	260.667
3783.21	262.77
3783.94	253.383
3784.68	265.346
3785.41	258.912
3786.14	264.839
3786.88	256.389
3787.61	255.641
3788.34	267.453
3789.07	269.107
3789.81	274.602
3790.54	257.007
3791.27	249.915
3792	262.194
3792.74	262.776
3793.47	269.138
3794.2	263.472
3794.93	247.509
3795.66	260.994
3796.4	252.114
3797.13	271.676
3797.86	244.904
3798.59	262.947
3799.32	263.471
3800.05	255.439
3800.78	260.008
3801.52	266.883
3802.25	268.078
3802.98	268.551
3803.71	253.968
3804.44	255.236
3805.17	263.708
3805.9	267.06
3806.63	269.152
3807.36	263.839
3808.09	270.503
3808.82	264.038
3809.55	260.684
3810.28	262.159
3811.01	266.256
3811.74	265.418
3812.47	250.801
3813.2	259.739
3813.93	266.355
3814.66	261.391
3815.38	260.339
3816.11	251.84
3816.84	248.491
3817.57	259.823
3818.3	257.306
3819.03	256.132
3819.76	246.333
3820.49	247.106
3821.21	260.037
3821.94	259.891
3822.67	265.589
3823.4	251.752
3824.13	254.832
3824.85	256.84
3825.58	261.937
3826.31	250.391
3827.04	259.674
3827.77	262.278
3828.49	251.766
3829.22	246.195
3829.95	263.961
3830.67	260.565
3831.4	251.535
3832.13	252.587
3832.85	259.93
3833.58	260.437
3834.31	269.093
3835.03	263.563
3835.76	270.703
3836.49	248.743
3837.21	248.641
3837.94	237.533
3838.52	244
3839.25	250
3839.98	238
3840.71	256
3841.44	254
3842.17	246
3842.9	228
3843.63	246
3844.36	254
3845.09	246
3845.82	244
3846.55	254
3847.28	258
3848	276
3848.73	248
3849.46	248
3850.19	246
3850.92	262
3851.65	276
3852.38	244
3853.1	264
3853.83	244
3854.56	246
3855.29	268
3856.02	252
3856.74	240
3857.47	270
3858.2	242
3858.93	262
3859.65	254
3860.38	258
3861.11	260
3861.84	248
3862.56	232
3863.29	264
3864.02	256
3864.74	236
3865.47	242
3866.2	272
3866.92	246
3867.65	250
3868.38	264
3869.1	262
3869.83	226
3870.55	230
3871.28	252
3872.01	236
3872.73	250
3873.46	228
3874.18	256
3874.91	244
3875.63	250
3876.36	246
3877.08	244
3877.81	246
3878.53	234
3879.26	254
3879.98	230
3880.71	254
3881.43	222
3882.16	236
3882.88	244
3883.6	252
3884.33	240
3885.05	264
3885.78	240
3886.5	230
3887.22	244
3887.95	264
3888.67	234
3889.4	242
3890.12	264
3890.84	264
3891.57	236
3892.29	254
3893.01	234
3893.73	228
3894.46	216
3895.18	246
3895.9	260
3896.63	262
3897.35	248
3898.07	254
3898.79	252
3899.51	254
3900.24	252
3900.96	252
3901.68	246
3902.4	256
3903.12	240
3903.84	234
3904.57	238
3905.29	226
3906.01	260
3906.73	242
3907.45	252
3908.17	230
3908.89	256
3909.61	240
3910.33	250
3911.06	218
3911.78	248
3912.5	238
3913.22	246
3913.94	236
3914.66	236
3915.38	240
3916.1	256
3916.82	242
3917.54	232
3918.26	258
3918.98	228
3919.69	226
3920.41	242
3921.13	252
3921.85	244
3922.57	250
3923.29	244
3924.01	220
3924.73	250
3925.45	216
3926.17	238
3926.88	228
3927.6	218
3928.32	232
3929.04	232
3929.76	232
3930.47	242
3931.19	240
3931.91	250
3932.63	236
3933.35	240
3934.06	246
3934.78	240
3935.5	242
3936.22	252
3936.93	240
3937.65	222
3938.37	242
3939.08	214
3939.8	228
3940.52	222
3941.23	244
3941.95	218
3942.67	240
3943.38	246
3944.1	208
3944.82	246
3945.53	232
3946.25	250
3946.96	238
3947.68	248
3948.4	218
3949.11	226
3949.83	226
3950.54	220
3951.26	232
3951.97	236
3952.69	234
3953.4	224
3954.12	224
3954.83	236
3955.55	246
3956.26	224
3956.98	230
3957.69	220
3958.4	224
3959.12	232
3959.83	242
3960.55	224
3961.26	234
3961.97	236
3962.69	238
3963.4	224
3964.12	242
3964.83	240
3965.54	224
3966.26	238
3966.97	216
3967.68	246
3968.4	230
3969.11	228
3969.82	224
3970.53	222
3971.25	226
3971.96	240
3972.67	228
3973.38	220
3974.1	218
3974.81	230
3975.52	226
3976.23	228
3976.94	236
3977.66	232
3978.37	222
3979.08	226
3979.79	206
3980.5	232
3981.21	230
3981.92	232
3982.64	212
3983.35	216
3984.06	240
3984.77	244
3985.48	232
3986.19	224
3986.9	232
3987.61	218
3988.32	208
3989.03	220
3989.74	222
3990.45	228
3991.16	228
3991.87	208
3992.58	250
3993.29	222
3994	218
3994.71	226
3995.42	226
3996.13	232
3996.84	240
3997.55	230
3998.26	226
3998.97	232
3999.67	218
