#Acq. time (s)=	10
#Accumulations=	1
#Range (cm-¹)=	200...4000
#Windows=	5
#Autofocus=	Off
#AutoExposure=	Off
#Spike filter=	Off
#Delay time (s)=	0
#Binning=	1
#Readout mode=	Signal
#DeNoise=	Off
#ICS correction=	Off
#Dark correction=	Off
#Inst. Process=	Off
#Instrument=	LabRAM HR Evol
#Detector=	Syncerity OE
#Objective=	x100_VIS
#Grating=	600 (500nm)
#ND Filter=	25%
#Laser=	633nm_Edge
#Hole=	100.021
#Range=	Visible
#Project=	Omar
#Sample=	03-07-23
#Site=	1
#Title=	OR
#Remark=	
#Date=	03.07.2023 13:45
#Acquired=	03.07.2023 13:45:56
200.404	710
201.671	710
202.938	714
204.205	738
205.472	696
206.737	706
208.003	714
209.269	714
210.535	732
211.799	696
213.064	712
214.33	688
215.595	716
216.858	698
218.122	712
219.387	710
220.649	696
221.913	696
223.177	718
224.439	724
225.703	732
226.966	712
228.227	722
229.49	706
230.752	720
232.013	714
233.275	678
234.536	690
235.798	702
237.059	740
238.319	734
239.58	722
240.839	724
242.1	710
243.361	706
244.619	712
245.879	732
247.138	704
248.398	754
249.655	718
250.915	700
252.172	710
253.431	728
254.688	746
255.947	708
257.204	718
258.462	750
259.718	708
260.976	738
262.232	710
263.487	724
264.744	718
266	734
267.256	730
268.511	708
269.767	702
271.022	706
272.276	728
273.532	694
274.786	708
276.04	726
277.295	734
278.548	684
279.801	738
281.055	728
282.308	740
283.561	738
284.814	710
286.066	758
287.318	734
288.572	718
289.823	770
291.074	724
292.327	752
293.578	740
294.828	744
296.079	748
297.331	748
298.581	778
299.831	762
301.08	740
302.33	778
303.581	764
304.83	738
306.079	796
307.327	772
308.576	782
309.825	734
311.073	760
312.321	774
313.569	760
314.816	730
316.064	766
317.311	766
318.558	754
319.806	798
321.052	724
322.299	756
323.545	760
324.79	728
326.036	760
327.282	752
328.527	762
329.772	758
331.017	784
332.261	792
333.506	774
334.75	784
335.994	766
337.238	758
338.482	772
339.725	746
340.968	748
342.211	784
343.454	754
344.697	804
345.939	766
347.182	740
348.424	768
349.666	766
350.907	806
352.149	762
353.39	800
354.631	790
355.87	776
357.111	724
358.352	820
359.592	762
360.832	768
362.072	782
363.311	810
364.549	800
365.789	738
367.028	782
368.267	782
369.505	804
370.742	818
371.981	776
373.219	762
374.457	766
375.694	788
376.93	800
378.168	766
379.405	816
380.642	804
381.877	774
383.113	772
384.35	792
385.584	802
386.82	768
388.056	806
389.291	790
390.525	796
391.76	802
392.995	760
394.228	808
395.463	778
396.696	774
397.93	800
399.164	784
400.396	780
401.63	770
402.863	770
404.095	802
405.328	798
406.559	806
407.791	816
409.022	816
410.254	830
411.486	808
412.717	812
413.948	790
415.178	830
416.409	800
417.639	838
418.87	810
420.099	854
421.329	812
422.558	818
423.788	840
425.016	824
426.244	814
427.474	882
428.701	850
429.93	864
431.158	848
432.386	848
433.613	836
434.84	836
436.068	826
437.294	854
438.522	830
439.748	838
440.974	858
442.201	858
443.426	834
444.651	858
445.878	848
447.103	818
448.327	842
449.553	848
450.777	870
452.001	842
453.225	822
454.45	880
455.674	866
456.897	846
458.121	870
459.344	830
460.567	836
461.789	840
463.012	890
464.235	842
465.457	850
466.679	834
467.9	858
469.122	828
470.344	848
471.565	852
472.786	838
474.006	850
475.227	866
476.447	890
477.668	842
478.888	862
480.107	870
481.327	898
482.546	866
483.765	856
484.984	866
486.202	872
487.421	864
488.639	886
489.857	858
491.075	848
492.292	886
493.51	870
494.727	880
495.944	896
497.161	870
498.377	892
499.594	862
500.81	876
502.026	850
503.242	870
504.458	868
505.673	870
506.888	860
508.104	858
509.318	898
510.533	860
511.748	880
512.962	850
514.176	888
515.39	902
516.602	890
517.816	864
519.029	860
520.242	884
521.455	866
522.668	876
523.881	868
525.092	888
526.304	904
527.516	874
528.728	846
529.939	910
531.149	858
532.361	882
533.572	880
534.783	912
535.992	874
537.202	820
538.413	880
539.623	878
540.831	868
542.041	860
543.25	894
544.458	876
545.667	894
546.876	888
548.084	904
549.292	870
550.501	882
551.707	898
552.915	860
554.123	852
555.329	884
556.537	870
557.743	888
558.95	858
560.156	870
561.362	840
562.568	842
563.773	890
564.979	906
566.184	872
567.389	890
568.595	854
569.799	914
571.004	868
572.207	900
573.412	886
574.615	904
575.82	928
577.022	924
578.226	912
579.429	906
580.631	888
581.834	868
583.036	910
584.239	900
585.44	900
586.643	902
587.844	918
589.045	888
590.247	936
591.448	878
592.649	906
593.849	896
595.049	894
596.25	938
597.45	904
598.649	918
599.85	920
601.049	884
602.248	880
603.448	910
604.646	900
605.844	926
607.042	874
608.241	922
609.439	914
610.637	914
611.834	908
613.032	910
614.229	912
615.426	902
616.622	924
617.819	898
619.016	902
620.212	906
621.408	888
622.603	948
623.799	946
624.994	964
626.19	940
627.385	944
628.58	910
629.774	904
630.969	930
632.163	912
633.356	956
634.55	930
635.744	886
636.938	922
638.131	962
639.324	954
640.517	984
641.71	970
642.902	984
644.094	984
645.286	992
646.478	934
647.67	972
648.861	976
650.052	954
651.243	972
652.434	996
653.625	946
654.815	954
656.006	960
657.196	972
658.384	944
659.574	956
660.764	924
661.953	938
663.142	960
664.331	954
665.52	960
666.709	974
667.897	958
669.084	986
670.272	966
671.46	956
672.648	946
673.835	986
675.021	982
676.208	970
677.395	944
678.582	1000
679.768	908
680.953	946
682.14	938
683.326	978
684.512	958
685.696	990
686.881	944
688.067	960
689.252	938
690.435	948
691.62	972
692.804	998
693.987	940
695.171	976
696.355	962
697.538	942
698.721	960
699.905	958
701.087	960
702.27	992
703.451	942
704.634	968
705.816	958
706.997	948
708.179	980
709.36	960
710.542	962
711.722	996
712.903	972
714.083	986
715.264	982
716.445	974
717.624	950
718.805	974
719.984	982
721.162	960
722.342	980
723.52	976
724.7	962
725.878	964
727.057	956
728.235	988
729.414	1004
730.591	976
731.768	972
732.946	1006
734.123	986
735.301	954
736.477	1006
737.653	1004
738.83	976
740.006	1006
741.182	990
742.358	1010
743.534	1012
744.709	998
745.885	974
747.06	1000
748.234	1054
749.41	982
750.584	1004
751.758	1012
752.931	996
754.106	980
755.28	1036
756.453	980
757.626	1020
758.8	984
759.973	1022
761.145	1028
762.318	966
763.49	1040
764.662	964
765.835	978
767.006	1006
768.178	1016
769.349	984
770.52	1006
771.691	1014
772.861	1010
774.033	978
775.203	1006
776.373	962
777.543	1038
778.713	978
779.883	954
781.052	1010
782.221	1002
783.39	1018
784.559	992
785.727	1036
786.896	1038
788.064	992
789.232	978
790.4	986
791.568	1000
792.735	990
793.903	1018
795.07	1044
796.237	1010
797.404	1010
798.57	988
799.737	1046
800.903	992
802.068	998
803.234	1026
804.399	1018
805.565	1028
806.73	1022
807.896	1034
809.061	1010
810.224	988
811.389	1056
812.553	1036
813.717	1028
814.881	1024
816.045	1054
817.208	1024
818.371	972
819.535	1084
820.698	1038
821.859	1042
823.022	1060
824.185	1062
825.347	1042
826.508	1038
827.67	1032
828.832	1028
829.993	1060
831.154	1040
832.316	1022
833.476	1054
834.637	1070
835.797	1020
836.957	1028
838.117	1042
839.278	1046
840.436	1020
841.596	1076
842.755	1048
843.914	1042
845.074	1016
846.232	1056
847.391	1048
848.548	1048
849.707	1054
850.864	1070
852.022	1042
853.179	1068
854.337	1042
855.493	1074
856.651	1054
857.807	1054
858.964	1040
860.12	1070
861.277	1032
862.432	1030
863.589	1054
864.744	1028
865.9	1052
867.055	1062
868.209	1068
869.365	1032
870.519	1044
871.674	1078
872.828	1078
873.982	1070
875.136	1036
876.29	1062
877.443	1080
878.597	1076
879.75	1090
880.902	1084
882.056	1040
883.208	1058
884.36	1064
885.512	1086
886.665	1074
887.816	1072
888.967	1022
890.118	1026
891.271	1070
892.421	1060
893.572	1038
894.722	1084
895.874	1048
897.024	1062
898.174	1018
899.323	1092
900.473	1016
901.622	1068
902.771	1064
903.922	1098
905.07	1062
906.219	1034
907.367	1078
908.516	1070
909.664	1076
910.811	1022
911.959	1070
913.107	1052
914.254	1052
915.401	1012
916.55	1052
917.696	1034
918.843	1080
919.99	1070
921.136	1052
922.282	1078
923.428	1050
924.574	1056
925.719	1062
926.863	1066
928.009	1028
929.154	1058
930.299	1062
931.443	1102
932.588	1074
933.732	1072
934.876	1056
936.02	1080
937.164	1076
938.308	1054
939.45	1060
940.593	1032
941.736	1068
942.879	1138
944.022	1102
945.165	1084
946.306	1072
947.448	1094
948.59	1100
949.732	1124
950.874	1112
952.014	1100
953.155	1086
954.296	1116
955.437	1076
956.577	1114
957.718	1088
958.858	1098
959.997	1078
961.137	1128
962.277	1072
963.416	1108
964.555	1088
965.695	1090
966.833	1124
967.972	1088
969.111	1114
970.248	1092
971.387	1086
972.524	1102
973.662	1106
974.8	1112
975.936	1070
977.074	1134
978.21	1108
979.348	1068
980.483	1124
981.62	1106
982.757	1080
983.893	1122
985.029	1106
986.164	1100
987.299	1096
988.435	1118
989.569	1120
990.705	1116
991.839	1122
992.974	1094
994.108	1088
995.243	1092
996.376	1144
997.509	1104
998.644	1108
999.777	1128
1000.91	1102
1002.04	1116
1003.18	1120
1004.31	1112
1005.44	1096
1006.57	1158
1007.71	1128
1008.84	1114
1009.97	1118
1011.1	1112
1012.23	1148
1013.36	1120
1014.49	1112
1015.63	1084
1016.76	1104
1017.89	1144
1019.02	1140
1020.15	1106
1021.28	1108
1022.41	1134
1023.54	1122
1024.66	1150
1025.79	1152
1026.92	1106
1028.05	1142
1029.18	1104
1030.31	1090
1031.44	1126
1032.56	1124
1033.69	1104
1034.82	1110
1035.95	1146
1037.08	1124
1038.2	1112
1039.33	1104
1040.46	1156
1041.58	1168
1042.71	1152
1043.83	1140
1044.96	1142
1046.09	1098
1047.21	1178
1048.34	1126
1049.46	1160
1050.59	1136
1051.71	1108
1052.84	1142
1053.96	1146
1055.09	1196
1056.21	1134
1057.33	1182
1058.46	1152
1059.58	1122
1060.71	1120
1061.83	1138
1062.95	1162
1064.07	1160
1065.2	1148
1066.32	1144
1067.44	1178
1068.56	1150
1069.69	1142
1070.81	1168
1071.93	1166
1073.05	1186
1074.17	1164
1075.29	1152
1076.41	1146
1077.54	1146
1078.66	1150
1079.78	1136
1080.9	1140
1082.02	1148
1083.14	1144
1084.25	1128
1085.37	1118
1086.49	1152
1087.61	1162
1088.73	1134
1089.85	1110
1090.97	1120
1092.09	1114
1093.21	1138
1094.32	1148
1095.44	1136
1096.56	1118
1097.68	1154
1098.79	1154
1099.91	1172
1101.03	1134
1102.14	1110
1103.26	1138
1104.38	1106
1105.49	1138
1106.61	1128
1107.72	1140
1108.84	1132
1109.96	1098
1111.07	1166
1112.19	1180
1113.3	1142
1114.42	1092
1115.53	1170
1116.64	1144
1117.76	1138
1118.87	1114
1119.99	1100
1121.1	1202
1122.21	1166
1123.33	1132
1124.44	1148
1125.55	1114
1126.66	1138
1127.78	1172
1128.89	1112
1130	1116
1131.11	1140
1132.23	1170
1133.34	1170
1134.45	1120
1135.56	1170
1136.67	1162
1137.78	1152
1138.89	1124
1140	1140
1141.11	1162
1142.22	1140
1143.33	1158
1144.44	1196
1145.55	1138
1146.66	1170
1147.77	1168
1148.88	1128
1149.99	1174
1151.1	1148
1152.21	1186
1153.32	1170
1154.42	1168
1155.53	1208
1156.64	1168
1157.75	1176
1158.85	1244
1159.96	1166
1161.07	1180
1162.17	1156
1163.28	1204
1164.39	1194
1165.49	1146
1166.6	1202
1167.71	1168
1168.81	1156
1169.92	1156
1171.02	1192
1172.13	1174
1173.23	1158
1174.34	1166
1175.44	1220
1176.55	1134
1177.65	1184
1178.76	1168
1179.86	1194
1180.97	1180
1182.07	1182
1183.17	1154
1184.28	1162
1185.38	1194
1186.48	1162
1187.58	1204
1188.69	1160
1189.79	1192
1190.89	1162
1191.99	1208
1193.1	1160
1194.2	1162
1195.3	1158
1196.4	1178
1197.5	1206
1198.6	1168
1199.7	1156
1200.8	1194
1201.9	1152
1203	1130
1204.1	1170
1205.2	1156
1206.3	1164
1207.4	1126
1208.5	1134
1209.6	1134
1210.7	1158
1211.8	1160
1212.9	1134
1214	1136
1215.1	1174
1216.19	1158
1217.29	1116
1218.39	1162
1219.49	1142
1220.58	1106
1221.68	1142
1222.78	1150
1223.88	1146
1224.97	1152
1226.07	1156
1227.17	1150
1228.26	1128
1229.36	1154
1230.45	1180
1231.55	1128
1232.65	1106
1233.74	1168
1234.84	1166
1235.93	1186
1237.02	1148
1238.12	1180
1239.21	1162
1240.31	1116
1241.4	1114
1242.5	1156
1243.59	1186
1244.68	1112
1245.78	1154
1246.87	1160
1247.96	1146
1249.06	1152
1250.15	1132
1251.24	1172
1252.33	1128
1253.43	1146
1254.52	1136
1255.61	1176
1256.7	1172
1257.79	1166
1258.88	1178
1259.98	1182
1261.07	1156
1262.16	1166
1263.25	1146
1264.34	1196
1265.43	1160
1266.52	1176
1267.61	1184
1268.7	1134
1269.79	1212
1270.88	1156
1271.96	1178
1273.05	1166
1274.14	1172
1275.23	1160
1276.32	1174
1277.41	1150
1278.5	1194
1279.58	1144
1280.67	1164.2
1281.76	1189.83
1282.85	1170.64
1283.93	1163.11
1285.02	1211.9
1286.11	1173.08
1287.19	1139.56
1288.28	1161.05
1289.37	1198.33
1290.45	1181.03
1291.54	1157.83
1292.63	1165.44
1293.71	1188.11
1294.8	1186.06
1295.88	1158.65
1296.97	1158.27
1298.05	1177.64
1299.14	1160.76
1300.22	1192.45
1301.31	1152.92
1302.39	1152.84
1303.47	1214.58
1304.56	1187.38
1305.64	1162.51
1306.72	1158.94
1307.81	1160.96
1308.89	1195.96
1309.97	1186.78
1311.06	1171.01
1312.14	1197.82
1313.22	1180.15
1314.3	1143.64
1315.39	1183.35
1316.47	1200.84
1317.55	1195.86
1318.63	1183.51
1319.71	1186.61
1320.79	1184.68
1321.88	1227.47
1322.96	1184.1
1324.04	1197.9
1325.12	1189.19
1326.2	1179.41
1327.28	1176.34
1328.36	1181.48
1329.44	1191.19
1330.52	1175.05
1331.6	1176.72
1332.68	1184.83
1333.76	1225.98
1334.84	1212.68
1335.91	1192.78
1336.99	1150.61
1338.07	1179.45
1339.15	1181.82
1340.23	1166.27
1341.31	1200.87
1342.38	1207.4
1343.46	1180.47
1344.54	1186.12
1345.62	1184.01
1346.69	1190.17
1347.77	1170.75
1348.85	1187.07
1349.92	1205.84
1351	1201.57
1352.08	1186.48
1353.15	1195.95
1354.23	1173.64
1355.3	1157.59
1356.38	1173.44
1357.46	1211.02
1358.53	1200.24
1359.6	1204.57
1360.68	1208.01
1361.75	1208.89
1362.83	1205.46
1363.9	1186.77
1364.98	1174.54
1366.05	1179.75
1367.13	1176.82
1368.2	1183.82
1369.27	1193.44
1370.35	1214.39
1371.42	1203.23
1372.49	1193.81
1373.56	1172.7
1374.64	1197.83
1375.71	1215.92
1376.78	1192.31
1377.85	1180.61
1378.93	1199.05
1380	1204.42
1381.07	1194.24
1382.14	1200.38
1383.21	1224.96
1384.28	1204.31
1385.35	1190.48
1386.43	1213.3
1387.5	1194.57
1388.57	1192.1
1389.64	1206.87
1390.13	1206
1391.2	1216
1392.28	1204
1393.35	1160
1394.43	1198
1395.5	1218
1396.57	1182
1397.65	1188
1398.72	1206
1399.8	1226
1400.87	1210
1401.94	1206
1403.02	1188
1404.09	1206
1405.17	1164
1406.24	1212
1407.31	1226
1408.38	1180
1409.46	1202
1410.53	1166
1411.6	1174
1412.67	1166
1413.74	1188
1414.82	1194
1415.89	1224
1416.96	1140
1418.03	1180
1419.1	1150
1420.17	1158
1421.24	1186
1422.31	1154
1423.38	1170
1424.45	1176
1425.52	1158
1426.59	1200
1427.66	1164
1428.73	1176
1429.8	1192
1430.87	1214
1431.94	1158
1433.01	1180
1434.08	1162
1435.14	1168
1436.21	1184
1437.28	1154
1438.35	1150
1439.42	1184
1440.48	1156
1441.55	1168
1442.62	1204
1443.68	1140
1444.75	1154
1445.82	1182
1446.89	1180
1447.95	1200
1449.02	1176
1450.08	1172
1451.15	1118
1452.22	1174
1453.28	1212
1454.35	1158
1455.41	1164
1456.48	1172
1457.54	1168
1458.61	1164
1459.67	1162
1460.73	1182
1461.8	1126
1462.86	1158
1463.93	1146
1464.99	1184
1466.05	1154
1467.12	1148
1468.18	1154
1469.24	1192
1470.31	1184
1471.37	1160
1472.43	1216
1473.49	1142
1474.56	1168
1475.62	1178
1476.68	1150
1477.74	1126
1478.8	1172
1479.86	1160
1480.93	1178
1481.99	1174
1483.05	1182
1484.11	1170
1485.17	1172
1486.23	1156
1487.29	1234
1488.35	1176
1489.41	1138
1490.47	1190
1491.53	1188
1492.59	1176
1493.65	1140
1494.71	1194
1495.76	1140
1496.82	1188
1497.88	1214
1498.94	1182
1500	1156
1501.06	1176
1502.11	1148
1503.17	1186
1504.23	1158
1505.29	1168
1506.34	1180
1507.4	1180
1508.46	1140
1509.51	1150
1510.57	1166
1511.63	1154
1512.68	1156
1513.74	1154
1514.8	1160
1515.85	1168
1516.91	1140
1517.96	1128
1519.02	1142
1520.07	1148
1521.13	1154
1522.18	1150
1523.24	1136
1524.29	1146
1525.34	1164
1526.4	1168
1527.45	1132
1528.51	1136
1529.56	1168
1530.61	1134
1531.67	1144
1532.72	1128
1533.77	1168
1534.82	1174
1535.88	1158
1536.93	1150
1537.98	1132
1539.03	1150
1540.08	1136
1541.14	1200
1542.19	1076
1543.24	1176
1544.29	1130
1545.34	1170
1546.39	1160
1547.44	1148
1548.49	1128
1549.54	1140
1550.59	1120
1551.64	1150
1552.69	1120
1553.74	1184
1554.79	1166
1555.84	1162
1556.89	1130
1557.94	1148
1558.99	1166
1560.04	1120
1561.09	1108
1562.14	1168
1563.18	1128
1564.23	1180
1565.28	1126
1566.33	1104
1567.37	1186
1568.42	1156
1569.47	1108
1570.52	1114
1571.56	1144
1572.61	1114
1573.66	1116
1574.7	1118
1575.75	1122
1576.79	1150
1577.84	1094
1578.89	1120
1579.93	1146
1580.98	1128
1582.02	1104
1583.07	1110
1584.11	1140
1585.16	1116
1586.2	1148
1587.25	1180
1588.29	1126
1589.34	1128
1590.38	1120
1591.42	1128
1592.47	1152
1593.51	1128
1594.55	1126
1595.6	1168
1596.64	1104
1597.68	1156
1598.72	1122
1599.77	1140
1600.81	1110
1601.85	1160
1602.89	1164
1603.94	1138
1604.98	1134
1606.02	1116
1607.06	1154
1608.1	1094
1609.14	1136
1610.18	1132
1611.22	1112
1612.26	1138
1613.3	1112
1614.34	1122
1615.38	1102
1616.42	1138
1617.46	1154
1618.5	1096
1619.54	1104
1620.58	1112
1621.62	1136
1622.66	1134
1623.7	1094
1624.74	1086
1625.78	1108
1626.81	1126
1627.85	1130
1628.89	1100
1629.93	1086
1630.97	1088
1632	1100
1633.04	1146
1634.08	1094
1635.11	1092
1636.15	1126
1637.19	1116
1638.22	1078
1639.26	1100
1640.3	1088
1641.33	1082
1642.37	1068
1643.4	1070
1644.44	1078
1645.47	1094
1646.51	1072
1647.55	1050
1648.58	1092
1649.61	1066
1650.65	1050
1651.68	1078
1652.72	1100
1653.75	1074
1654.79	1046
1655.82	1102
1656.85	1070
1657.89	1076
1658.92	1062
1659.95	1056
1660.98	1070
1662.02	1098
1663.05	1046
1664.08	1090
1665.12	1094
1666.15	1036
1667.18	1034
1668.21	1044
1669.24	1010
1670.27	1042
1671.3	1096
1672.34	1054
1673.37	984
1674.4	1032
1675.43	1024
1676.46	1016
1677.49	1034
1678.52	1036
1679.55	1008
1680.58	1036
1681.61	1014
1682.64	1034
1683.67	1016
1684.7	1036
1685.73	1012
1686.75	1032
1687.78	1030
1688.81	1016
1689.84	1040
1690.87	992
1691.9	1042
1692.93	998
1693.95	1046
1694.98	1044
1696.01	1026
1697.03	1054
1698.06	1008
1699.09	1014
1700.12	1062
1701.14	998
1702.17	988
1703.2	1022
1704.22	1026
1705.25	994
1706.27	1030
1707.3	1006
1708.32	1036
1709.35	1018
1710.37	994
1711.4	990
1712.42	1014
1713.45	1012
1714.47	1006
1715.5	1018
1716.52	1052
1717.55	1000
1718.57	1024
1719.59	970
1720.62	1012
1721.64	1008
1722.67	992
1723.69	1010
1724.71	1022
1725.73	998
1726.76	998
1727.78	1010
1728.8	986
1729.82	980
1730.84	1020
1731.87	986
1732.89	1002
1733.91	1024
1734.93	980
1735.95	950
1736.97	968
1737.99	988
1739.01	1008
1740.04	970
1741.06	972
1742.08	1006
1743.1	980
1744.12	1044
1745.14	976
1746.16	954
1747.18	994
1748.19	978
1749.21	1006
1750.23	978
1751.25	1008
1752.27	990
1753.29	962
1754.31	970
1755.33	996
1756.34	966
1757.36	966
1758.38	998
1759.4	996
1760.41	968
1761.43	942
1762.45	992
1763.47	984
1764.48	936
1765.5	946
1766.51	946
1767.53	992
1768.55	992
1769.56	1022
1770.58	994
1771.6	956
1772.61	996
1773.63	982
1774.64	974
1775.66	986
1776.67	988
1777.69	946
1778.7	970
1779.71	962
1780.73	980
1781.74	986
1782.76	958
1783.77	980
1784.78	986
1785.8	1004
1786.81	968
1787.82	970
1788.84	978
1789.85	962
1790.86	952
1791.88	998
1792.89	964
1793.9	930
1794.91	956
1795.92	962
1796.94	972
1797.95	966
1798.96	996
1799.97	976
1800.98	956
1801.99	984
1803	940
1804.01	948
1805.02	986
1806.03	990
1807.04	964
1808.05	952
1809.06	940
1810.07	988
1811.08	924
1812.09	930
1813.1	960
1814.11	916
1815.12	1016
1816.13	962
1817.14	948
1818.14	948
1819.15	930
1820.16	942
1821.17	934
1822.18	942
1823.18	974
1824.19	926
1825.2	916
1826.21	956
1827.21	934
1828.22	916
1829.23	958
1830.23	962
1831.24	918
1832.25	972
1833.25	930
1834.26	954
1835.27	976
1836.27	942
1837.28	980
1838.28	944
1839.29	952
1840.29	940
1841.3	936
1842.3	924
1843.31	888
1844.31	922
1845.31	952
1846.32	944
1847.32	904
1848.33	930
1849.33	910
1850.33	960
1851.34	934
1852.34	920
1853.34	912
1854.35	926
1855.35	904
1856.35	936
1857.35	926
1858.36	894
1859.36	928
1860.36	924
1861.36	918
1862.36	922
1863.36	930
1864.36	902
1865.37	916
1866.37	938
1867.37	936
1868.37	908
1869.37	912
1870.37	894
1871.37	912
1872.37	908
1873.37	940
1874.37	872
1875.37	908
1876.37	876
1877.37	884
1878.37	926
1879.37	914
1880.36	912
1881.36	924
1882.36	886
1883.36	884
1884.36	908
1885.36	910
1886.35	902
1887.35	916
1888.35	904
1889.35	914
1890.34	880
1891.34	918
1892.34	844
1893.34	908
1894.33	890
1895.33	892
1896.33	904
1897.32	894
1898.32	894
1899.31	918
1900.31	938
1901.3	894
1902.3	912
1903.3	918
1904.29	898
1905.29	896
1906.28	930
1907.27	894
1908.27	900
1909.26	896
1910.26	884
1911.25	898
1912.25	892
1913.24	868
1914.23	930
1915.23	920
1916.22	918
1917.21	902
1918.21	906
1919.2	894
1920.19	886
1921.18	886
1922.18	888
1923.17	886
1924.16	876
1925.15	894
1926.14	898
1927.14	888
1928.13	908
1929.12	882
1930.11	890
1931.1	906
1932.09	836
1933.08	902
1934.07	892
1935.06	906
1936.05	880
1937.04	902
1938.03	864
1939.02	872
1940.01	868
1941	920
1941.99	886
1942.98	876
1943.97	904
1944.96	932
1945.95	870
1946.94	900
1947.92	886
1948.91	900
1949.9	872
1950.89	842
1951.88	890
1952.86	872
1953.85	892
1954.84	874
1955.83	872
1956.81	864
1957.8	900
1958.79	912
1959.77	908
1960.76	878
1961.75	888
1962.73	872
1963.72	894
1964.7	872
1965.69	882
1966.68	910
1967.66	898
1968.65	860
1969.63	876
1970.62	842
1971.6	868
1972.59	844
1973.57	884
1974.55	866
1975.54	832
1976.52	862
1977.51	892
1978.49	852
1979.47	882
1980.46	864
1981.44	880
1982.42	856
1983.41	896
1984.39	870
1985.37	848
1986.35	850
1987.34	890
1988.32	862
1989.3	888
1990.28	846
1991.27	876
1992.25	864
1993.23	872
1994.21	878
1995.19	852
1996.17	870
1997.15	856
1998.13	858
1999.11	846
2000.09	868
2001.07	854
2002.05	884
2003.03	848
2004.01	840
2004.99	814
2005.97	842
2006.95	908
2007.93	878
2008.91	844
2009.89	834
2010.87	844
2011.85	846
2012.82	848
2013.8	818
2014.78	832
2015.76	856
2016.74	842
2017.72	886
2018.69	852
2019.67	820
2020.65	844
2021.62	822
2022.6	834
2023.58	854
2024.55	858
2025.53	850
2026.51	842
2027.48	848
2028.46	822
2029.44	826
2030.41	854
2031.39	844
2032.36	842
2033.34	816
2034.31	834
2035.29	848
2036.26	818
2037.24	852
2038.21	852
2039.19	828
2040.16	816
2041.14	836
2042.11	804
2043.08	844
2044.06	812
2045.03	822
2046	816
2046.98	820
2047.95	830
2048.92	822
2049.9	868
2050.87	838
2051.84	814
2052.81	830
2053.79	856
2054.76	830
2055.73	842
2056.7	826
2057.67	820
2058.64	778
2059.61	780
2060.59	850
2061.56	832
2062.53	842
2063.5	834
2064.47	846
2065.44	822
2066.41	846
2067.38	834
2068.35	820
2069.32	830
2070.29	826
2071.26	832
2072.23	828
2073.2	816
2074.17	828
2075.14	818
2076.1	776
2077.07	790
2078.04	822
2079.01	816
2079.98	800
2080.95	850
2081.91	818
2082.88	816
2083.85	814
2084.82	774
2085.78	764
2086.75	800
2087.72	798
2088.68	794
2089.65	792
2090.62	828
2091.58	798
2092.55	826
2093.52	802
2094.48	832
2095.45	794
2096.41	802
2097.38	818
2098.35	764
2099.31	848
2100.28	786
2101.24	780
2102.21	786
2103.17	786
2104.14	800
2105.1	796
2106.06	836
2107.03	798
2107.99	778
2108.96	796
2109.92	784
2110.88	806
2111.85	782
2112.81	804
2113.77	790
2114.73	826
2115.7	778
2116.66	792
2117.62	784
2118.58	796
2119.55	804
2120.51	764
2121.47	784
2122.43	810
2123.39	764
2124.36	798
2125.32	792
2126.28	782
2127.24	776
2128.2	788
2129.16	796
2130.12	780
2131.08	792
2132.04	794
2133	806
2133.96	790
2134.92	760
2135.88	760
2136.84	794
2137.8	748
2138.76	762
2139.72	788
2140.68	762
2141.64	744
2142.59	778
2143.55	754
2144.51	766
2145.47	796
2146.43	754
2147.39	748
2148.34	748
2149.3	796
2150.26	760
2151.22	746
2152.17	764
2153.13	802
2154.09	762
2155.04	752
2156	750
2156.96	714
2157.91	764
2158.87	734
2159.82	762
2160.78	760
2161.74	742
2162.69	768
2163.65	790
2164.6	760
2165.56	786
2166.51	776
2167.47	750
2168.42	758
2169.38	750
2170.33	768
2171.29	742
2172.24	778
2173.19	794
2174.15	756
2175.1	746
2176.05	782
2177.01	798
2177.96	772
2178.91	756
2179.87	754
2180.82	744
2181.77	746
2182.73	764
2183.68	762
2184.63	748
2185.58	760
2186.53	756
2187.49	738
2188.44	740
2189.39	750
2190.34	734
2191.29	754
2192.24	732
2193.19	742
2194.14	728
2195.09	716
2196.05	744
2197	728
2197.95	740
2198.9	738
2199.85	722
2200.8	744
2201.75	724
2202.7	720
2203.64	716
2204.59	730
2205.54	730
2206.49	724
2207.44	718
2208.39	720
2209.34	720
2210.29	760
2211.23	706
2212.18	734
2213.13	722
2214.08	706
2215.03	710
2215.97	714
2216.92	754
2217.87	750
2218.81	766
2219.76	728.141
2220.71	722.379
2221.66	749.459
2222.6	738.977
2223.55	729.219
2224.49	722.036
2225.44	739.13
2226.39	715.803
2227.33	750.094
2228.28	714.311
2229.22	733.054
2230.17	746.13
2231.11	720.571
2232.06	726.708
2233	709.047
2233.95	754.658
2234.89	750.035
2235.84	689.818
2236.78	700.891
2237.73	740.702
2238.67	725.524
2239.61	720.737
2240.56	717.604
2241.5	718.061
2242.45	704.193
2243.39	734.707
2244.33	703.979
2245.28	731.151
2246.22	706.039
2247.16	724.522
2248.1	742.702
2249.05	736.027
2249.99	722.455
2250.93	736.906
2251.87	720.686
2252.81	755.533
2253.76	705.864
2254.7	717.426
2255.64	714.099
2256.58	714.035
2257.52	708.535
2258.46	714.893
2259.4	734.84
2260.34	717.659
2261.28	722.798
2262.23	718.288
2263.17	722.305
2264.11	701.96
2265.05	692.63
2265.99	730.366
2266.93	718
2267.87	711.177
2268.8	708.742
2269.74	714.621
2270.68	719.398
2271.62	726.593
2272.56	721.839
2273.5	715.696
2274.44	730.932
2275.38	725.48
2276.32	729.19
2277.25	718.188
2278.19	719.004
2279.13	706.594
2280.07	687.503
2281.01	705.886
2281.94	728.165
2282.88	697.67
2283.82	713.618
2284.76	706.535
2285.69	720.378
2286.63	733.26
2287.57	722.616
2288.5	706.859
2289.44	730.741
2290.37	706.462
2291.31	708.757
2292.25	710.215
2293.18	719.734
2294.12	707.578
2295.05	715.537
2295.99	716.265
2296.92	704.978
2297.86	712.154
2298.79	711.753
2299.73	734.919
2300.66	713.738
2301.6	711.722
2302.53	700.21
2303.47	701.104
2304.4	697.578
2305.34	706.919
2306.27	690.728
2307.2	713.829
2308.14	722.389
2309.07	717.396
2310	699.084
2310.94	711.068
2311.87	693.934
2312.8	678.789
2313.74	699.611
2313.98	708
2314.92	702
2315.86	728
2316.79	688
2317.73	728
2318.67	684
2319.6	708
2320.54	716
2321.48	686
2322.41	720
2323.35	670
2324.29	704
2325.22	696
2326.16	712
2327.09	672
2328.03	704
2328.96	704
2329.9	706
2330.83	728
2331.77	674
2332.7	712
2333.64	714
2334.57	726
2335.51	720
2336.44	722
2337.38	722
2338.31	686
2339.24	690
2340.18	692
2341.11	662
2342.04	688
2342.98	686
2343.91	676
2344.84	696
2345.78	714
2346.71	700
2347.64	678
2348.57	666
2349.51	702
2350.44	706
2351.37	706
2352.3	708
2353.24	690
2354.17	696
2355.1	688
2356.03	700
2356.96	716
2357.89	678
2358.82	706
2359.75	720
2360.68	698
2361.62	724
2362.55	686
2363.48	692
2364.41	680
2365.34	666
2366.27	688
2367.2	684
2368.13	696
2369.05	696
2369.98	692
2370.91	704
2371.84	684
2372.77	716
2373.7	684
2374.63	704
2375.56	680
2376.49	680
2377.41	692
2378.34	702
2379.27	652
2380.2	684
2381.12	656
2382.05	686
2382.98	702
2383.91	692
2384.83	730
2385.76	692
2386.69	720
2387.61	648
2388.54	708
2389.47	680
2390.39	668
2391.32	706
2392.25	688
2393.17	666
2394.1	688
2395.02	698
2395.95	690
2396.87	690
2397.8	676
2398.72	654
2399.65	664
2400.57	640
2401.5	664
2402.42	650
2403.35	696
2404.27	666
2405.2	656
2406.12	668
2407.04	646
2407.97	674
2408.89	718
2409.81	666
2410.74	680
2411.66	710
2412.58	660
2413.51	658
2414.43	674
2415.35	692
2416.27	680
2417.2	628
2418.12	650
2419.04	670
2419.96	668
2420.88	638
2421.81	682
2422.73	688
2423.65	668
2424.57	684
2425.49	634
2426.41	672
2427.33	668
2428.25	652
2429.17	642
2430.1	686
2431.02	662
2431.94	694
2432.85	668
2433.77	670
2434.7	664
2435.61	628
2436.53	662
2437.45	658
2438.37	674
2439.29	644
2440.21	696
2441.13	658
2442.05	676
2442.97	660
2443.88	612
2444.8	626
2445.72	630
2446.64	668
2447.56	652
2448.47	648
2449.39	664
2450.31	630
2451.23	668
2452.14	646
2453.06	652
2453.98	640
2454.89	680
2455.81	668
2456.73	668
2457.64	650
2458.56	650
2459.48	660
2460.39	634
2461.31	680
2462.22	654
2463.14	646
2464.05	666
2464.97	664
2465.88	634
2466.8	676
2467.71	642
2468.63	648
2469.54	638
2470.46	648
2471.37	654
2472.29	668
2473.2	624
2474.11	640
2475.03	668
2475.94	628
2476.86	656
2477.77	662
2478.68	632
2479.59	636
2480.51	652
2481.42	660
2482.33	632
2483.25	658
2484.16	640
2485.07	646
2485.98	640
2486.9	640
2487.81	638
2488.72	656
2489.63	666
2490.54	642
2491.45	660
2492.36	628
2493.28	638
2494.19	640
2495.1	632
2496.01	624
2496.92	644
2497.83	624
2498.74	646
2499.65	644
2500.56	654
2501.47	630
2502.38	630
2503.29	640
2504.2	610
2505.11	646
2506.02	638
2506.93	644
2507.83	612
2508.74	602
2509.65	634
2510.56	638
2511.47	632
2512.38	656
2513.29	660
2514.19	652
2515.1	652
2516.01	640
2516.92	632
2517.82	652
2518.73	618
2519.64	644
2520.55	612
2521.45	642
2522.36	644
2523.27	620
2524.17	614
2525.08	624
2525.99	646
2526.89	616
2527.8	600
2528.7	608
2529.61	620
2530.51	618
2531.42	636
2532.33	638
2533.23	606
2534.14	624
2535.04	640
2535.95	608
2536.85	614
2537.75	608
2538.66	642
2539.56	616
2540.47	600
2541.37	638
2542.28	644
2543.18	608
2544.08	632
2544.99	618
2545.89	640
2546.79	612
2547.7	604
2548.6	610
2549.5	610
2550.4	610
2551.31	612
2552.21	600
2553.11	622
2554.01	630
2554.92	574
2555.82	610
2556.72	596
2557.62	588
2558.52	606
2559.42	594
2560.32	628
2561.23	612
2562.13	604
2563.03	620
2563.93	590
2564.83	626
2565.73	618
2566.63	620
2567.53	604
2568.43	610
2569.33	634
2570.23	580
2571.13	608
2572.03	588
2572.93	602
2573.83	584
2574.73	596
2575.63	638
2576.52	598
2577.42	566
2578.32	624
2579.22	626
2580.12	592
2581.02	610
2581.91	630
2582.81	616
2583.71	602
2584.61	618
2585.51	618
2586.4	616
2587.3	604
2588.2	596
2589.09	622
2589.99	580
2590.89	576
2591.78	616
2592.68	582
2593.58	590
2594.47	602
2595.37	596
2596.26	568
2597.16	574
2598.06	578
2598.95	614
2599.85	582
2600.74	604
2601.64	574
2602.53	584
2603.43	612
2604.32	602
2605.22	614
2606.11	576
2607.01	556
2607.9	606
2608.79	594
2609.69	572
2610.58	582
2611.48	580
2612.37	564
2613.26	586
2614.16	584
2615.05	580
2615.94	580
2616.84	592
2617.73	584
2618.62	582
2619.51	568
2620.41	610
2621.3	576
2622.19	554
2623.08	586
2623.97	576
2624.87	586
2625.76	590
2626.65	608
2627.54	572
2628.43	598
2629.32	568
2630.21	578
2631.1	580
2631.99	548
2632.89	596
2633.78	582
2634.67	574
2635.56	582
2636.45	542
2637.34	582
2638.23	584
2639.12	566
2640.01	566
2640.9	578
2641.78	548
2642.67	574
2643.56	560
2644.45	548
2645.34	566
2646.23	562
2647.12	564
2648.01	572
2648.89	584
2649.78	572
2650.67	574
2651.56	544
2652.45	522
2653.33	584
2654.22	554
2655.11	578
2656	568
2656.88	572
2657.77	560
2658.66	564
2659.54	578
2660.43	590
2661.32	564
2662.2	562
2663.09	552
2663.97	564
2664.86	558
2665.75	576
2666.63	552
2667.52	532
2668.4	576
2669.29	578
2670.17	568
2671.06	576
2671.94	572
2672.83	552
2673.71	588
2674.6	552
2675.48	550
2676.37	602
2677.25	556
2678.13	538
2679.02	558
2679.9	558
2680.78	570
2681.67	558
2682.55	534
2683.43	546
2684.32	550
2685.2	600
2686.08	584
2686.97	540
2687.85	570
2688.73	574
2689.61	558
2690.5	556
2691.38	538
2692.26	544
2693.14	566
2694.02	550
2694.9	550
2695.79	554
2696.67	564
2697.55	532
2698.43	526
2699.31	542
2700.19	526
2701.07	514
2701.95	562
2702.83	550
2703.71	566
2704.59	546
2705.47	534
2706.35	550
2707.23	544
2708.11	556
2708.99	546
2709.87	568
2710.75	544
2711.63	538
2712.51	540
2713.39	568
2714.27	528
2715.14	522
2716.02	560
2716.9	540
2717.78	516
2718.66	524
2719.54	566
2720.41	512
2721.29	544
2722.17	540
2723.05	540
2723.92	524
2724.8	572
2725.68	544
2726.55	558
2727.43	544
2728.31	546
2729.18	556
2730.06	520
2730.94	532
2731.81	516
2732.69	540
2733.57	520
2734.44	542
2735.32	490
2736.19	550
2737.07	518
2737.94	548
2738.82	534
2739.69	538
2740.57	518
2741.44	538
2742.32	538
2743.19	554
2744.07	524
2744.94	544
2745.81	500
2746.69	514
2747.56	548
2748.44	514
2749.31	542
2750.18	524
2751.06	532
2751.93	516
2752.8	548
2753.68	540
2754.55	526
2755.42	508
2756.29	518
2757.17	522
2758.04	512
2758.91	520
2759.78	492
2760.65	510
2761.53	508
2762.4	516
2763.27	532
2764.14	530
2765.01	528
2765.88	522
2766.76	516
2767.63	522
2768.5	492
2769.37	522
2770.24	500
2771.11	508
2771.98	508
2772.85	520
2773.72	498
2774.59	538
2775.46	534
2776.33	494
2777.2	508
2778.07	504
2778.94	514
2779.81	510
2780.67	506
2781.54	500
2782.41	492
2783.28	496
2784.15	516
2785.02	520
2785.89	520
2786.75	522
2787.62	502
2788.49	474
2789.36	530
2790.23	516
2791.09	528
2791.96	500
2792.83	500
2793.7	514
2794.56	494
2795.43	492
2796.3	528
2797.16	500
2798.03	514
2798.9	516
2799.76	496
2800.63	450
2801.49	506
2802.36	498
2803.23	498
2804.09	496
2804.96	498
2805.82	504
2806.69	514
2807.55	488
2808.42	492
2809.28	490
2810.15	512
2811.01	506
2811.88	504
2812.74	470
2813.61	484
2814.47	478
2815.33	526
2816.2	488
2817.06	486
2817.93	506
2818.79	512
2819.65	498
2820.52	512
2821.38	516
2822.24	514
2823.11	500
2823.97	484
2824.83	484
2825.69	504
2826.55	484
2827.42	510
2828.28	496
2829.14	500
2830	480
2830.87	516
2831.73	500
2832.59	480
2833.45	492
2834.31	502
2835.17	494
2836.03	502
2836.89	492
2837.76	498
2838.62	478
2839.48	492
2840.34	464
2841.2	500
2842.06	498
2842.92	460
2843.78	506
2844.64	518
2845.5	494
2846.36	484
2847.22	478
2848.07	470
2848.93	458
2849.79	470
2850.65	450
2851.51	490
2852.37	482
2853.23	484
2854.09	464
2854.95	484
2855.8	482
2856.66	484
2857.52	510
2858.38	476
2859.24	456
2860.09	466
2860.95	460
2861.81	480
2862.66	480
2863.52	468
2864.38	462
2865.24	456
2866.09	440
2866.95	470
2867.81	470
2868.66	466
2869.52	450
2870.37	462
2871.23	474
2872.09	470
2872.94	472
2873.8	456
2874.65	492
2875.51	458
2876.36	470
2877.22	466
2878.07	452
2878.93	436
2879.78	446
2880.64	448
2881.49	458
2882.35	484
2883.2	442
2884.05	468
2884.91	452
2885.76	474
2886.62	450
2887.47	456
2888.32	478
2889.18	460
2890.03	432
2890.88	462
2891.74	462
2892.59	440
2893.44	482
2894.29	466
2895.15	454
2896	496
2896.85	466
2897.7	454
2898.55	460
2899.41	428
2900.26	460
2901.11	444
2901.96	438
2902.81	494
2903.66	434
2904.52	442
2905.37	446
2906.22	456
2907.07	448
2907.92	460
2908.77	448
2909.62	438
2910.47	458
2911.32	426
2912.17	448
2913.02	444
2913.87	440
2914.72	434
2915.57	438
2916.42	454
2917.27	450
2918.12	456
2918.97	442
2919.82	412
2920.66	446
2921.51	434
2922.36	452
2923.21	450
2924.06	442
2924.91	452
2925.75	428
2926.6	450
2927.45	452
2928.3	438
2929.15	432
2929.99	440
2930.84	458
2931.69	434
2932.54	444
2933.38	428
2934.23	410
2935.08	410
2935.92	448
2936.77	448
2937.62	468
2938.46	438
2939.31	440
2940.15	460
2941	410
2941.85	454
2942.69	420
2943.54	442
2944.38	440
2945.23	424
2946.07	442
2946.92	420
2947.76	444
2948.61	434
2949.45	448
2950.3	446
2951.14	454
2951.99	452
2952.83	462
2953.67	452
2954.52	450
2955.36	434
2956.21	458
2957.05	426
2957.89	434
2958.74	402
2959.58	414
2960.42	428
2961.27	422
2962.11	422
2962.95	398
2963.79	424
2964.64	404
2965.48	410
2966.32	428
2967.16	400
2968.01	420
2968.85	426
2969.69	400
2970.53	414
2971.37	430
2972.21	428
2973.05	408
2973.9	442
2974.74	428
2975.58	402
2976.42	428
2977.26	418
2978.1	420
2978.94	406
2979.78	434
2980.62	396
2981.46	402
2982.3	456
2983.14	434
2983.98	408
2984.82	418
2985.66	406
2986.5	396
2987.34	408
2988.18	398
2989.02	398
2989.86	392
2990.69	418
2991.53	400
2992.37	416
2993.21	392
2994.05	418
2994.89	428
2995.72	402
2996.56	420
2997.4	402
2998.24	418
2999.08	402
2999.91	430
3000.75	400
3001.59	404
3002.43	414
3003.26	412
3004.1	414
3004.94	410
3005.77	394
3006.61	396
3007.45	398
3008.28	408
3009.12	410
3009.95	402
3010.79	396
3011.63	412
3012.46	426
3013.3	404
3014.13	418
3014.97	394
3015.8	426
3016.64	404
3017.47	414
3018.31	404
3019.14	420
3019.98	424
3020.81	376
3021.65	402
3022.48	382
3023.31	396
3024.15	394
3024.98	402
3025.82	386
3026.65	398
3027.48	394
3028.32	382
3029.15	398
3029.98	396
3030.82	380
3031.65	406
3032.48	390
3033.31	384
3034.15	388
3034.98	372
3035.81	408
3036.64	374
3037.48	390
3038.31	406
3039.14	370
3039.97	366
3040.8	385.986
3041.63	403.822
3042.47	385.675
3043.3	374.255
3044.13	402.663
3044.96	373.961
3045.79	399.597
3046.62	394.366
3047.45	383.215
3048.28	413.169
3049.11	389.245
3049.94	393.316
3050.77	393.721
3051.6	367.824
3052.43	394.989
3053.26	374.528
3054.09	382.062
3054.92	403.61
3055.75	377.603
3056.58	385.051
3057.41	367.964
3058.24	394.533
3059.07	380.495
3059.9	362.487
3060.73	365.883
3061.55	371.095
3062.38	380.331
3063.21	375.804
3064.04	379.79
3064.87	379.597
3065.7	372.821
3066.52	377.944
3067.35	386.911
3068.18	395.842
3069.01	373.111
3069.83	365.859
3070.66	372.011
3071.49	371.419
3072.32	366.779
3073.14	374.788
3073.97	378.829
3074.8	375.483
3075.62	380.218
3076.45	374.606
3077.28	368.225
3078.1	362.531
3078.93	364.023
3079.75	367.546
3080.58	342.731
3081.41	372.924
3082.23	372.676
3083.06	363.307
3083.88	361.116
3084.71	351.769
3085.53	365.606
3086.36	366.24
3087.18	371.039
3088.01	366.614
3088.83	353.72
3089.66	368.187
3090.48	379.749
3091.31	346.316
3092.13	363.924
3092.96	375.277
3093.78	357.492
3094.6	355.882
3095.43	370.998
3096.25	372.065
3097.07	362.261
3097.9	359.863
3098.72	353.22
3099.54	359.96
3100.37	355.843
3101.19	338.588
3102.01	344.23
3102.84	360.754
3103.66	337.221
3104.48	335.735
3105.3	345.892
3106.13	353.882
3106.95	358.047
3107.77	360.73
3108.59	361.779
3109.41	348.733
3110.24	353.896
3111.06	346.078
3111.88	342.768
3112.7	349.228
3113.52	353.257
3114.34	349.432
3115.16	333.923
3115.98	345.699
3116.81	341.516
3117.63	330.529
3118.45	354.722
3119.27	354.446
3120.09	337.568
3120.91	336.77
3121.73	341.577
3122.55	340.761
3123.37	346.958
3123.73	354
3124.56	336
3125.38	324
3126.21	338
3127.03	324
3127.85	344
3128.68	362
3129.5	332
3130.32	356
3131.15	326
3131.97	338
3132.79	334
3133.62	358
3134.44	338
3135.26	346
3136.08	346
3136.91	324
3137.73	340
3138.55	320
3139.37	332
3140.19	348
3141.02	348
3141.84	340
3142.66	336
3143.48	316
3144.3	324
3145.13	348
3145.95	326
3146.77	314
3147.59	334
3148.41	316
3149.23	332
3150.05	332
3150.87	328
3151.69	318
3152.51	328
3153.33	354
3154.15	344
3154.97	320
3155.79	330
3156.61	328
3157.43	322
3158.25	314
3159.07	328
3159.89	338
3160.71	338
3161.53	318
3162.35	324
3163.17	332
3163.98	332
3164.8	302
3165.62	314
3166.44	334
3167.26	334
3168.08	340
3168.89	314
3169.71	326
3170.53	318
3171.35	318
3172.17	306
3172.98	342
3173.8	312
3174.62	304
3175.43	328
3176.25	298
3177.07	330
3177.89	328
3178.7	328
3179.52	308
3180.33	322
3181.15	316
3181.97	330
3182.78	324
3183.6	330
3184.41	320
3185.23	308
3186.05	324
3186.86	300
3187.68	318
3188.49	310
3189.31	304
3190.12	324
3190.94	332
3191.75	304
3192.57	318
3193.38	316
3194.2	336
3195.01	312
3195.82	310
3196.64	302
3197.45	326
3198.27	322
3199.08	304
3199.89	310
3200.71	348
3201.52	312
3202.33	326
3203.15	322
3203.96	312
3204.77	326
3205.59	316
3206.4	298
3207.21	312
3208.02	318
3208.84	308
3209.65	336
3210.46	286
3211.27	316
3212.09	320
3212.9	316
3213.71	304
3214.52	318
3215.33	340
3216.14	314
3216.96	306
3217.77	298
3218.58	322
3219.39	300
3220.2	294
3221.01	302
3221.82	292
3222.63	320
3223.44	298
3224.25	310
3225.06	324
3225.87	322
3226.68	302
3227.49	306
3228.3	322
3229.11	304
3229.92	298
3230.73	328
3231.54	310
3232.35	294
3233.16	306
3233.97	304
3234.77	294
3235.58	314
3236.39	304
3237.2	314
3238.01	300
3238.82	310
3239.63	340
3240.43	300
3241.24	296
3242.05	308
3242.86	312
3243.66	312
3244.47	320
3245.28	290
3246.09	298
3246.89	308
3247.7	302
3248.51	310
3249.31	290
3250.12	308
3250.93	304
3251.73	294
3252.54	306
3253.35	308
3254.15	284
3254.96	288
3255.76	300
3256.57	306
3257.38	314
3258.18	300
3258.99	284
3259.79	284
3260.6	296
3261.4	292
3262.21	278
3263.01	304
3263.82	284
3264.62	288
3265.43	292
3266.23	302
3267.04	296
3267.84	284
3268.64	292
3269.45	300
3270.25	278
3271.06	296
3271.86	300
3272.66	268
3273.47	302
3274.27	300
3275.07	292
3275.88	292
3276.68	300
3277.48	286
3278.28	280
3279.09	318
3279.89	292
3280.69	270
3281.49	288
3282.3	290
3283.1	298
3283.9	272
3284.7	294
3285.5	300
3286.31	298
3287.11	278
3287.91	296
3288.71	294
3289.51	306
3290.31	290
3291.11	306
3291.91	290
3292.71	264
3293.51	298
3294.31	284
3295.12	272
3295.92	292
3296.72	278
3297.52	270
3298.32	308
3299.12	276
3299.92	292
3300.72	296
3301.51	274
3302.31	274
3303.11	278
3303.91	292
3304.71	288
3305.51	292
3306.31	278
3307.11	264
3307.91	314
3308.71	282
3309.5	296
3310.3	274
3311.1	270
3311.9	274
3312.7	276
3313.49	278
3314.29	296
3315.09	292
3315.89	294
3316.69	276
3317.48	282
3318.28	276
3319.08	280
3319.87	294
3320.67	274
3321.47	300
3322.26	276
3323.06	292
3323.86	282
3324.65	296
3325.45	286
3326.25	280
3327.04	284
3327.84	274
3328.63	274
3329.43	276
3330.22	274
3331.02	264
3331.81	276
3332.61	264
3333.4	272
3334.2	268
3334.99	290
3335.79	270
3336.58	272
3337.38	274
3338.17	262
3338.97	268
3339.76	294
3340.56	276
3341.35	284
3342.14	292
3342.94	276
3343.73	260
3344.52	276
3345.32	294
3346.11	286
3346.9	270
3347.7	286
3348.49	300
3349.28	270
3350.08	272
3350.87	268
3351.66	252
3352.45	258
3353.25	278
3354.04	264
3354.83	270
3355.62	292
3356.41	274
3357.21	276
3358	268
3358.79	286
3359.58	252
3360.37	262
3361.16	268
3361.95	268
3362.75	270
3363.54	286
3364.33	256
3365.12	252
3365.91	270
3366.7	276
3367.49	270
3368.28	266
3369.07	276
3369.86	284
3370.65	264
3371.44	262
3372.23	278
3373.02	256
3373.81	272
3374.6	268
3375.39	286
3376.18	276
3376.97	260
3377.75	274
3378.54	278
3379.33	256
3380.12	274
3380.91	276
3381.7	274
3382.49	256
3383.27	268
3384.06	266
3384.85	256
3385.64	278
3386.43	266
3387.21	258
3388	246
3388.79	252
3389.58	256
3390.36	258
3391.15	264
3391.94	260
3392.72	264
3393.51	254
3394.3	256
3395.08	274
3395.87	256
3396.66	254
3397.44	246
3398.23	276
3399.01	244
3399.8	270
3400.59	248
3401.37	262
3402.16	254
3402.94	276
3403.73	250
3404.51	246
3405.3	264
3406.08	268
3406.87	254
3407.65	264
3408.44	242
3409.22	252
3410.01	254
3410.79	246
3411.58	266
3412.36	244
3413.14	258
3413.93	260
3414.71	270
3415.5	256
3416.28	260
3417.06	274
3417.85	258
3418.63	282
3419.41	246
3420.2	256
3420.98	260
3421.76	242
3422.54	256
3423.33	244
3424.11	258
3424.89	260
3425.67	262
3426.46	250
3427.24	242
3428.02	258
3428.8	254
3429.58	242
3430.36	268
3431.15	254
3431.93	258
3432.71	254
3433.49	240
3434.27	256
3435.05	246
3435.83	258
3436.61	262
3437.4	268
3438.18	240
3438.96	262
3439.74	240
3440.52	246
3441.3	232
3442.08	252
3442.86	246
3443.64	256
3444.42	250
3445.2	224
3445.98	272
3446.76	238
3447.53	252
3448.31	248
3449.09	258
3449.87	256
3450.65	244
3451.43	252
3452.21	234
3452.99	244
3453.77	246
3454.54	226
3455.32	254
3456.1	260
3456.88	226
3457.66	258
3458.43	254
3459.21	248
3459.99	248
3460.77	258
3461.54	266
3462.32	242
3463.1	242
3463.88	234
3464.65	246
3465.43	238
3466.21	230
3466.98	250
3467.76	244
3468.53	260
3469.31	260
3470.09	238
3470.86	236
3471.64	228
3472.42	238
3473.19	236
3473.97	248
3474.74	244
3475.52	246
3476.29	238
3477.07	252
3477.84	214
3478.62	234
3479.39	252
3480.17	216
3480.94	240
3481.72	238
3482.49	258
3483.27	236
3484.04	228
3484.82	242
3485.59	216
3486.36	240
3487.14	256
3487.91	252
3488.68	242
3489.46	230
3490.23	226
3491	246
3491.78	242
3492.55	238
3493.32	226
3494.1	244
3494.87	232
3495.64	246
3496.42	240
3497.19	262
3497.96	260
3498.73	248
3499.5	252
3500.28	236
3501.05	244
3501.82	224
3502.59	244
3503.36	236
3504.14	248
3504.91	260
3505.68	234
3506.45	234
3507.22	234
3507.99	234
3508.76	230
3509.53	230
3510.3	256
3511.07	250
3511.84	218
3512.61	222
3513.38	244
3514.16	240
3514.92	228
3515.7	228
3516.46	214
3517.23	228
3518	228
3518.77	228
3519.54	250
3520.31	230
3521.08	236
3521.85	228
3522.62	232
3523.39	242
3524.16	224
3524.93	222
3525.69	218
3526.46	236
3527.23	228
3528	228
3528.77	238
3529.53	220
3530.3	234
3531.07	244
3531.84	232
3532.61	252
3533.37	230
3534.14	240
3534.91	224
3535.68	228
3536.44	230
3537.21	234
3537.98	226
3538.74	228
3539.51	224
3540.28	232
3541.04	232
3541.81	232
3542.58	228
3543.34	218
3544.11	228
3544.87	212
3545.64	238
3546.4	236
3547.17	242
3547.94	232
3548.7	250
3549.47	236
3550.23	232
3551	228
3551.76	234
3552.53	238
3553.29	230
3554.06	224
3554.82	234
3555.59	242
3556.35	228
3557.11	218
3557.88	222
3558.64	228
3559.41	204
3560.17	218
3560.93	226
3561.7	230
3562.46	218
3563.22	208
3563.99	226
3564.75	226
3565.51	228
3566.28	220
3567.04	230
3567.8	240
3568.56	194
3569.33	228
3570.09	224
3570.85	228
3571.61	222
3572.38	212
3573.14	224
3573.9	226
3574.66	220
3575.42	232
3576.19	236
3576.95	228
3577.71	224
3578.47	232
3579.23	216
3579.99	224
3580.75	214
3581.51	216
3582.28	224
3583.04	240
3583.8	212
3584.56	208
3585.32	212
3586.08	212
3586.84	210
3587.6	214
3588.36	222
3589.12	228
3589.88	244
3590.64	206
3591.4	226
3592.16	222
3592.92	204
3593.67	234
3594.43	218
3595.19	226
3595.95	206
3596.71	236
3597.47	228
3598.23	204
3598.99	226
3599.75	200
3600.5	232
3601.26	212
3602.02	210
3602.78	230
3603.54	230
3604.29	216
3605.05	216
3605.81	218
3606.57	202
3607.32	212
3608.08	208
3608.84	222
3609.59	208
3610.35	222
3611.11	200
3611.87	224
3612.62	234
3613.38	222
3614.13	213
3614.89	204
3615.65	220
3616.4	210
3617.16	216
3617.92	202
3618.67	226
3619.43	224
3620.18	210
3620.94	222
3621.69	222
3622.45	222
3623.2	228
3623.96	202
3624.71	226
3625.47	204
3626.22	210
3626.98	198
3627.73	210
3628.49	216
3629.24	212
3630	222
3630.75	240
3631.5	214
3632.26	194
3633.01	200
3633.77	204
3634.52	206
3635.27	208
3636.03	206
3636.78	190
3637.53	218
3638.29	216
3639.04	202
3639.79	198
3640.55	210
3641.3	216
3642.05	198
3642.8	206
3643.56	214
3644.31	220
3645.06	212
3645.81	200
3646.56	204
3647.32	194
3648.07	202
3648.82	210
3649.57	224
3650.32	214
3651.07	202
3651.83	218
3652.58	212
3653.33	178
3654.08	220
3654.83	216
3655.58	202
3656.33	204
3657.08	210
3657.83	214
3658.58	210
3659.33	198
3660.08	202
3660.83	202
3661.58	200
3662.33	220
3663.08	200
3663.83	210
3664.58	208
3665.33	198
3666.08	178
3666.83	198
3667.58	196
3668.33	202
3669.08	212
3669.83	200
3670.57	194
3671.32	204
3672.07	200
3672.82	214
3673.57	206
3674.32	208
3675.07	182
3675.81	190
3676.56	210
3677.31	202
3678.06	198
3678.8	204
3679.55	200
3680.3	206
3681.05	206
3681.79	206
3682.54	192
3683.29	208
3684.04	200
3684.78	202
3685.53	190
3686.28	198
3687.02	204
3687.77	182
3688.51	198
3689.26	188
3690.01	188
3690.75	198
3691.5	194
3692.24	212
3692.99	212
3693.74	208
3694.48	190
3695.23	206
3695.97	196
3696.72	198
3697.46	194
3698.21	202
3698.95	200
3699.7	206
3700.44	198
3701.19	206
3701.93	182
3702.68	180
3703.42	188
3704.16	210
3704.91	202
3705.65	204
3706.4	194
3707.14	190
3707.88	200
3708.63	198
3709.37	210
3710.11	174
3710.86	200
3711.6	184
3712.34	210
3713.09	212
3713.83	202
3714.57	194
3715.31	208
3716.06	210
3716.8	196
3717.54	184
3718.28	192
3719.03	190
3719.77	200
3720.51	218
3721.25	202
3721.99	182
3722.74	196
3723.48	198
3724.22	202
3724.96	182
3725.7	182
3726.44	196
3727.18	178
3727.92	206
3728.67	202
3729.41	182
3730.15	192
3730.89	200
3731.63	196
3732.37	194
3733.11	190
3733.85	186
3734.59	182
3735.33	196
3736.07	190
3736.81	182
3737.55	188
3738.29	182
3739.03	208
3739.77	204
3740.51	208
3741.24	180
3741.98	196
3742.72	182
3743.46	194
3744.2	190
3744.94	162
3745.68	188
3746.42	190
3747.15	192
3747.89	184
3748.63	198
3749.37	194
3750.11	200
3750.84	184
3751.58	198
3752.32	188
3753.06	182
3753.79	200
3754.53	206
3755.27	170
3756.01	192
3756.74	182
3757.48	194
3758.22	206
3758.95	186
3759.69	204
3760.43	178
3761.16	180
3761.9	198
3762.64	172
3763.37	182.068
3764.11	201.913
3764.84	205.645
3765.58	195.744
3766.32	186.419
3767.05	204.082
3767.79	195.623
3768.52	185.407
3769.26	188.477
3769.99	196.072
3770.73	179.206
3771.46	198.276
3772.2	183.458
3772.93	198.809
3773.67	186.218
3774.4	191.839
3775.14	195.882
3775.87	191.021
3776.61	182.041
3777.34	177.408
3778.07	191.732
3778.81	195.587
3779.54	177.208
3780.28	191.385
3781.01	186.059
3781.74	186.407
3782.48	182.539
3783.21	189.304
3783.94	189.654
3784.68	196.869
3785.41	186.034
3786.14	185.983
3786.88	172.584
3787.61	180.999
3788.34	193.567
3789.07	178.49
3789.81	188.182
3790.54	178.454
3791.27	180.088
3792	198.97
3792.74	185.374
3793.47	187.025
3794.2	189.263
3794.93	183.128
3795.66	190.56
3796.4	176.886
3797.13	188.408
3797.86	193.332
3798.59	188.642
3799.32	175.091
3800.05	181.086
3800.78	179.529
3801.52	184.941
3802.25	191.535
3802.98	184.58
3803.71	181.504
3804.44	174.569
3805.17	191.057
3805.9	181.158
3806.63	176.524
3807.36	176.652
3808.09	181.848
3808.82	175.769
3809.55	183.304
3810.28	182.079
3811.01	178.765
3811.74	183.32
3812.47	183.357
3813.2	185.337
3813.93	181.19
3814.66	179.406
3815.38	185.233
3816.11	184.329
3816.84	180.077
3817.57	181.711
3818.3	181.292
3819.03	179.687
3819.76	178.219
3820.49	186.538
3821.21	179.119
3821.94	191.401
3822.67	188.125
3823.4	184.331
3824.13	186.744
3824.85	186.818
3825.58	176.478
3826.31	176.798
3827.04	192.412
3827.77	185.09
3828.49	179.235
3829.22	178.606
3829.95	179.271
3830.67	177.004
3831.4	186.176
3832.13	187.046
3832.85	167.966
3833.58	180.32
3834.31	178.802
3835.03	172.613
3835.76	183.505
3836.49	178.573
3837.21	169.942
3837.94	180.042
3838.52	196
3839.25	184
3839.98	188
3840.71	180
3841.44	182
3842.17	182
3842.9	182
3843.63	186
3844.36	194
3845.09	174
3845.82	180
3846.55	178
3847.28	180
3848	182
3848.73	172
3849.46	162
3850.19	176
3850.92	184
3851.65	192
3852.38	170
3853.1	192
3853.83	204
3854.56	212
3855.29	176
3856.02	190
3856.74	182
3857.47	164
3858.2	184
3858.93	160
3859.65	182
3860.38	180
3861.11	182
3861.84	174
3862.56	170
3863.29	172
3864.02	180
3864.74	182
3865.47	180
3866.2	178
3866.92	174
3867.65	170
3868.38	176
3869.1	192
3869.83	186
3870.55	174
3871.28	182
3872.01	166
3872.73	170
3873.46	174
3874.18	184
3874.91	170
3875.63	186
3876.36	176
3877.08	170
3877.81	172
3878.53	172
3879.26	182
3879.98	172
3880.71	174
3881.43	180
3882.16	172
3882.88	180
3883.6	180
3884.33	182
3885.05	188
3885.78	174
3886.5	178
3887.22	146
3887.95	168
3888.67	178
3889.4	158
3890.12	156
3890.84	162
3891.57	172
3892.29	162
3893.01	178
3893.73	176
3894.46	172
3895.18	170
3895.9	182
3896.63	180
3897.35	176
3898.07	174
3898.79	170
3899.51	168
3900.24	168
3900.96	184
3901.68	164
3902.4	194
3903.12	178
3903.84	170
3904.57	170
3905.29	174
3906.01	178
3906.73	168
3907.45	164
3908.17	176
3908.89	168
3909.61	166
3910.33	180
3911.06	176
3911.78	184
3912.5	186
3913.22	160
3913.94	168
3914.66	160
3915.38	176
3916.1	166
3916.82	176
3917.54	186
3918.26	172
3918.98	154
3919.69	184
3920.41	166
3921.13	170
3921.85	160
3922.57	178
3923.29	170
3924.01	176
3924.73	178
3925.45	170
3926.17	164
3926.88	164
3927.6	172
3928.32	166
3929.04	186
3929.76	182
3930.47	166
3931.19	172
3931.91	174
3932.63	158
3933.35	174
3934.06	168
3934.78	168
3935.5	160
3936.22	162
3936.93	168
3937.65	160
3938.37	178
3939.08	172
3939.8	164
3940.52	168
3941.23	172
3941.95	172
3942.67	168
3943.38	182
3944.1	156
3944.82	186
3945.53	176
3946.25	174
3946.96	170
3947.68	172
3948.4	164
3949.11	168
3949.83	168
3950.54	170
3951.26	176
3951.97	166
3952.69	176
3953.4	162
3954.12	172
3954.83	194
3955.55	170
3956.26	160
3956.98	166
3957.69	162
3958.4	162
3959.12	156
3959.83	164
3960.55	178
3961.26	170
3961.97	156
3962.69	164
3963.4	164
3964.12	174
3964.83	160
3965.54	176
3966.26	182
3966.97	174
3967.68	146
3968.4	162
3969.11	170
3969.82	164
3970.53	170
3971.25	176
3971.96	164
3972.67	136
3973.38	168
3974.1	160
3974.81	170
3975.52	156
3976.23	164
3976.94	158
3977.66	166
3978.37	160
3979.08	174
3979.79	152
3980.5	152
3981.21	182
3981.92	170
3982.64	168
3983.35	156
3984.06	160
3984.77	144
3985.48	166
3986.19	168
3986.9	160
3987.61	152
3988.32	164
3989.03	160
3989.74	172
3990.45	158
3991.16	146
3991.87	154
3992.58	146
3993.29	168
3994	168
3994.71	170
3995.42	164
3996.13	168
3996.84	168
3997.55	152
3998.26	172
3998.97	178
3999.67	148
