#Acq. time (s)=	10
#Accumulations=	1
#Range (cm-¹)=	200...4000
#Windows=	5
#Autofocus=	Off
#AutoExposure=	Off
#Spike filter=	Off
#Delay time (s)=	0
#Binning=	1
#Readout mode=	Signal
#DeNoise=	Off
#ICS correction=	Off
#Dark correction=	Off
#Inst. Process=	Off
#Instrument=	LabRAM HR Evol
#Detector=	Syncerity OE
#Objective=	x100_VIS
#Grating=	600 (500nm)
#ND Filter=	25%
#Laser=	633nm_Edge
#Hole=	100.021
#Range=	Visible
#Project=	Omar
#Sample=	03-07-23
#Site=	1
#Title=	OR
#Remark=	
#Date=	03.07.2023 13:49
#Acquired=	03.07.2023 13:49:07
200.404	772
201.671	796
202.938	806
204.205	798
205.472	816
206.737	794
208.003	798
209.269	806
210.535	786
211.799	798
213.064	846
214.33	762
215.595	810
216.858	818
218.122	760
219.387	792
220.649	792
221.913	796
223.177	804
224.439	832
225.703	798
226.966	816
228.227	770
229.49	826
230.752	794
232.013	790
233.275	808
234.536	820
235.798	826
237.059	824
238.319	770
239.58	834
240.839	800
242.1	848
243.361	826
244.619	826
245.879	790
247.138	822
248.398	838
249.655	830
250.915	826
252.172	836
253.431	844
254.688	818
255.947	830
257.204	804
258.462	816
259.718	860
260.976	850
262.232	806
263.487	806
264.744	808
266	834
267.256	850
268.511	826
269.767	864
271.022	816
272.276	838
273.532	796
274.786	840
276.04	832
277.295	874
278.548	820
279.801	798
281.055	814
282.308	810
283.561	840
284.814	812
286.066	824
287.318	840
288.572	842
289.823	848
291.074	854
292.327	836
293.578	834
294.828	866
296.079	856
297.331	878
298.581	846
299.831	816
301.08	808
302.33	866
303.581	836
304.83	848
306.079	854
307.327	850
308.576	850
309.825	846
311.073	868
312.321	834
313.569	868
314.816	830
316.064	890
317.311	844
318.558	832
319.806	880
321.052	894
322.299	848
323.545	858
324.79	864
326.036	880
327.282	850
328.527	836
329.772	888
331.017	880
332.261	882
333.506	894
334.75	858
335.994	874
337.238	884
338.482	872
339.725	856
340.968	888
342.211	860
343.454	918
344.697	856
345.939	880
347.182	908
348.424	864
349.666	870
350.907	896
352.149	876
353.39	858
354.631	870
355.87	882
357.111	862
358.352	906
359.592	876
360.832	888
362.072	888
363.311	884
364.549	876
365.789	894
367.028	892
368.267	912
369.505	910
370.742	914
371.981	910
373.219	894
374.457	898
375.694	896
376.93	854
378.168	876
379.405	856
380.642	858
381.877	906
383.113	890
384.35	870
385.584	924
386.82	912
388.056	872
389.291	908
390.525	914
391.76	884
392.995	866
394.228	864
395.463	892
396.696	874
397.93	898
399.164	910
400.396	900
401.63	902
402.863	906
404.095	918
405.328	862
406.559	906
407.791	920
409.022	922
410.254	904
411.486	936
412.717	890
413.948	904
415.178	938
416.409	910
417.639	952
418.87	904
420.099	910
421.329	976
422.558	934
423.788	976
425.016	960
426.244	916
427.474	938
428.701	946
429.93	982
431.158	970
432.386	930
433.613	936
434.84	984
436.068	972
437.294	970
438.522	922
439.748	924
440.974	964
442.201	952
443.426	938
444.651	940
445.878	986
447.103	972
448.327	952
449.553	966
450.777	946
452.001	944
453.225	960
454.45	986
455.674	938
456.897	944
458.121	944
459.344	964
460.567	940
461.789	962
463.012	982
464.235	930
465.457	928
466.679	964
467.9	938
469.122	968
470.344	936
471.565	942
472.786	936
474.006	948
475.227	994
476.447	942
477.668	1004
478.888	968
480.107	982
481.327	984
482.546	970
483.765	960
484.984	988
486.202	982
487.421	974
488.639	926
489.857	956
491.075	986
492.292	1008
493.51	982
494.727	980
495.944	986
497.161	976
498.377	1006
499.594	992
500.81	992
502.026	972
503.242	946
504.458	994
505.673	958
506.888	966
508.104	982
509.318	970
510.533	998
511.748	988
512.962	966
514.176	994
515.39	1020
516.602	1012
517.816	942
519.029	972
520.242	976
521.455	1004
522.668	956
523.881	1004
525.092	992
526.304	1006
527.516	968
528.728	990
529.939	970
531.149	970
532.361	972
533.572	980
534.783	978
535.992	934
537.202	1002
538.413	1022
539.623	984
540.831	974
542.041	974
543.25	954
544.458	990
545.667	974
546.876	970
548.084	958
549.292	990
550.501	990
551.707	1004
552.915	960
554.123	976
555.329	982
556.537	1028
557.743	992
558.95	998
560.156	992
561.362	940
562.568	1016
563.773	992
564.979	1028
566.184	1002
567.389	1026
568.595	990
569.799	970
571.004	984
572.207	968
573.412	958
574.615	978
575.82	1006
577.022	974
578.226	986
579.429	1006
580.631	994
581.834	1024
583.036	978
584.239	998
585.44	974
586.643	996
587.844	1016
589.045	1018
590.247	996
591.448	1006
592.649	1024
593.849	1026
595.049	974
596.25	1006
597.45	1022
598.649	974
599.85	1026
601.049	1018
602.248	1022
603.448	990
604.646	1004
605.844	1024
607.042	1004
608.241	1018
609.439	1010
610.637	1068
611.834	1024
613.032	1016
614.229	1018
615.426	1012
616.622	1048
617.819	988
619.016	1060
620.212	1054
621.408	1018
622.603	1034
623.799	1016
624.994	1018
626.19	1086
627.385	1030
628.58	1008
629.774	1066
630.969	1036
632.163	1038
633.356	1048
634.55	1060
635.744	1008
636.938	1040
638.131	1056
639.324	1092
640.517	1030
641.71	1020
642.902	1024
644.094	1056
645.286	1062
646.478	1062
647.67	1074
648.861	1060
650.052	1092
651.243	1082
652.434	1040
653.625	1056
654.815	1042
656.006	1056
657.196	1068
658.384	1070
659.574	1056
660.764	1076
661.953	1050
663.142	1046
664.331	1070
665.52	1042
666.709	1086
667.897	1062
669.084	1102
670.272	1078
671.46	1084
672.648	1024
673.835	1076
675.021	1032
676.208	1068
677.395	1066
678.582	1088
679.768	1062
680.953	1064
682.14	1090
683.326	1058
684.512	1066
685.696	1056
686.881	1064
688.067	1080
689.252	1110
690.435	1038
691.62	1022
692.804	1050
693.987	1062
695.171	1094
696.355	1064
697.538	1066
698.721	1072
699.905	1066
701.087	1088
702.27	1050
703.451	1108
704.634	1056
705.816	1102
706.997	1086
708.179	1082
709.36	1082
710.542	1100
711.722	1086
712.903	1088
714.083	1090
715.264	1092
716.445	1116
717.624	1088
718.805	1092
719.984	1100
721.162	1084
722.342	1104
723.52	1088
724.7	1106
725.878	1072
727.057	1094
728.235	1086
729.414	1098
730.591	1106
731.768	1092
732.946	1128
734.123	1090
735.301	1094
736.477	1136
737.653	1096
738.83	1096
740.006	1114
741.182	1076
742.358	1082
743.534	1092
744.709	1128
745.885	1080
747.06	1108
748.234	1068
749.41	1114
750.584	1084
751.758	1102
752.931	1146
754.106	1074
755.28	1116
756.453	1120
757.626	1036
758.8	1116
759.973	1110
761.145	1136
762.318	1146
763.49	1084
764.662	1098
765.835	1086
767.006	1092
768.178	1102
769.349	1126
770.52	1132
771.691	1106
772.861	1152
774.033	1116
775.203	1064
776.373	1108
777.543	1076
778.713	1086
779.883	1142
781.052	1124
782.221	1110
783.39	1100
784.559	1076
785.727	1096
786.896	1074
788.064	1082
789.232	1078
790.4	1084
791.568	1090
792.735	1118
793.903	1084
795.07	1108
796.237	1088
797.404	1132
798.57	1108
799.737	1116
800.903	1148
802.068	1128
803.234	1114
804.399	1096
805.565	1112
806.73	1126
807.896	1170
809.061	1078
810.224	1130
811.389	1124
812.553	1124
813.717	1154
814.881	1106
816.045	1116
817.208	1156
818.371	1118
819.535	1150
820.698	1168
821.859	1140
823.022	1110
824.185	1178
825.347	1194
826.508	1170
827.67	1114
828.832	1114
829.993	1172
831.154	1164
832.316	1124
833.476	1150
834.637	1146
835.797	1130
836.957	1162
838.117	1132
839.278	1132
840.436	1146
841.596	1134
842.755	1174
843.914	1146
845.074	1158
846.232	1134
847.391	1186
848.548	1128
849.707	1142
850.864	1120
852.022	1178
853.179	1184
854.337	1144
855.493	1130
856.651	1218
857.807	1176
858.964	1204
860.12	1160
861.277	1150
862.432	1182
863.589	1150
864.744	1240
865.9	1154
867.055	1196
868.209	1180
869.365	1172
870.519	1152
871.674	1204
872.828	1170
873.982	1178
875.136	1198
876.29	1188
877.443	1198
878.597	1188
879.75	1148
880.902	1160
882.056	1196
883.208	1160
884.36	1156
885.512	1122
886.665	1152
887.816	1180
888.967	1192
890.118	1150
891.271	1158
892.421	1138
893.572	1164
894.722	1156
895.874	1138
897.024	1142
898.174	1136
899.323	1164
900.473	1162
901.622	1208
902.771	1172
903.922	1188
905.07	1154
906.219	1190
907.367	1170
908.516	1180
909.664	1152
910.811	1170
911.959	1164
913.107	1164
914.254	1104
915.401	1176
916.55	1170
917.696	1162
918.843	1184
919.99	1142
921.136	1146
922.282	1176
923.428	1178
924.574	1180
925.719	1140
926.863	1184
928.009	1174
929.154	1174
930.299	1182
931.443	1150
932.588	1204
933.732	1220
934.876	1216
936.02	1152
937.164	1244
938.308	1180
939.45	1152
940.593	1182
941.736	1196
942.879	1206
944.022	1178
945.165	1198
946.306	1188
947.448	1186
948.59	1162
949.732	1180
950.874	1210
952.014	1186
953.155	1190
954.296	1210
955.437	1168
956.577	1240
957.718	1180
958.858	1204
959.997	1194
961.137	1176
962.277	1222
963.416	1214
964.555	1210
965.695	1174
966.833	1218
967.972	1182
969.111	1260
970.248	1210
971.387	1246
972.524	1208
973.662	1182
974.8	1234
975.936	1218
977.074	1198
978.21	1236
979.348	1228
980.483	1206
981.62	1210
982.757	1224
983.893	1196
985.029	1232
986.164	1214
987.299	1216
988.435	1200
989.569	1200
990.705	1248
991.839	1214
992.974	1218
994.108	1192
995.243	1246
996.376	1204
997.509	1226
998.644	1240
999.777	1232
1000.91	1232
1002.04	1216
1003.18	1204
1004.31	1236
1005.44	1244
1006.57	1234
1007.71	1230
1008.84	1216
1009.97	1242
1011.1	1204
1012.23	1208
1013.36	1228
1014.49	1238
1015.63	1232
1016.76	1240
1017.89	1244
1019.02	1198
1020.15	1220
1021.28	1234
1022.41	1216
1023.54	1222
1024.66	1240
1025.79	1252
1026.92	1220
1028.05	1206
1029.18	1242
1030.31	1208
1031.44	1240
1032.56	1206
1033.69	1256
1034.82	1258
1035.95	1260
1037.08	1246
1038.2	1232
1039.33	1236
1040.46	1216
1041.58	1256
1042.71	1248
1043.83	1206
1044.96	1236
1046.09	1254
1047.21	1236
1048.34	1220
1049.46	1256
1050.59	1194
1051.71	1250
1052.84	1258
1053.96	1264
1055.09	1262
1056.21	1220
1057.33	1268
1058.46	1258
1059.58	1248
1060.71	1286
1061.83	1244
1062.95	1268
1064.07	1278
1065.2	1300
1066.32	1292
1067.44	1250
1068.56	1272
1069.69	1228
1070.81	1234
1071.93	1298
1073.05	1252
1074.17	1306
1075.29	1268
1076.41	1236
1077.54	1218
1078.66	1244
1079.78	1278
1080.9	1252
1082.02	1222
1083.14	1282
1084.25	1270
1085.37	1274
1086.49	1274
1087.61	1236
1088.73	1254
1089.85	1246
1090.97	1250
1092.09	1274
1093.21	1272
1094.32	1218
1095.44	1234
1096.56	1258
1097.68	1276
1098.79	1260
1099.91	1254
1101.03	1240
1102.14	1274
1103.26	1246
1104.38	1272
1105.49	1232
1106.61	1272
1107.72	1268
1108.84	1276
1109.96	1220
1111.07	1234
1112.19	1236
1113.3	1242
1114.42	1218
1115.53	1286
1116.64	1262
1117.76	1274
1118.87	1242
1119.99	1260
1121.1	1242
1122.21	1212
1123.33	1270
1124.44	1226
1125.55	1256
1126.66	1238
1127.78	1282
1128.89	1240
1130	1258
1131.11	1212
1132.23	1210
1133.34	1220
1134.45	1244
1135.56	1272
1136.67	1306
1137.78	1218
1138.89	1264
1140	1266
1141.11	1250
1142.22	1284
1143.33	1292
1144.44	1320
1145.55	1300
1146.66	1246
1147.77	1272
1148.88	1244
1149.99	1280
1151.1	1262
1152.21	1254
1153.32	1254
1154.42	1258
1155.53	1260
1156.64	1284
1157.75	1296
1158.85	1266
1159.96	1342
1161.07	1270
1162.17	1298
1163.28	1258
1164.39	1278
1165.49	1316
1166.6	1258
1167.71	1286
1168.81	1280
1169.92	1302
1171.02	1306
1172.13	1262
1173.23	1326
1174.34	1280
1175.44	1298
1176.55	1308
1177.65	1300
1178.76	1306
1179.86	1332
1180.97	1254
1182.07	1294
1183.17	1274
1184.28	1290
1185.38	1258
1186.48	1256
1187.58	1266
1188.69	1250
1189.79	1286
1190.89	1242
1191.99	1300
1193.1	1250
1194.2	1294
1195.3	1282
1196.4	1242
1197.5	1268
1198.6	1282
1199.7	1270
1200.8	1256
1201.9	1254
1203	1260
1204.1	1322
1205.2	1292
1206.3	1282
1207.4	1262
1208.5	1274
1209.6	1248
1210.7	1302
1211.8	1314
1212.9	1262
1214	1294
1215.1	1282
1216.19	1300
1217.29	1286
1218.39	1244
1219.49	1250
1220.58	1242
1221.68	1262
1222.78	1246
1223.88	1236
1224.97	1284
1226.07	1284
1227.17	1272
1228.26	1266
1229.36	1274
1230.45	1280
1231.55	1258
1232.65	1284
1233.74	1292
1234.84	1234
1235.93	1266
1237.02	1264
1238.12	1258
1239.21	1236
1240.31	1254
1241.4	1252
1242.5	1248
1243.59	1252
1244.68	1220
1245.78	1284
1246.87	1264
1247.96	1268
1249.06	1312
1250.15	1254
1251.24	1274
1252.33	1228
1253.43	1276
1254.52	1268
1255.61	1268
1256.7	1280
1257.79	1306
1258.88	1248
1259.98	1242
1261.07	1272
1262.16	1304
1263.25	1254
1264.34	1314
1265.43	1250
1266.52	1278
1267.61	1280
1268.7	1306
1269.79	1288
1270.88	1314
1271.96	1302
1273.05	1280
1274.14	1324
1275.23	1284
1276.32	1294
1277.41	1254
1278.5	1278
1279.58	1268
1280.67	1297.82
1281.76	1295.17
1282.85	1281.84
1283.93	1329.63
1285.02	1282.52
1286.11	1317.74
1287.19	1281.73
1288.28	1299.91
1289.37	1308.5
1290.45	1290.71
1291.54	1285.09
1292.63	1291.03
1293.71	1303.75
1294.8	1281.5
1295.88	1314.13
1296.97	1311.23
1298.05	1331.42
1299.14	1306.42
1300.22	1284.76
1301.31	1320.77
1302.39	1291.62
1303.47	1311.64
1304.56	1272.76
1305.64	1281.93
1306.72	1306.47
1307.81	1306.5
1308.89	1311.12
1309.97	1298.1
1311.06	1303.61
1312.14	1305.76
1313.22	1273.18
1314.3	1281.04
1315.39	1299.97
1316.47	1308.88
1317.55	1260.25
1318.63	1297.4
1319.71	1271.04
1320.79	1298.57
1321.88	1288.87
1322.96	1276.47
1324.04	1267.9
1325.12	1282.39
1326.2	1304.23
1327.28	1317.14
1328.36	1275.2
1329.44	1291.17
1330.52	1321.31
1331.6	1271.78
1332.68	1274.08
1333.76	1293.49
1334.84	1283.49
1335.91	1287.54
1336.99	1293.75
1338.07	1297.04
1339.15	1285.5
1340.23	1282.89
1341.31	1291.43
1342.38	1313.18
1343.46	1292.79
1344.54	1257.4
1345.62	1260.73
1346.69	1277.18
1347.77	1270.77
1348.85	1261.87
1349.92	1276.2
1351	1274.45
1352.08	1296.7
1353.15	1306.17
1354.23	1293.4
1355.3	1276.23
1356.38	1271.58
1357.46	1297.24
1358.53	1301.86
1359.6	1295.73
1360.68	1277.3
1361.75	1293.3
1362.83	1284.45
1363.9	1282.44
1364.98	1280.59
1366.05	1292.45
1367.13	1284.04
1368.2	1290.57
1369.27	1286.1
1370.35	1272.12
1371.42	1285.8
1372.49	1284.21
1373.56	1281.47
1374.64	1263.63
1375.71	1286.7
1376.78	1289.21
1377.85	1278.19
1378.93	1253.03
1380	1270.65
1381.07	1282.39
1382.14	1277.72
1383.21	1290.62
1384.28	1312.78
1385.35	1289.33
1386.43	1272.1
1387.5	1271.07
1388.57	1269.58
1389.64	1265.64
1390.13	1260
1391.2	1276
1392.28	1334
1393.35	1278
1394.43	1252
1395.5	1242
1396.57	1286
1397.65	1256
1398.72	1280
1399.8	1282
1400.87	1230
1401.94	1312
1403.02	1296
1404.09	1264
1405.17	1296
1406.24	1276
1407.31	1252
1408.38	1242
1409.46	1224
1410.53	1292
1411.6	1282
1412.67	1290
1413.74	1316
1414.82	1254
1415.89	1230
1416.96	1242
1418.03	1246
1419.1	1254
1420.17	1278
1421.24	1292
1422.31	1270
1423.38	1264
1424.45	1248
1425.52	1270
1426.59	1216
1427.66	1270
1428.73	1266
1429.8	1246
1430.87	1278
1431.94	1248
1433.01	1246
1434.08	1226
1435.14	1260
1436.21	1224
1437.28	1242
1438.35	1304
1439.42	1264
1440.48	1226
1441.55	1230
1442.62	1262
1443.68	1264
1444.75	1196
1445.82	1262
1446.89	1252
1447.95	1266
1449.02	1238
1450.08	1282
1451.15	1222
1452.22	1242
1453.28	1288
1454.35	1270
1455.41	1190
1456.48	1228
1457.54	1234
1458.61	1218
1459.67	1242
1460.73	1236
1461.8	1258
1462.86	1224
1463.93	1280
1464.99	1266
1466.05	1284
1467.12	1252
1468.18	1296
1469.24	1254
1470.31	1214
1471.37	1280
1472.43	1260
1473.49	1272
1474.56	1286
1475.62	1250
1476.68	1256
1477.74	1242
1478.8	1268
1479.86	1216
1480.93	1266
1481.99	1250
1483.05	1242
1484.11	1274
1485.17	1272
1486.23	1260
1487.29	1282
1488.35	1252
1489.41	1294
1490.47	1230
1491.53	1244
1492.59	1228
1493.65	1302
1494.71	1260
1495.76	1272
1496.82	1258
1497.88	1244
1498.94	1268
1500	1272
1501.06	1212
1502.11	1248
1503.17	1258
1504.23	1298
1505.29	1276
1506.34	1282
1507.4	1230
1508.46	1258
1509.51	1236
1510.57	1248
1511.63	1268
1512.68	1250
1513.74	1244
1514.8	1226
1515.85	1254
1516.91	1218
1517.96	1222
1519.02	1264
1520.07	1244
1521.13	1222
1522.18	1264
1523.24	1232
1524.29	1216
1525.34	1244
1526.4	1302
1527.45	1266
1528.51	1248
1529.56	1258
1530.61	1220
1531.67	1222
1532.72	1264
1533.77	1242
1534.82	1254
1535.88	1264
1536.93	1252
1537.98	1240
1539.03	1244
1540.08	1236
1541.14	1218
1542.19	1250
1543.24	1204
1544.29	1270
1545.34	1234
1546.39	1226
1547.44	1216
1548.49	1192
1549.54	1192
1550.59	1218
1551.64	1264
1552.69	1262
1553.74	1236
1554.79	1238
1555.84	1228
1556.89	1198
1557.94	1242
1558.99	1226
1560.04	1254
1561.09	1214
1562.14	1196
1563.18	1230
1564.23	1224
1565.28	1238
1566.33	1204
1567.37	1212
1568.42	1202
1569.47	1214
1570.52	1262
1571.56	1222
1572.61	1250
1573.66	1198
1574.7	1168
1575.75	1232
1576.79	1192
1577.84	1246
1578.89	1178
1579.93	1258
1580.98	1196
1582.02	1244
1583.07	1214
1584.11	1180
1585.16	1246
1586.2	1186
1587.25	1224
1588.29	1196
1589.34	1220
1590.38	1188
1591.42	1230
1592.47	1246
1593.51	1188
1594.55	1230
1595.6	1184
1596.64	1228
1597.68	1190
1598.72	1198
1599.77	1238
1600.81	1240
1601.85	1264
1602.89	1202
1603.94	1226
1604.98	1224
1606.02	1252
1607.06	1232
1608.1	1202
1609.14	1218
1610.18	1222
1611.22	1188
1612.26	1232
1613.3	1200
1614.34	1210
1615.38	1216
1616.42	1222
1617.46	1216
1618.5	1206
1619.54	1174
1620.58	1240
1621.62	1214
1622.66	1210
1623.7	1186
1624.74	1218
1625.78	1190
1626.81	1178
1627.85	1208
1628.89	1198
1629.93	1196
1630.97	1222
1632	1226
1633.04	1210
1634.08	1208
1635.11	1160
1636.15	1230
1637.19	1180
1638.22	1204
1639.26	1200
1640.3	1190
1641.33	1196
1642.37	1180
1643.4	1192
1644.44	1208
1645.47	1178
1646.51	1188
1647.55	1158
1648.58	1170
1649.61	1140
1650.65	1186
1651.68	1172
1652.72	1164
1653.75	1160
1654.79	1162
1655.82	1150
1656.85	1206
1657.89	1154
1658.92	1178
1659.95	1120
1660.98	1204
1662.02	1156
1663.05	1176
1664.08	1142
1665.12	1166
1666.15	1122
1667.18	1148
1668.21	1138
1669.24	1118
1670.27	1152
1671.3	1120
1672.34	1150
1673.37	1144
1674.4	1130
1675.43	1156
1676.46	1164
1677.49	1092
1678.52	1114
1679.55	1120
1680.58	1110
1681.61	1106
1682.64	1132
1683.67	1164
1684.7	1134
1685.73	1124
1686.75	1130
1687.78	1094
1688.81	1096
1689.84	1096
1690.87	1142
1691.9	1160
1692.93	1110
1693.95	1110
1694.98	1126
1696.01	1080
1697.03	1148
1698.06	1120
1699.09	1126
1700.12	1092
1701.14	1068
1702.17	1116
1703.2	1090
1704.22	1082
1705.25	1108
1706.27	1052
1707.3	1128
1708.32	1118
1709.35	1150
1710.37	1084
1711.4	1060
1712.42	1090
1713.45	1116
1714.47	1082
1715.5	1098
1716.52	1108
1717.55	1116
1718.57	1074
1719.59	1088
1720.62	1102
1721.64	1088
1722.67	1122
1723.69	1066
1724.71	1102
1725.73	1090
1726.76	1112
1727.78	1122
1728.8	1096
1729.82	1080
1730.84	1072
1731.87	1072
1732.89	1122
1733.91	1082
1734.93	1090
1735.95	1118
1736.97	1094
1737.99	1110
1739.01	1072
1740.04	1056
1741.06	1098
1742.08	1106
1743.1	1100
1744.12	1056
1745.14	1098
1746.16	1082
1747.18	1056
1748.19	1084
1749.21	1090
1750.23	1104
1751.25	1104
1752.27	1102
1753.29	1076
1754.31	1078
1755.33	1052
1756.34	1084
1757.36	1076
1758.38	1070
1759.4	1070
1760.41	1100
1761.43	1060
1762.45	1134
1763.47	1080
1764.48	1088
1765.5	1074
1766.51	1086
1767.53	1072
1768.55	1066
1769.56	1058
1770.58	1112
1771.6	1062
1772.61	1090
1773.63	1086
1774.64	1064
1775.66	1086
1776.67	1074
1777.69	1054
1778.7	1096
1779.71	1078
1780.73	1084
1781.74	1066
1782.76	1100
1783.77	1028
1784.78	1052
1785.8	1102
1786.81	1054
1787.82	1074
1788.84	1070
1789.85	1068
1790.86	1056
1791.88	1066
1792.89	1084
1793.9	1076
1794.91	1056
1795.92	1082
1796.94	1086
1797.95	1074
1798.96	1082
1799.97	1062
1800.98	1050
1801.99	1040
1803	1078
1804.01	1078
1805.02	1058
1806.03	1070
1807.04	1076
1808.05	1068
1809.06	1036
1810.07	1068
1811.08	1034
1812.09	1032
1813.1	1046
1814.11	1066
1815.12	1048
1816.13	1008
1817.14	1038
1818.14	1032
1819.15	1060
1820.16	1020
1821.17	1066
1822.18	1052
1823.18	1048
1824.19	1048
1825.2	992
1826.21	1038
1827.21	1020
1828.22	1046
1829.23	1008
1830.23	1076
1831.24	1054
1832.25	1044
1833.25	1048
1834.26	1048
1835.27	1066
1836.27	1054
1837.28	1084
1838.28	1046
1839.29	1010
1840.29	1050
1841.3	994
1842.3	1072
1843.31	1016
1844.31	1026
1845.31	1012
1846.32	1052
1847.32	1026
1848.33	1042
1849.33	1052
1850.33	1016
1851.34	994
1852.34	1064
1853.34	1060
1854.35	1016
1855.35	1012
1856.35	1034
1857.35	980
1858.36	1028
1859.36	1048
1860.36	980
1861.36	1032
1862.36	1062
1863.36	974
1864.36	1022
1865.37	1020
1866.37	992
1867.37	1006
1868.37	998
1869.37	974
1870.37	978
1871.37	1016
1872.37	1026
1873.37	996
1874.37	998
1875.37	1026
1876.37	1016
1877.37	988
1878.37	1040
1879.37	1014
1880.36	988
1881.36	1016
1882.36	986
1883.36	1034
1884.36	984
1885.36	1006
1886.35	1032
1887.35	966
1888.35	1010
1889.35	990
1890.34	1022
1891.34	1024
1892.34	976
1893.34	1002
1894.33	1036
1895.33	1018
1896.33	1026
1897.32	1026
1898.32	992
1899.31	972
1900.31	1038
1901.3	994
1902.3	1014
1903.3	938
1904.29	1012
1905.29	982
1906.28	990
1907.27	994
1908.27	1008
1909.26	992
1910.26	1004
1911.25	1026
1912.25	978
1913.24	986
1914.23	976
1915.23	976
1916.22	958
1917.21	1000
1918.21	978
1919.2	978
1920.19	992
1921.18	988
1922.18	996
1923.17	978
1924.16	1008
1925.15	1016
1926.14	986
1927.14	962
1928.13	994
1929.12	1026
1930.11	976
1931.1	962
1932.09	992
1933.08	994
1934.07	976
1935.06	1000
1936.05	940
1937.04	988
1938.03	984
1939.02	1008
1940.01	1006
1941	956
1941.99	966
1942.98	998
1943.97	948
1944.96	992
1945.95	992
1946.94	986
1947.92	1010
1948.91	986
1949.9	1000
1950.89	964
1951.88	1006
1952.86	954
1953.85	960
1954.84	974
1955.83	964
1956.81	1026
1957.8	968
1958.79	1012
1959.77	970
1960.76	972
1961.75	1008
1962.73	978
1963.72	938
1964.7	1004
1965.69	966
1966.68	974
1967.66	946
1968.65	964
1969.63	918
1970.62	948
1971.6	952
1972.59	978
1973.57	1000
1974.55	978
1975.54	948
1976.52	950
1977.51	1014
1978.49	988
1979.47	982
1980.46	942
1981.44	976
1982.42	940
1983.41	1002
1984.39	976
1985.37	958
1986.35	982
1987.34	978
1988.32	928
1989.3	962
1990.28	968
1991.27	976
1992.25	946
1993.23	928
1994.21	934
1995.19	978
1996.17	964
1997.15	956
1998.13	904
1999.11	934
2000.09	954
2001.07	974
2002.05	968
2003.03	940
2004.01	980
2004.99	956
2005.97	974
2006.95	956
2007.93	972
2008.91	938
2009.89	926
2010.87	978
2011.85	984
2012.82	944
2013.8	972
2014.78	938
2015.76	926
2016.74	954
2017.72	952
2018.69	958
2019.67	922
2020.65	952
2021.62	966
2022.6	994
2023.58	970
2024.55	966
2025.53	963
2026.51	960
2027.48	932
2028.46	936
2029.44	954
2030.41	942
2031.39	912
2032.36	920
2033.34	910
2034.31	940
2035.29	912
2036.26	942
2037.24	942
2038.21	932
2039.19	928
2040.16	912
2041.14	928
2042.11	952
2043.08	942
2044.06	952
2045.03	920
2046	938
2046.98	948
2047.95	898
2048.92	932
2049.9	932
2050.87	920
2051.84	926
2052.81	912
2053.79	920
2054.76	924
2055.73	924
2056.7	896
2057.67	974
2058.64	932
2059.61	922
2060.59	914
2061.56	934
2062.53	926
2063.5	920
2064.47	906
2065.44	934
2066.41	922
2067.38	926
2068.35	950
2069.32	936
2070.29	922
2071.26	922
2072.23	928
2073.2	926
2074.17	914
2075.14	878
2076.1	924
2077.07	906
2078.04	926
2079.01	898
2079.98	920
2080.95	920
2081.91	916
2082.88	926
2083.85	886
2084.82	874
2085.78	936
2086.75	928
2087.72	910
2088.68	906
2089.65	890
2090.62	918
2091.58	922
2092.55	896
2093.52	882
2094.48	900
2095.45	920
2096.41	908
2097.38	908
2098.35	902
2099.31	924
2100.28	880
2101.24	906
2102.21	904
2103.17	908
2104.14	866
2105.1	862
2106.06	864
2107.03	876
2107.99	902
2108.96	856
2109.92	910
2110.88	876
2111.85	844
2112.81	894
2113.77	884
2114.73	916
2115.7	870
2116.66	874
2117.62	892
2118.58	878
2119.55	914
2120.51	886
2121.47	854
2122.43	900
2123.39	858
2124.36	938
2125.32	888
2126.28	846
2127.24	890
2128.2	878
2129.16	884
2130.12	882
2131.08	904
2132.04	858
2133	862
2133.96	904
2134.92	868
2135.88	876
2136.84	878
2137.8	894
2138.76	860
2139.72	858
2140.68	886
2141.64	852
2142.59	888
2143.55	872
2144.51	892
2145.47	852
2146.43	842
2147.39	862
2148.34	860
2149.3	864
2150.26	860
2151.22	874
2152.17	918
2153.13	874
2154.09	870
2155.04	868
2156	872
2156.96	850
2157.91	872
2158.87	882
2159.82	874
2160.78	882
2161.74	822
2162.69	848
2163.65	872
2164.6	832
2165.56	860
2166.51	876
2167.47	880
2168.42	852
2169.38	844
2170.33	856
2171.29	852
2172.24	848
2173.19	844
2174.15	858
2175.1	882
2176.05	858
2177.01	840
2177.96	818
2178.91	830
2179.87	846
2180.82	858
2181.77	836
2182.73	812
2183.68	864
2184.63	832
2185.58	836
2186.53	870
2187.49	844
2188.44	844
2189.39	830
2190.34	840
2191.29	860
2192.24	838
2193.19	834
2194.14	820
2195.09	858
2196.05	794
2197	830
2197.95	824
2198.9	830
2199.85	820
2200.8	816
2201.75	826
2202.7	840
2203.64	852
2204.59	784
2205.54	830
2206.49	836
2207.44	798
2208.39	810
2209.34	818
2210.29	808
2211.23	808
2212.18	810
2213.13	828
2214.08	828
2215.03	850
2215.97	850
2216.92	830
2217.87	814
2218.81	828
2219.76	826.078
2220.71	823.71
2221.66	794.485
2222.6	830.941
2223.55	812.067
2224.49	813.143
2225.44	810.672
2226.39	852.372
2227.33	818.502
2228.28	803.386
2229.22	812.589
2230.17	826.761
2231.11	820.128
2232.06	837.537
2233	823.844
2233.95	823.985
2234.89	811.989
2235.84	807.103
2236.78	840.644
2237.73	826.863
2238.67	837.381
2239.61	827.391
2240.56	837.584
2241.5	814.281
2242.45	815.555
2243.39	801.159
2244.33	807.907
2245.28	793.011
2246.22	790.121
2247.16	808.411
2248.1	812.379
2249.05	806.377
2249.99	801.812
2250.93	800.53
2251.87	816.603
2252.81	802.641
2253.76	810.365
2254.7	814.984
2255.64	830.738
2256.58	788.035
2257.52	822.526
2258.46	810.991
2259.4	829.797
2260.34	815.599
2261.28	807.339
2262.23	793.71
2263.17	811.441
2264.11	803.298
2265.05	811.49
2265.99	812.971
2266.93	791
2267.87	794.883
2268.8	816.867
2269.74	795.649
2270.68	812.964
2271.62	793.963
2272.56	811.486
2273.5	790.486
2274.44	792.842
2275.38	803.673
2276.32	801.992
2277.25	787.111
2278.19	789.689
2279.13	810.519
2280.07	802.15
2281.01	798.984
2281.94	795.345
2282.88	822.122
2283.82	794.312
2284.76	818.636
2285.69	796.675
2286.63	781.231
2287.57	813.818
2288.5	796.939
2289.44	799.729
2290.37	797.646
2291.31	801.243
2292.25	794.268
2293.18	769.599
2294.12	798.893
2295.05	799.981
2295.99	822.384
2296.92	822.486
2297.86	794.016
2298.79	787.81
2299.73	792.147
2300.66	805.669
2301.6	804.74
2302.53	794.318
2303.47	779.042
2304.4	788.439
2305.34	787.922
2306.27	783.391
2307.2	795.643
2308.14	809.419
2309.07	804.662
2310	788.226
2310.94	789.621
2311.87	788.385
2312.8	765.861
2313.74	802.19
2313.98	818
2314.92	812
2315.86	806
2316.79	828
2317.73	784
2318.67	806
2319.6	786
2320.54	802
2321.48	774
2322.41	778
2323.35	782
2324.29	802
2325.22	766
2326.16	766
2327.09	774
2328.03	776
2328.96	750
2329.9	782
2330.83	814
2331.77	766
2332.7	784
2333.64	786
2334.57	784
2335.51	772
2336.44	786
2337.38	760
2338.31	766
2339.24	796
2340.18	788
2341.11	786
2342.04	776
2342.98	788
2343.91	778
2344.84	772
2345.78	776
2346.71	758
2347.64	772
2348.57	786
2349.51	766
2350.44	768
2351.37	768
2352.3	778
2353.24	754
2354.17	770
2355.1	774
2356.03	760
2356.96	770
2357.89	810
2358.82	762
2359.75	782
2360.68	772
2361.62	796
2362.55	764
2363.48	784
2364.41	746
2365.34	784
2366.27	776
2367.2	776
2368.13	746
2369.05	754
2369.98	766
2370.91	768
2371.84	752
2372.77	770
2373.7	746
2374.63	764
2375.56	798
2376.49	778
2377.41	766
2378.34	770
2379.27	774
2380.2	752
2381.12	776
2382.05	768
2382.98	750
2383.91	774
2384.83	766
2385.76	766
2386.69	778
2387.61	754
2388.54	758
2389.47	774
2390.39	752
2391.32	778
2392.25	766
2393.17	786
2394.1	738
2395.02	744
2395.95	760
2396.87	792
2397.8	754
2398.72	790
2399.65	768
2400.57	746
2401.5	768
2402.42	770
2403.35	766
2404.27	740
2405.2	774
2406.12	752
2407.04	792
2407.97	742
2408.89	782
2409.81	766
2410.74	752
2411.66	752
2412.58	746
2413.51	774
2414.43	748
2415.35	772
2416.27	782
2417.2	746
2418.12	740
2419.04	708
2419.96	760
2420.88	740
2421.81	770
2422.73	746
2423.65	744
2424.57	724
2425.49	752
2426.41	746
2427.33	720
2428.25	754
2429.17	790
2430.1	710
2431.02	726
2431.94	746
2432.85	740
2433.77	754
2434.7	754
2435.61	750
2436.53	764
2437.45	774
2438.37	706
2439.29	736
2440.21	760
2441.13	696
2442.05	716
2442.97	708
2443.88	754
2444.8	708
2445.72	762
2446.64	758
2447.56	730
2448.47	730
2449.39	772
2450.31	756
2451.23	760
2452.14	746
2453.06	714
2453.98	764
2454.89	748
2455.81	684
2456.73	732
2457.64	730
2458.56	710
2459.48	748
2460.39	772
2461.31	762
2462.22	738
2463.14	748
2464.05	744
2464.97	774
2465.88	716
2466.8	726
2467.71	742
2468.63	728
2469.54	748
2470.46	730
2471.37	696
2472.29	696
2473.2	748
2474.11	720
2475.03	692
2475.94	716
2476.86	702
2477.77	750
2478.68	744
2479.59	740
2480.51	740
2481.42	726
2482.33	700
2483.25	708
2484.16	724
2485.07	720
2485.98	752
2486.9	720
2487.81	724
2488.72	752
2489.63	720
2490.54	724
2491.45	738
2492.36	714
2493.28	704
2494.19	712
2495.1	702
2496.01	730
2496.92	728
2497.83	720
2498.74	738
2499.65	726
2500.56	696
2501.47	738
2502.38	748
2503.29	708
2504.2	756
2505.11	700
2506.02	704
2506.93	694
2507.83	718
2508.74	728
2509.65	722
2510.56	740
2511.47	680
2512.38	720
2513.29	742
2514.19	712
2515.1	690
2516.01	702
2516.92	748
2517.82	726
2518.73	700
2519.64	710
2520.55	690
2521.45	706
2522.36	710
2523.27	706
2524.17	726
2525.08	710
2525.99	694
2526.89	744
2527.8	736
2528.7	708
2529.61	720
2530.51	672
2531.42	712
2532.33	690
2533.23	740
2534.14	722
2535.04	694
2535.95	688
2536.85	686
2537.75	700
2538.66	720
2539.56	708
2540.47	694
2541.37	708
2542.28	716
2543.18	680
2544.08	694
2544.99	722
2545.89	684
2546.79	678
2547.7	688
2548.6	694
2549.5	696
2550.4	698
2551.31	694
2552.21	706
2553.11	694
2554.01	708
2554.92	660
2555.82	674
2556.72	678
2557.62	712
2558.52	698
2559.42	694
2560.32	670
2561.23	676
2562.13	708
2563.03	692
2563.93	662
2564.83	674
2565.73	686
2566.63	672
2567.53	696
2568.43	674
2569.33	676
2570.23	688
2571.13	718
2572.03	718
2572.93	676
2573.83	686
2574.73	702
2575.63	678
2576.52	702
2577.42	668
2578.32	666
2579.22	696
2580.12	668
2581.02	708
2581.91	706
2582.81	672
2583.71	680
2584.61	684
2585.51	700
2586.4	678
2587.3	682
2588.2	676
2589.09	686
2589.99	638
2590.89	674
2591.78	666
2592.68	678
2593.58	684
2594.47	680
2595.37	686
2596.26	656
2597.16	662
2598.06	638
2598.95	660
2599.85	694
2600.74	634
2601.64	680
2602.53	672
2603.43	696
2604.32	640
2605.22	672
2606.11	660
2607.01	686
2607.9	670
2608.79	648
2609.69	656
2610.58	650
2611.48	692
2612.37	716
2613.26	646
2614.16	664
2615.05	678
2615.94	662
2616.84	682
2617.73	656
2618.62	666
2619.51	648
2620.41	654
2621.3	658
2622.19	660
2623.08	670
2623.97	630
2624.87	698
2625.76	680
2626.65	678
2627.54	666
2628.43	666
2629.32	646
2630.21	630
2631.1	622
2631.99	616
2632.89	662
2633.78	644
2634.67	642
2635.56	654
2636.45	660
2637.34	658
2638.23	652
2639.12	672
2640.01	712
2640.9	642
2641.78	644
2642.67	664
2643.56	630
2644.45	662
2645.34	622
2646.23	664
2647.12	664
2648.01	656
2648.89	658
2649.78	642
2650.67	662
2651.56	640
2652.45	668
2653.33	634
2654.22	652
2655.11	658
2656	638
2656.88	650
2657.77	648
2658.66	624
2659.54	614
2660.43	616
2661.32	632
2662.2	638
2663.09	650
2663.97	640
2664.86	662
2665.75	608
2666.63	632
2667.52	638
2668.4	648
2669.29	636
2670.17	650
2671.06	626
2671.94	616
2672.83	658
2673.71	682
2674.6	600
2675.48	608
2676.37	634
2677.25	654
2678.13	638
2679.02	642
2679.9	610
2680.78	662
2681.67	604
2682.55	642
2683.43	620
2684.32	644
2685.2	600
2686.08	636
2686.97	632
2687.85	630
2688.73	634
2689.61	634
2690.5	628
2691.38	640
2692.26	612
2693.14	618
2694.02	658
2694.9	648
2695.79	624
2696.67	652
2697.55	624
2698.43	632
2699.31	634
2700.19	620
2701.07	616
2701.95	642
2702.83	618
2703.71	624
2704.59	622
2705.47	606
2706.35	608
2707.23	632
2708.11	608
2708.99	592
2709.87	660
2710.75	640
2711.63	626
2712.51	634
2713.39	596
2714.27	608
2715.14	612
2716.02	620
2716.9	622
2717.78	612
2718.66	638
2719.54	634
2720.41	628
2721.29	606
2722.17	618
2723.05	596
2723.92	570
2724.8	604
2725.68	630
2726.55	632
2727.43	610
2728.31	632
2729.18	616
2730.06	606
2730.94	590
2731.81	624
2732.69	578
2733.57	620
2734.44	570
2735.32	604
2736.19	598
2737.07	614
2737.94	616
2738.82	598
2739.69	592
2740.57	590
2741.44	608
2742.32	586
2743.19	580
2744.07	598
2744.94	582
2745.81	596
2746.69	616
2747.56	620
2748.44	570
2749.31	592
2750.18	576
2751.06	586
2751.93	602
2752.8	560
2753.68	572
2754.55	584
2755.42	616
2756.29	604
2757.17	604
2758.04	592
2758.91	562
2759.78	576
2760.65	570
2761.53	596
2762.4	588
2763.27	586
2764.14	582
2765.01	596
2765.88	588
2766.76	598
2767.63	570
2768.5	582
2769.37	582
2770.24	554
2771.11	594
2771.98	628
2772.85	594
2773.72	594
2774.59	578
2775.46	608
2776.33	594
2777.2	570
2778.07	596
2778.94	584
2779.81	578
2780.67	610
2781.54	570
2782.41	578
2783.28	568
2784.15	562
2785.02	606
2785.89	584
2786.75	590
2787.62	592
2788.49	606
2789.36	584
2790.23	556
2791.09	588
2791.96	590
2792.83	550
2793.7	592
2794.56	554
2795.43	600
2796.3	562
2797.16	568
2798.03	580
2798.9	568
2799.76	602
2800.63	574
2801.49	552
2802.36	570
2803.23	596
2804.09	576
2804.96	546
2805.82	574
2806.69	566
2807.55	588
2808.42	564
2809.28	576
2810.15	566
2811.01	568
2811.88	560
2812.74	562
2813.61	582
2814.47	586
2815.33	556
2816.2	562
2817.06	552
2817.93	552
2818.79	556
2819.65	572
2820.52	560
2821.38	554
2822.24	556
2823.11	570
2823.97	548
2824.83	566
2825.69	546
2826.55	520
2827.42	544
2828.28	570
2829.14	580
2830	546
2830.87	558
2831.73	538
2832.59	546
2833.45	558
2834.31	580
2835.17	562
2836.03	520
2836.89	566
2837.76	522
2838.62	544
2839.48	548
2840.34	572
2841.2	538
2842.06	546
2842.92	584
2843.78	568
2844.64	560
2845.5	542
2846.36	552
2847.22	546
2848.07	560
2848.93	546
2849.79	542
2850.65	540
2851.51	466
2852.37	548
2853.23	560
2854.09	538
2854.95	558
2855.8	524
2856.66	546
2857.52	546
2858.38	522
2859.24	540
2860.09	516
2860.95	518
2861.81	540
2862.66	488
2863.52	550
2864.38	538
2865.24	556
2866.09	518
2866.95	548
2867.81	558
2868.66	534
2869.52	512
2870.37	525
2871.23	538
2872.09	530
2872.94	528
2873.8	546
2874.65	550
2875.51	568
2876.36	548
2877.22	518
2878.07	544
2878.93	544
2879.78	520
2880.64	534
2881.49	546
2882.35	522
2883.2	538
2884.05	524
2884.91	534
2885.76	526
2886.62	540
2887.47	512
2888.32	532
2889.18	518
2890.03	508
2890.88	528
2891.74	528
2892.59	522
2893.44	502
2894.29	522
2895.15	512
2896	506
2896.85	510
2897.7	496
2898.55	534
2899.41	496
2900.26	498
2901.11	522
2901.96	534
2902.81	522
2903.66	496
2904.52	496
2905.37	544
2906.22	512
2907.07	548
2907.92	520
2908.77	524
2909.62	500
2910.47	534
2911.32	532
2912.17	494
2913.02	522
2913.87	510
2914.72	498
2915.57	508
2916.42	500
2917.27	500
2918.12	516
2918.97	502
2919.82	508
2920.66	510
2921.51	500
2922.36	502
2923.21	508
2924.06	516
2924.91	520
2925.75	508
2926.6	518
2927.45	524
2928.3	538
2929.15	494
2929.99	510
2930.84	500
2931.69	498
2932.54	500
2933.38	526
2934.23	502
2935.08	512
2935.92	504
2936.77	486
2937.62	522
2938.46	536
2939.31	532
2940.15	516
2941	482
2941.85	514
2942.69	494
2943.54	490
2944.38	514
2945.23	510
2946.07	518
2946.92	516
2947.76	486
2948.61	498
2949.45	510
2950.3	478
2951.14	512
2951.99	512
2952.83	488
2953.67	482
2954.52	478
2955.36	506
2956.21	492
2957.05	500
2957.89	518
2958.74	518
2959.58	504
2960.42	504
2961.27	512
2962.11	490
2962.95	502
2963.79	478
2964.64	488
2965.48	492
2966.32	478
2967.16	492
2968.01	468
2968.85	508
2969.69	498
2970.53	490
2971.37	486
2972.21	512
2973.05	480
2973.9	496
2974.74	472
2975.58	480
2976.42	484
2977.26	496
2978.1	462
2978.94	474
2979.78	498
2980.62	480
2981.46	488
2982.3	486
2983.14	476
2983.98	490
2984.82	474
2985.66	506
2986.5	512
2987.34	456
2988.18	462
2989.02	470
2989.86	472
2990.69	464
2991.53	468
2992.37	474
2993.21	486
2994.05	482
2994.89	480
2995.72	456
2996.56	482
2997.4	474
2998.24	464
2999.08	456
2999.91	444
3000.75	466
3001.59	494
3002.43	460
3003.26	454
3004.1	468
3004.94	502
3005.77	470
3006.61	448
3007.45	440
3008.28	472
3009.12	450
3009.95	478
3010.79	466
3011.63	486
3012.46	460
3013.3	454
3014.13	456
3014.97	446
3015.8	466
3016.64	480
3017.47	454
3018.31	466
3019.14	452
3019.98	446
3020.81	464
3021.65	454
3022.48	440
3023.31	436
3024.15	464
3024.98	456
3025.82	418
3026.65	466
3027.48	460
3028.32	446
3029.15	464
3029.98	454
3030.82	454
3031.65	490
3032.48	480
3033.31	446
3034.15	464
3034.98	448
3035.81	456
3036.64	456
3037.48	458
3038.31	462
3039.14	460
3039.97	446
3040.8	469.83
3041.63	465.53
3042.47	440.428
3043.3	453.816
3044.13	443.527
3044.96	446.833
3045.79	463.983
3046.62	456.987
3047.45	446.214
3048.28	453.093
3049.11	449.5
3049.94	449.312
3050.77	450.225
3051.6	433.221
3052.43	442.577
3053.26	446.413
3054.09	433.399
3054.92	427.633
3055.75	456.112
3056.58	426.45
3057.41	435.941
3058.24	430.286
3059.07	438.72
3059.9	443.679
3060.73	437.412
3061.55	425.822
3062.38	464.96
3063.21	421.523
3064.04	448.262
3064.87	442.251
3065.7	455.736
3066.52	427.686
3067.35	451.7
3068.18	414.228
3069.01	428.193
3069.83	438.708
3070.66	449.289
3071.49	430.587
3072.32	428.163
3073.14	438.871
3073.97	427.96
3074.8	429.16
3075.62	429.489
3076.45	451.613
3077.28	439.715
3078.1	415.602
3078.93	429.072
3079.75	432.238
3080.58	437.125
3081.41	422.225
3082.23	424.169
3083.06	434.742
3083.88	435.952
3084.71	432.817
3085.53	423.589
3086.36	409.69
3087.18	415.513
3088.01	419.393
3088.83	422.271
3089.66	432.055
3090.48	417.867
3091.31	433.675
3092.13	438.224
3092.96	416.12
3093.78	425.927
3094.6	424.828
3095.43	416.234
3096.25	421.078
3097.07	425.239
3097.9	419.632
3098.72	426.021
3099.54	408.956
3100.37	416.856
3101.19	410.013
3102.01	410.362
3102.84	412.621
3103.66	420.484
3104.48	422.188
3105.3	409.734
3106.13	413.563
3106.95	412.336
3107.77	408.998
3108.59	399.427
3109.41	400.502
3110.24	405.694
3111.06	404.452
3111.88	409.055
3112.7	401.129
3113.52	406.745
3114.34	397.233
3115.16	396.616
3115.98	408.911
3116.81	411.461
3117.63	415.076
3118.45	411.487
3119.27	413.738
3120.09	418.052
3120.91	428.672
3121.73	425.048
3122.55	409.076
3123.37	389.642
3123.73	378
3124.56	390
3125.38	366
3126.21	400
3127.03	414
3127.85	378
3128.68	376
3129.5	418
3130.32	398
3131.15	382
3131.97	402
3132.79	382
3133.62	392
3134.44	402
3135.26	386
3136.08	396
3136.91	382
3137.73	394
3138.55	414
3139.37	406
3140.19	388
3141.02	380
3141.84	386
3142.66	368
3143.48	390
3144.3	392
3145.13	398
3145.95	392
3146.77	380
3147.59	384
3148.41	408
3149.23	388
3150.05	362
3150.87	406
3151.69	396
3152.51	386
3153.33	382
3154.15	388
3154.97	384
3155.79	404
3156.61	386
3157.43	402
3158.25	392
3159.07	366
3159.89	394
3160.71	376
3161.53	404
3162.35	390
3163.17	384
3163.98	378
3164.8	388
3165.62	376
3166.44	380
3167.26	376
3168.08	392
3168.89	376
3169.71	374
3170.53	358
3171.35	374
3172.17	376
3172.98	372
3173.8	384
3174.62	370
3175.43	376
3176.25	370
3177.07	388
3177.89	386
3178.7	370
3179.52	362
3180.33	362
3181.15	352
3181.97	366
3182.78	360
3183.6	396
3184.41	354
3185.23	362
3186.05	376
3186.86	380
3187.68	366
3188.49	380
3189.31	366
3190.12	380
3190.94	398
3191.75	402
3192.57	382
3193.38	380
3194.2	382
3195.01	372
3195.82	356
3196.64	388
3197.45	380
3198.27	374
3199.08	388
3199.89	374
3200.71	358
3201.52	370
3202.33	356
3203.15	362
3203.96	364
3204.77	350
3205.59	374
3206.4	370
3207.21	368
3208.02	366
3208.84	366
3209.65	352
3210.46	360
3211.27	368
3212.09	368
3212.9	360
3213.71	368
3214.52	378
3215.33	398
3216.14	382
3216.96	370
3217.77	376
3218.58	358
3219.39	376
3220.2	360
3221.01	382
3221.82	354
3222.63	358
3223.44	374
3224.25	372
3225.06	372
3225.87	366
3226.68	374
3227.49	388
3228.3	372
3229.11	346
3229.92	370
3230.73	348
3231.54	362
3232.35	332
3233.16	370
3233.97	380
3234.77	372
3235.58	374
3236.39	368
3237.2	358
3238.01	358
3238.82	336
3239.63	378
3240.43	376
3241.24	360
3242.05	338
3242.86	366
3243.66	350
3244.47	354
3245.28	356
3246.09	340
3246.89	354
3247.7	370
3248.51	372
3249.31	352
3250.12	356
3250.93	370
3251.73	342
3252.54	366
3253.35	360
3254.15	366
3254.96	364
3255.76	336
3256.57	368
3257.38	388
3258.18	336
3258.99	348
3259.79	356
3260.6	364
3261.4	346
3262.21	348
3263.01	338
3263.82	352
3264.62	342
3265.43	334
3266.23	346
3267.04	362
3267.84	378
3268.64	352
3269.45	354
3270.25	344
3271.06	326
3271.86	340
3272.66	360
3273.47	358
3274.27	356
3275.07	348
3275.88	362
3276.68	334
3277.48	336
3278.28	344
3279.09	340
3279.89	332
3280.69	342
3281.49	360
3282.3	322
3283.1	350
3283.9	332
3284.7	320
3285.5	352
3286.31	340
3287.11	348
3287.91	332
3288.71	354
3289.51	372
3290.31	330
3291.11	352
3291.91	342
3292.71	330
3293.51	330
3294.31	340
3295.12	342
3295.92	342
3296.72	350
3297.52	350
3298.32	328
3299.12	334
3299.92	344
3300.72	336
3301.51	338
3302.31	330
3303.11	338
3303.91	338
3304.71	358
3305.51	344
3306.31	340
3307.11	338
3307.91	342
3308.71	330
3309.5	328
3310.3	318
3311.1	336
3311.9	326
3312.7	350
3313.49	342
3314.29	330
3315.09	336
3315.89	368
3316.69	334
3317.48	342
3318.28	326
3319.08	320
3319.87	332
3320.67	330
3321.47	332
3322.26	328
3323.06	350
3323.86	334
3324.65	340
3325.45	328
3326.25	322
3327.04	326
3327.84	314
3328.63	350
3329.43	320
3330.22	312
3331.02	344
3331.81	330
3332.61	328
3333.4	308
3334.2	312
3334.99	336
3335.79	316
3336.58	338
3337.38	328
3338.17	334
3338.97	322
3339.76	310
3340.56	318
3341.35	358
3342.14	306
3342.94	324
3343.73	350
3344.52	334
3345.32	318
3346.11	332
3346.9	314
3347.7	344
3348.49	332
3349.28	326
3350.08	340
3350.87	314
3351.66	308
3352.45	318
3353.25	320
3354.04	324
3354.83	324
3355.62	350
3356.41	326
3357.21	314
3358	326
3358.79	316
3359.58	310
3360.37	332
3361.16	294
3361.95	316
3362.75	324
3363.54	340
3364.33	298
3365.12	310
3365.91	316
3366.7	310
3367.49	326
3368.28	316
3369.07	340
3369.86	300
3370.65	306
3371.44	304
3372.23	302
3373.02	342
3373.81	304
3374.6	322
3375.39	326
3376.18	328
3376.97	318
3377.75	334
3378.54	344
3379.33	334
3380.12	312
3380.91	318
3381.7	328
3382.49	316
3383.27	320
3384.06	326
3384.85	318
3385.64	310
3386.43	302
3387.21	326
3388	294
3388.79	302
3389.58	300
3390.36	320
3391.15	298
3391.94	300
3392.72	308
3393.51	304
3394.3	306
3395.08	320
3395.87	320
3396.66	300
3397.44	322
3398.23	292
3399.01	288
3399.8	316
3400.59	300
3401.37	306
3402.16	326
3402.94	296
3403.73	318
3404.51	320
3405.3	332
3406.08	322
3406.87	298
3407.65	316
3408.44	298
3409.22	322
3410.01	308
3410.79	288
3411.58	300
3412.36	314
3413.14	294
3413.93	298
3414.71	292
3415.5	302
3416.28	298
3417.06	310
3417.85	292
3418.63	298
3419.41	308
3420.2	304
3420.98	302
3421.76	312
3422.54	286
3423.33	306
3424.11	312
3424.89	310
3425.67	296
3426.46	318
3427.24	316
3428.02	292
3428.8	304
3429.58	300
3430.36	302
3431.15	314
3431.93	300
3432.71	302
3433.49	290
3434.27	316
3435.05	304
3435.83	312
3436.61	296
3437.4	314
3438.18	318
3438.96	310
3439.74	296
3440.52	320
3441.3	314
3442.08	302
3442.86	296
3443.64	302
3444.42	282
3445.2	302
3445.98	294
3446.76	300
3447.53	280
3448.31	300
3449.09	304
3449.87	304
3450.65	290
3451.43	284
3452.21	296
3452.99	288
3453.77	286
3454.54	286
3455.32	294
3456.1	298
3456.88	278
3457.66	274
3458.43	290
3459.21	272
3459.99	286
3460.77	284
3461.54	292
3462.32	294
3463.1	286
3463.88	302
3464.65	284
3465.43	302
3466.21	294
3466.98	286
3467.76	272
3468.53	282
3469.31	298
3470.09	280
3470.86	294
3471.64	264
3472.42	306
3473.19	272
3473.97	280
3474.74	294
3475.52	286
3476.29	278
3477.07	292
3477.84	276
3478.62	292
3479.39	310
3480.17	282
3480.94	270
3481.72	284
3482.49	290
3483.27	286
3484.04	286
3484.82	294
3485.59	296
3486.36	280
3487.14	276
3487.91	272
3488.68	280
3489.46	274
3490.23	290
3491	272
3491.78	282
3492.55	284
3493.32	302
3494.1	284
3494.87	274
3495.64	286
3496.42	278
3497.19	300
3497.96	280
3498.73	286
3499.5	288
3500.28	266
3501.05	282
3501.82	282
3502.59	276
3503.36	272
3504.14	290
3504.91	270
3505.68	282
3506.45	274
3507.22	282
3507.99	272
3508.76	262
3509.53	288
3510.3	288
3511.07	290
3511.84	272
3512.61	264
3513.38	276
3514.16	288
3514.92	280
3515.7	292
3516.46	276
3517.23	286
3518	284
3518.77	266
3519.54	280
3520.31	290
3521.08	264
3521.85	294
3522.62	284
3523.39	270
3524.16	282
3524.93	292
3525.69	276
3526.46	274
3527.23	268
3528	266
3528.77	282
3529.53	252
3530.3	262
3531.07	278
3531.84	274
3532.61	250
3533.37	270
3534.14	298
3534.91	266
3535.68	272
3536.44	268
3537.21	288
3537.98	276
3538.74	262
3539.51	278
3540.28	270
3541.04	260
3541.81	274
3542.58	272
3543.34	274
3544.11	260
3544.87	274
3545.64	282
3546.4	260
3547.17	276
3547.94	288
3548.7	264
3549.47	268
3550.23	272
3551	260
3551.76	272
3552.53	258
3553.29	268
3554.06	264
3554.82	278
3555.59	268
3556.35	280
3557.11	270
3557.88	278
3558.64	270
3559.41	270
3560.17	264
3560.93	266
3561.7	280
3562.46	260
3563.22	244
3563.99	260
3564.75	270
3565.51	278
3566.28	268
3567.04	270
3567.8	268
3568.56	286
3569.33	274
3570.09	262
3570.85	260
3571.61	252
3572.38	244
3573.14	270
3573.9	274
3574.66	260
3575.42	264
3576.19	270
3576.95	262
3577.71	284
3578.47	264
3579.23	266
3579.99	262
3580.75	250
3581.51	268
3582.28	262
3583.04	268
3583.8	258
3584.56	266
3585.32	256
3586.08	244
3586.84	262
3587.6	256
3588.36	270
3589.12	258
3589.88	236
3590.64	252
3591.4	254
3592.16	274
3592.92	256
3593.67	254
3594.43	242
3595.19	272
3595.95	278
3596.71	254
3597.47	258
3598.23	246
3598.99	250
3599.75	256
3600.5	258
3601.26	280
3602.02	260
3602.78	258
3603.54	264
3604.29	262
3605.05	244
3605.81	274
3606.57	256
3607.32	250
3608.08	266
3608.84	266
3609.59	240
3610.35	256
3611.11	242
3611.87	244
3612.62	256
3613.38	254
3614.13	256
3614.89	258
3615.65	258
3616.4	258
3617.16	278
3617.92	246
3618.67	276
3619.43	254
3620.18	256
3620.94	262
3621.69	244
3622.45	244
3623.2	252
3623.96	244
3624.71	236
3625.47	266
3626.22	256
3626.98	226
3627.73	236
3628.49	264
3629.24	248
3630	254
3630.75	248
3631.5	270
3632.26	252
3633.01	262
3633.77	242
3634.52	220
3635.27	234
3636.03	240
3636.78	250
3637.53	240
3638.29	238
3639.04	256
3639.79	254
3640.55	234
3641.3	260
3642.05	260
3642.8	244
3643.56	244
3644.31	242
3645.06	256
3645.81	254
3646.56	238
3647.32	268
3648.07	240
3648.82	254
3649.57	244
3650.32	250
3651.07	250
3651.83	254
3652.58	240
3653.33	238
3654.08	254
3654.83	236
3655.58	254
3656.33	246
3657.08	242
3657.83	252
3658.58	234
3659.33	246
3660.08	238
3660.83	236
3661.58	276
3662.33	256
3663.08	246
3663.83	226
3664.58	240
3665.33	242
3666.08	250
3666.83	248
3667.58	254
3668.33	238
3669.08	246
3669.83	230
3670.57	260
3671.32	238
3672.07	246
3672.82	252
3673.57	246
3674.32	244
3675.07	240
3675.81	232
3676.56	256
3677.31	608
3678.06	1268
3678.8	1050
3679.55	898
3680.3	1082
3681.05	870
3681.79	948
3682.54	1132
3683.29	934
3684.04	480
3684.78	290
3685.53	262
3686.28	252
3687.02	234
3687.77	248
3688.51	250
3689.26	254
3690.01	254
3690.75	224
3691.5	240
3692.24	256
3692.99	248
3693.74	244
3694.48	230
3695.23	250
3695.97	236
3696.72	246
3697.46	226
3698.21	240
3698.95	238
3699.7	248
3700.44	236
3701.19	228
3701.93	224
3702.68	228
3703.42	234
3704.16	228
3704.91	252
3705.65	236
3706.4	234
3707.14	226
3707.88	240
3708.63	234
3709.37	236
3710.11	242
3710.86	252
3711.6	214
3712.34	234
3713.09	238
3713.83	250
3714.57	240
3715.31	240
3716.06	230
3716.8	224
3717.54	220
3718.28	218
3719.03	224
3719.77	250
3720.51	238
3721.25	228
3721.99	254
3722.74	244
3723.48	236
3724.22	226
3724.96	222
3725.7	222
3726.44	236
3727.18	210
3727.92	246
3728.67	236
3729.41	234
3730.15	228
3730.89	234
3731.63	230
3732.37	250
3733.11	232
3733.85	236
3734.59	210
3735.33	218
3736.07	212
3736.81	206
3737.55	222
3738.29	228
3739.03	228
3739.77	238
3740.51	230
3741.24	232
3741.98	216
3742.72	216
3743.46	238
3744.2	226
3744.94	234
3745.68	228
3746.42	228
3747.15	220
3747.89	248
3748.63	224
3749.37	216
3750.11	216
3750.84	214
3751.58	224
3752.32	220
3753.06	226
3753.79	228
3754.53	210
3755.27	230
3756.01	230
3756.74	204
3757.48	246
3758.22	222
3758.95	240
3759.69	230
3760.43	214
3761.16	242
3761.9	224
3762.64	228
3763.37	212.136
3764.11	227.971
3764.84	243.466
3765.58	222
3766.32	222.199
3767.05	233.197
3767.79	217.04
3768.52	235.713
3769.26	215.442
3769.99	232.135
3770.73	225.631
3771.46	217.678
3772.2	218.904
3772.93	227.081
3773.67	221.128
3774.4	213.995
3775.14	213.498
3775.87	208.144
3776.61	216.041
3777.34	221.05
3778.07	218.778
3778.81	218.643
3779.54	230.863
3780.28	222.81
3781.01	232.826
3781.74	230.905
3782.48	223.323
3783.21	225.045
3783.94	212.283
3784.68	220.297
3785.41	215.947
3786.14	217.459
3786.88	226.348
3787.61	208.963
3788.34	222.193
3789.07	229.678
3789.81	215.533
3790.54	207.287
3791.27	211.812
3792	228.174
3792.74	228.264
3793.47	209.863
3794.2	218.647
3794.93	227.34
3795.66	226.016
3796.4	223.009
3797.13	206.515
3797.86	227.202
3798.59	216.176
3799.32	228.698
3800.05	221.767
3800.78	222.529
3801.52	228.364
3802.25	222.065
3802.98	230.61
3803.71	224.298
3804.44	209.736
3805.17	228.482
3805.9	221.867
3806.63	212.152
3807.36	228.825
3808.09	221.346
3808.82	212.752
3809.55	210.767
3810.28	228.435
3811.01	220.373
3811.74	219.394
3812.47	219.584
3813.2	222.911
3813.93	222.602
3814.66	222.653
3815.38	220.093
3816.11	220.369
3816.84	221.263
3817.57	218.96
3818.3	213.466
3819.03	212.982
3819.76	221.009
3820.49	214.2
3821.21	210.668
3821.94	213.963
3822.67	224.601
3823.4	219.043
3824.13	222.204
3824.85	220.787
3825.58	214.301
3826.31	216.32
3827.04	215.421
3827.77	214.493
3828.49	213.395
3829.22	220.681
3829.95	231.578
3830.67	215.349
3831.4	216.79
3832.13	212.056
3832.85	216.351
3833.58	214.679
3834.31	220.482
3835.03	213.215
3835.76	222.22
3836.49	211.038
3837.21	215.962
3837.94	196.181
3838.52	204
3839.25	228
3839.98	220
3840.71	226
3841.44	210
3842.17	208
3842.9	216
3843.63	214
3844.36	210
3845.09	212
3845.82	196
3846.55	214
3847.28	212
3848	224
3848.73	214
3849.46	218
3850.19	202
3850.92	202
3851.65	200
3852.38	220
3853.1	222
3853.83	200
3854.56	216
3855.29	210
3856.02	198
3856.74	202
3857.47	210
3858.2	228
3858.93	214
3859.65	212
3860.38	218
3861.11	220
3861.84	194
3862.56	202
3863.29	202
3864.02	210
3864.74	216
3865.47	218
3866.2	234
3866.92	196
3867.65	224
3868.38	196
3869.1	204
3869.83	202
3870.55	212
3871.28	220
3872.01	212
3872.73	222
3873.46	186
3874.18	218
3874.91	202
3875.63	200
3876.36	198
3877.08	216
3877.81	216
3878.53	204
3879.26	210
3879.98	198
3880.71	200
3881.43	204
3882.16	202
3882.88	212
3883.6	212
3884.33	202
3885.05	224
3885.78	212
3886.5	210
3887.22	216
3887.95	200
3888.67	204
3889.4	196
3890.12	192
3890.84	208
3891.57	214
3892.29	194
3893.01	214
3893.73	206
3894.46	204
3895.18	220
3895.9	200
3896.63	212
3897.35	208
3898.07	192
3898.79	210
3899.51	228
3900.24	212
3900.96	196
3901.68	202
3902.4	212
3903.12	228
3903.84	206
3904.57	226
3905.29	206
3906.01	226
3906.73	214
3907.45	216
3908.17	208
3908.89	212
3909.61	192
3910.33	218
3911.06	210
3911.78	214
3912.5	210
3913.22	210
3913.94	202
3914.66	202
3915.38	206
3916.1	202
3916.82	222
3917.54	208
3918.26	194
3918.98	214
3919.69	218
3920.41	186
3921.13	216
3921.85	206
3922.57	216
3923.29	202
3924.01	208
3924.73	182
3925.45	192
3926.17	204
3926.88	200
3927.6	178
3928.32	188
3929.04	216
3929.76	208
3930.47	220
3931.19	196
3931.91	196
3932.63	200
3933.35	202
3934.06	198
3934.78	208
3935.5	200
3936.22	208
3936.93	184
3937.65	208
3938.37	194
3939.08	204
3939.8	188
3940.52	204
3941.23	192
3941.95	222
3942.67	198
3943.38	184
3944.1	204
3944.82	218
3945.53	196
3946.25	198
3946.96	208
3947.68	198
3948.4	212
3949.11	204
3949.83	200
3950.54	192
3951.26	194
3951.97	196
3952.69	194
3953.4	220
3954.12	220
3954.83	180
3955.55	206
3956.26	200
3956.98	200
3957.69	196
3958.4	204
3959.12	184
3959.83	202
3960.55	188
3961.26	188
3961.97	214
3962.69	198
3963.4	188
3964.12	196
3964.83	186
3965.54	204
3966.26	176
3966.97	202
3967.68	206
3968.4	188
3969.11	214
3969.82	192
3970.53	176
3971.25	192
3971.96	196
3972.67	208
3973.38	192
3974.1	192
3974.81	202
3975.52	204
3976.23	184
3976.94	184
3977.66	200
3978.37	186
3979.08	206
3979.79	190
3980.5	190
3981.21	204
3981.92	194
3982.64	194
3983.35	192
3984.06	206
3984.77	196
3985.48	204
3986.19	184
3986.9	202
3987.61	194
3988.32	208
3989.03	182
3989.74	190
3990.45	190
3991.16	188
3991.87	198
3992.58	188
3993.29	184
3994	196
3994.71	176
3995.42	174
3996.13	178
3996.84	196
3997.55	194
3998.26	204
3998.97	206
3999.67	200
