#Acq. time (s)=	10
#Accumulations=	1
#Range (cm-¹)=	200...4000
#Windows=	5
#Autofocus=	Off
#AutoExposure=	Off
#Spike filter=	Off
#Delay time (s)=	0
#Binning=	1
#Readout mode=	Signal
#DeNoise=	Off
#ICS correction=	Off
#Dark correction=	Off
#Inst. Process=	Off
#Instrument=	LabRAM HR Evol
#Detector=	Syncerity OE
#Objective=	x100_VIS
#Grating=	600 (500nm)
#ND Filter=	25%
#Laser=	633nm_Edge
#Hole=	100.021
#Range=	Visible
#Project=	Omar
#Sample=	03-07-23
#Site=	1
#Title=	OR
#Remark=	
#Date=	03.07.2023 13:43
#Acquired=	03.07.2023 13:43:06
200.404	680
201.671	708
202.938	714
204.205	726
205.472	696
206.737	704
208.003	712
209.269	682
210.535	744
211.799	688
213.064	726
214.33	714
215.595	706
216.858	726
218.122	696
219.387	694
220.649	722
221.913	678
223.177	734
224.439	718
225.703	728
226.966	684
228.227	698
229.49	726
230.752	720
232.013	726
233.275	706
234.536	712
235.798	720
237.059	734
238.319	708
239.58	734
240.839	714
242.1	738
243.361	734
244.619	726
245.879	746
247.138	750
248.398	722
249.655	704
250.915	734
252.172	732
253.431	664
254.688	708
255.947	734
257.204	718
258.462	714
259.718	718
260.976	692
262.232	738
263.487	722
264.744	718
266	738
267.256	746
268.511	744
269.767	718
271.022	710
272.276	744
273.532	734
274.786	728
276.04	744
277.295	740
278.548	722
279.801	728
281.055	744
282.308	744
283.561	754
284.814	742
286.066	740
287.318	742
288.572	704
289.823	742
291.074	754
292.327	748
293.578	732
294.828	734
296.079	758
297.331	766
298.581	782
299.831	740
301.08	768
302.33	776
303.581	706
304.83	752
306.079	734
307.327	768
308.576	780
309.825	766
311.073	764
312.321	760
313.569	770
314.816	756
316.064	790
317.311	726
318.558	784
319.806	768
321.052	732
322.299	794
323.545	736
324.79	760
326.036	782
327.282	756
328.527	762
329.772	786
331.017	774
332.261	764
333.506	760
334.75	796
335.994	766
337.238	784
338.482	742
339.725	794
340.968	784
342.211	774
343.454	784
344.697	776
345.939	776
347.182	762
348.424	770
349.666	766
350.907	806
352.149	798
353.39	816
354.631	774
355.87	762
357.111	780
358.352	852
359.592	792
360.832	784
362.072	792
363.311	778
364.549	798
365.789	848
367.028	766
368.267	806
369.505	764
370.742	792
371.981	792
373.219	770
374.457	756
375.694	798
376.93	806
378.168	794
379.405	810
380.642	768
381.877	812
383.113	784
384.35	798
385.584	800
386.82	810
388.056	774
389.291	778
390.525	772
391.76	754
392.995	832
394.228	806
395.463	816
396.696	808
397.93	818
399.164	786
400.396	784
401.63	778
402.863	808
404.095	810
405.328	836
406.559	798
407.791	848
409.022	846
410.254	806
411.486	828
412.717	850
413.948	814
415.178	830
416.409	856
417.639	842
418.87	842
420.099	840
421.329	842
422.558	834
423.788	848
425.016	828
426.244	858
427.474	842
428.701	834
429.93	892
431.158	846
432.386	824
433.613	874
434.84	894
436.068	872
437.294	874
438.522	882
439.748	840
440.974	872
442.201	856
443.426	872
444.651	860
445.878	852
447.103	846
448.327	880
449.553	848
450.777	882
452.001	866
453.225	888
454.45	864
455.674	844
456.897	830
458.121	838
459.344	868
460.567	856
461.789	864
463.012	906
464.235	886
465.457	878
466.679	884
467.9	864
469.122	864
470.344	874
471.565	864
472.786	848
474.006	836
475.227	860
476.447	876
477.668	850
478.888	876
480.107	882
481.327	894
482.546	866
483.765	886
484.984	902
486.202	902
487.421	886
488.639	870
489.857	862
491.075	910
492.292	872
493.51	914
494.727	886
495.944	920
497.161	886
498.377	892
499.594	886
500.81	900
502.026	880
503.242	852
504.458	922
505.673	932
506.888	892
508.104	894
509.318	892
510.533	918
511.748	922
512.962	906
514.176	890
515.39	868
516.602	876
517.816	898
519.029	910
520.242	896
521.455	900
522.668	878
523.881	880
525.092	908
526.304	904
527.516	910
528.728	914
529.939	874
531.149	902
532.361	890
533.572	882
534.783	868
535.992	868
537.202	922
538.413	914
539.623	874
540.831	878
542.041	920
543.25	908
544.458	912
545.667	850
546.876	890
548.084	924
549.292	898
550.501	886
551.707	864
552.915	892
554.123	864
555.329	898
556.537	906
557.743	890
558.95	892
560.156	874
561.362	892
562.568	904
563.773	942
564.979	910
566.184	924
567.389	914
568.595	922
569.799	882
571.004	926
572.207	922
573.412	924
574.615	890
575.82	902
577.022	958
578.226	898
579.429	918
580.631	956
581.834	930
583.036	956
584.239	900
585.44	890
586.643	918
587.844	944
589.045	922
590.247	930
591.448	928
592.649	900
593.849	944
595.049	924
596.25	906
597.45	920
598.649	896
599.85	948
601.049	926
602.248	958
603.448	914
604.646	924
605.844	918
607.042	934
608.241	958
609.439	968
610.637	920
611.834	960
613.032	952
614.229	948
615.426	948
616.622	964
617.819	980
619.016	920
620.212	936
621.408	974
622.603	966
623.799	954
624.994	936
626.19	956
627.385	970
628.58	978
629.774	972
630.969	964
632.163	988
633.356	966
634.55	962
635.744	940
636.938	972
638.131	970
639.324	952
640.517	962
641.71	1006
642.902	980
644.094	972
645.286	990
646.478	1002
647.67	998
648.861	980
650.052	992
651.243	974
652.434	996
653.625	952
654.815	986
656.006	974
657.196	1012
658.384	1006
659.574	1026
660.764	1014
661.953	980
663.142	978
664.331	980
665.52	1036
666.709	1034
667.897	972
669.084	966
670.272	952
671.46	1008
672.648	992
673.835	1002
675.021	1012
676.208	958
677.395	986
678.582	1006
679.768	976
680.953	978
682.14	994
683.326	1024
684.512	1038
685.696	996
686.881	998
688.067	982
689.252	994
690.435	1008
691.62	1004
692.804	964
693.987	1014
695.171	1024
696.355	1050
697.538	976
698.721	1000
699.905	1024
701.087	1024
702.27	1030
703.451	996
704.634	1034
705.816	1000
706.997	1012
708.179	1024
709.36	1088
710.542	1026
711.722	1038
712.903	1034
714.083	1006
715.264	1010
716.445	1024
717.624	1012
718.805	1052
719.984	1040
721.162	1040
722.342	1002
723.52	1030
724.7	1038
725.878	1042
727.057	994
728.235	1032
729.414	1048
730.591	1066
731.768	1024
732.946	1044
734.123	1018
735.301	1044
736.477	1012
737.653	1038
738.83	1026
740.006	1064
741.182	1044
742.358	1020
743.534	1016
744.709	1044
745.885	1032
747.06	1030
748.234	1052
749.41	1076
750.584	1032
751.758	1038
752.931	1022
754.106	1024
755.28	1076
756.453	1064
757.626	1052
758.8	1014
759.973	1016
761.145	1024
762.318	1078
763.49	1036
764.662	1040
765.835	1022
767.006	1052
768.178	1016
769.349	1050
770.52	1102
771.691	1060
772.861	1070
774.033	1060
775.203	1064
776.373	1060
777.543	1038
778.713	1066
779.883	1026
781.052	1070
782.221	1064
783.39	1058
784.559	1046
785.727	1078
786.896	1052
788.064	1012
789.232	1072
790.4	1032
791.568	1028
792.735	1058
793.903	1058
795.07	1038
796.237	1004
797.404	1050
798.57	1026
799.737	1074
800.903	1056
802.068	1068
803.234	1044
804.399	1040
805.565	1086
806.73	1060
807.896	1078
809.061	1084
810.224	1080
811.389	1056
812.553	1078
813.717	1070
814.881	1064
816.045	1110
817.208	1104
818.371	1068
819.535	1046
820.698	1106
821.859	1074
823.022	1096
824.185	1072
825.347	1106
826.508	1086
827.67	1074
828.832	1060
829.993	1102
831.154	1042
832.316	1108
833.476	1050
834.637	1090
835.797	1084
836.957	1090
838.117	1092
839.278	1130
840.436	1076
841.596	1124
842.755	1122
843.914	1128
845.074	1082
846.232	1098
847.391	1150
848.548	1106
849.707	1130
850.864	1108
852.022	1098
853.179	1106
854.337	1124
855.493	1114
856.651	1078
857.807	1102
858.964	1106
860.12	1152
861.277	1124
862.432	1120
863.589	1118
864.744	1134
865.9	1132
867.055	1128
868.209	1120
869.365	1106
870.519	1104
871.674	1148
872.828	1104
873.982	1178
875.136	1140
876.29	1146
877.443	1104
878.597	1084
879.75	1136
880.902	1124
882.056	1108
883.208	1110
884.36	1086
885.512	1152
886.665	1082
887.816	1134
888.967	1098
890.118	1120
891.271	1104
892.421	1102
893.572	1090
894.722	1112
895.874	1142
897.024	1122
898.174	1110
899.323	1102
900.473	1114
901.622	1098
902.771	1130
903.922	1120
905.07	1098
906.219	1138
907.367	1110
908.516	1106
909.664	1108
910.811	1150
911.959	1152
913.107	1082
914.254	1124
915.401	1134
916.55	1108
917.696	1142
918.843	1144
919.99	1108
921.136	1114
922.282	1110
923.428	1156
924.574	1136
925.719	1154
926.863	1080
928.009	1152
929.154	1114
930.299	1140
931.443	1114
932.588	1104
933.732	1144
934.876	1178
936.02	1116
937.164	1122
938.308	1132
939.45	1142
940.593	1164
941.736	1156
942.879	1122
944.022	1146
945.165	1164
946.306	1122
947.448	1148
948.59	1156
949.732	1156
950.874	1164
952.014	1164
953.155	1164
954.296	1186
955.437	1152
956.577	1148
957.718	1124
958.858	1134
959.997	1136
961.137	1124
962.277	1198
963.416	1148
964.555	1154
965.695	1174
966.833	1124
967.972	1176
969.111	1162
970.248	1172
971.387	1154
972.524	1168
973.662	1180
974.8	1160
975.936	1134
977.074	1212
978.21	1156
979.348	1120
980.483	1214
981.62	1186
982.757	1234
983.893	1156
985.029	1174
986.164	1180
987.299	1194
988.435	1178
989.569	1182
990.705	1190
991.839	1154
992.974	1176
994.108	1170
995.243	1150
996.376	1186
997.509	1190
998.644	1148
999.777	1132
1000.91	1176
1002.04	1206
1003.18	1180
1004.31	1172
1005.44	1176
1006.57	1168
1007.71	1178
1008.84	1174
1009.97	1154
1011.1	1186
1012.23	1170
1013.36	1168
1014.49	1172
1015.63	1208
1016.76	1160
1017.89	1190
1019.02	1176
1020.15	1216
1021.28	1156
1022.41	1150
1023.54	1196
1024.66	1226
1025.79	1208
1026.92	1188
1028.05	1236
1029.18	1192
1030.31	1196
1031.44	1212
1032.56	1228
1033.69	1218
1034.82	1164
1035.95	1210
1037.08	1200
1038.2	1176
1039.33	1244
1040.46	1218
1041.58	1214
1042.71	1224
1043.83	1170
1044.96	1228
1046.09	1236
1047.21	1234
1048.34	1170
1049.46	1202
1050.59	1254
1051.71	1196
1052.84	1186
1053.96	1224
1055.09	1240
1056.21	1212
1057.33	1224
1058.46	1214
1059.58	1204
1060.71	1266
1061.83	1206
1062.95	1174
1064.07	1252
1065.2	1246
1066.32	1230
1067.44	1240
1068.56	1214
1069.69	1226
1070.81	1202
1071.93	1202
1073.05	1238
1074.17	1194
1075.29	1250
1076.41	1196
1077.54	1234
1078.66	1228
1079.78	1256
1080.9	1194
1082.02	1206
1083.14	1212
1084.25	1182
1085.37	1216
1086.49	1166
1087.61	1260
1088.73	1218
1089.85	1224
1090.97	1226
1092.09	1210
1093.21	1264
1094.32	1232
1095.44	1222
1096.56	1218
1097.68	1242
1098.79	1194
1099.91	1192
1101.03	1234
1102.14	1220
1103.26	1228
1104.38	1184
1105.49	1218
1106.61	1194
1107.72	1190
1108.84	1282
1109.96	1196
1111.07	1224
1112.19	1242
1113.3	1210
1114.42	1172
1115.53	1234
1116.64	1254
1117.76	1238
1118.87	1210
1119.99	1178
1121.1	1204
1122.21	1230
1123.33	1246
1124.44	1208
1125.55	1158
1126.66	1210
1127.78	1226
1128.89	1238
1130	1212
1131.11	1210
1132.23	1198
1133.34	1216
1134.45	1208
1135.56	1210
1136.67	1256
1137.78	1202
1138.89	1212
1140	1248
1141.11	1202
1142.22	1184
1143.33	1214
1144.44	1210
1145.55	1218
1146.66	1192
1147.77	1208
1148.88	1234
1149.99	1252
1151.1	1260
1152.21	1248
1153.32	1246
1154.42	1198
1155.53	1230
1156.64	1256
1157.75	1242
1158.85	1240
1159.96	1280
1161.07	1242
1162.17	1266
1163.28	1260
1164.39	1192
1165.49	1246
1166.6	1264
1167.71	1258
1168.81	1272
1169.92	1258
1171.02	1274
1172.13	1238
1173.23	1244
1174.34	1224
1175.44	1282
1176.55	1212
1177.65	1226
1178.76	1294
1179.86	1240
1180.97	1238
1182.07	1238
1183.17	1254
1184.28	1260
1185.38	1242
1186.48	1242
1187.58	1234
1188.69	1214
1189.79	1246
1190.89	1248
1191.99	1234
1193.1	1242
1194.2	1238
1195.3	1224
1196.4	1258
1197.5	1240
1198.6	1240
1199.7	1228
1200.8	1226
1201.9	1248
1203	1244
1204.1	1256
1205.2	1238
1206.3	1264
1207.4	1218
1208.5	1212
1209.6	1220
1210.7	1260
1211.8	1206
1212.9	1218
1214	1216
1215.1	1234
1216.19	1222
1217.29	1218
1218.39	1284
1219.49	1222
1220.58	1208
1221.68	1218
1222.78	1272
1223.88	1246
1224.97	1144
1226.07	1208
1227.17	1192
1228.26	1232
1229.36	1228
1230.45	1264
1231.55	1252
1232.65	1166
1233.74	1222
1234.84	1230
1235.93	1198
1237.02	1234
1238.12	1214
1239.21	1206
1240.31	1194
1241.4	1214
1242.5	1208
1243.59	1202
1244.68	1194
1245.78	1202
1246.87	1242
1247.96	1180
1249.06	1222
1250.15	1196
1251.24	1236
1252.33	1234
1253.43	1280
1254.52	1234
1255.61	1166
1256.7	1190
1257.79	1234
1258.88	1208
1259.98	1194
1261.07	1208
1262.16	1206
1263.25	1276
1264.34	1256
1265.43	1224
1266.52	1234
1267.61	1240
1268.7	1286
1269.79	1254
1270.88	1272
1271.96	1208
1273.05	1224
1274.14	1232
1275.23	1242
1276.32	1264
1277.41	1244
1278.5	1242
1279.58	1230
1280.67	1241.9
1281.76	1214.08
1282.85	1238.39
1283.93	1263.7
1285.02	1264.25
1286.11	1240.26
1287.19	1243.63
1288.28	1245.9
1289.37	1244.5
1290.45	1244.64
1291.54	1223.7
1292.63	1253.75
1293.71	1231.05
1294.8	1236.92
1295.88	1217.5
1296.97	1269.97
1298.05	1286.66
1299.14	1256.02
1300.22	1256.76
1301.31	1216.38
1302.39	1227.52
1303.47	1242.69
1304.56	1244.21
1305.64	1262.31
1306.72	1194.63
1307.81	1241.7
1308.89	1251.92
1309.97	1221.13
1311.06	1251.12
1312.14	1265.42
1313.22	1245.35
1314.3	1269.65
1315.39	1256.48
1316.47	1232.74
1317.55	1266.93
1318.63	1250.39
1319.71	1252.95
1320.79	1229.03
1321.88	1244.44
1322.96	1248.66
1324.04	1241.9
1325.12	1232.24
1326.2	1260.5
1327.28	1231.13
1328.36	1248.45
1329.44	1241.08
1330.52	1244.02
1331.6	1231.4
1332.68	1236.73
1333.76	1241.51
1334.84	1232.28
1335.91	1227.62
1336.99	1241.26
1338.07	1224.79
1339.15	1240.78
1340.23	1257.02
1341.31	1228.98
1342.38	1252.52
1343.46	1247.63
1344.54	1246.9
1345.62	1228.47
1346.69	1228.54
1347.77	1233.6
1348.85	1233.54
1349.92	1243.51
1351	1246.2
1352.08	1225.39
1353.15	1231.23
1354.23	1251.19
1355.3	1226.9
1356.38	1219.59
1357.46	1232.6
1358.53	1223.59
1359.6	1230.03
1360.68	1250.49
1361.75	1238.47
1362.83	1228.47
1363.9	1217.47
1364.98	1238.28
1366.05	1214.63
1367.13	1238.46
1368.2	1231.77
1369.27	1241.83
1370.35	1233.68
1371.42	1236.31
1372.49	1229.24
1373.56	1256.35
1374.64	1232.84
1375.71	1236.02
1376.78	1229.18
1377.85	1231.44
1378.93	1240.53
1380	1244.19
1381.07	1230.31
1382.14	1214.68
1383.21	1234.71
1384.28	1243.79
1385.35	1239.03
1386.43	1245.08
1387.5	1242.73
1388.57	1214.72
1389.64	1215.88
1390.13	1234
1391.2	1210
1392.28	1246
1393.35	1258
1394.43	1236
1395.5	1226
1396.57	1254
1397.65	1248
1398.72	1184
1399.8	1208
1400.87	1246
1401.94	1202
1403.02	1258
1404.09	1224
1405.17	1240
1406.24	1224
1407.31	1252
1408.38	1264
1409.46	1258
1410.53	1244
1411.6	1276
1412.67	1186
1413.74	1202
1414.82	1222
1415.89	1208
1416.96	1206
1418.03	1228
1419.1	1210
1420.17	1204
1421.24	1214
1422.31	1258
1423.38	1214
1424.45	1224
1425.52	1216
1426.59	1190
1427.66	1212
1428.73	1184
1429.8	1222
1430.87	1202
1431.94	1170
1433.01	1230
1434.08	1218
1435.14	1270
1436.21	1208
1437.28	1180
1438.35	1188
1439.42	1198
1440.48	1194
1441.55	1200
1442.62	1222
1443.68	1208
1444.75	1210
1445.82	1256
1446.89	1182
1447.95	1224
1449.02	1186
1450.08	1194
1451.15	1186
1452.22	1174
1453.28	1210
1454.35	1232
1455.41	1164
1456.48	1258
1457.54	1194
1458.61	1202
1459.67	1250
1460.73	1192
1461.8	1168
1462.86	1170
1463.93	1166
1464.99	1156
1466.05	1172
1467.12	1182
1468.18	1162
1469.24	1186
1470.31	1164
1471.37	1192
1472.43	1196
1473.49	1202
1474.56	1182
1475.62	1240
1476.68	1206
1477.74	1202
1478.8	1200
1479.86	1204
1480.93	1216
1481.99	1152
1483.05	1222
1484.11	1174
1485.17	1234
1486.23	1214
1487.29	1206
1488.35	1204
1489.41	1222
1490.47	1178
1491.53	1154
1492.59	1198
1493.65	1196
1494.71	1200
1495.76	1194
1496.82	1222
1497.88	1206
1498.94	1198
1500	1198
1501.06	1192
1502.11	1166
1503.17	1152
1504.23	1226
1505.29	1188
1506.34	1166
1507.4	1172
1508.46	1204
1509.51	1216
1510.57	1190
1511.63	1202
1512.68	1232
1513.74	1210
1514.8	1208
1515.85	1206
1516.91	1182
1517.96	1182
1519.02	1172
1520.07	1178
1521.13	1134
1522.18	1194
1523.24	1170
1524.29	1204
1525.34	1202
1526.4	1182
1527.45	1174
1528.51	1172
1529.56	1184
1530.61	1206
1531.67	1174
1532.72	1202
1533.77	1200
1534.82	1186
1535.88	1158
1536.93	1154
1537.98	1180
1539.03	1172
1540.08	1176
1541.14	1178
1542.19	1186
1543.24	1188
1544.29	1174
1545.34	1152
1546.39	1166
1547.44	1164
1548.49	1152
1549.54	1184
1550.59	1154
1551.64	1152
1552.69	1206
1553.74	1158
1554.79	1186
1555.84	1152
1556.89	1162
1557.94	1156
1558.99	1174
1560.04	1174
1561.09	1142
1562.14	1194
1563.18	1154
1564.23	1188
1565.28	1138
1566.33	1132
1567.37	1132
1568.42	1152
1569.47	1166
1570.52	1152
1571.56	1196
1572.61	1168
1573.66	1170
1574.7	1166
1575.75	1176
1576.79	1172
1577.84	1146
1578.89	1178
1579.93	1196
1580.98	1174
1582.02	1122
1583.07	1186
1584.11	1146
1585.16	1174
1586.2	1156
1587.25	1164
1588.29	1138
1589.34	1146
1590.38	1196
1591.42	1168
1592.47	1146
1593.51	1150
1594.55	1152
1595.6	1142
1596.64	1152
1597.68	1120
1598.72	1166
1599.77	1120
1600.81	1142
1601.85	1126
1602.89	1108
1603.94	1156
1604.98	1120
1606.02	1146
1607.06	1190
1608.1	1164
1609.14	1194
1610.18	1132
1611.22	1100
1612.26	1156
1613.3	1154
1614.34	1164
1615.38	1172
1616.42	1126
1617.46	1140
1618.5	1132
1619.54	1148
1620.58	1158
1621.62	1108
1622.66	1144
1623.7	1136
1624.74	1140
1625.78	1110
1626.81	1202
1627.85	1064
1628.89	1142
1629.93	1136
1630.97	1142
1632	1158
1633.04	1102
1634.08	1136
1635.11	1132
1636.15	1094
1637.19	1114
1638.22	1118
1639.26	1124
1640.3	1138
1641.33	1128
1642.37	1116
1643.4	1116
1644.44	1098
1645.47	1088
1646.51	1136
1647.55	1108
1648.58	1086
1649.61	1146
1650.65	1098
1651.68	1078
1652.72	1096
1653.75	1106
1654.79	1070
1655.82	1090
1656.85	1146
1657.89	1122
1658.92	1102
1659.95	1082
1660.98	1078
1662.02	1056
1663.05	1048
1664.08	1034
1665.12	1078
1666.15	1092
1667.18	1088
1668.21	1088
1669.24	1082
1670.27	1074
1671.3	1074
1672.34	1094
1673.37	1034
1674.4	1062
1675.43	1038
1676.46	1098
1677.49	1030
1678.52	1068
1679.55	1058
1680.58	1044
1681.61	1058
1682.64	1068
1683.67	1060
1684.7	1084
1685.73	1040
1686.75	1050
1687.78	1054
1688.81	1020
1689.84	1040
1690.87	1044
1691.9	1038
1692.93	1060
1693.95	1026
1694.98	1032
1696.01	1040
1697.03	1058
1698.06	1034
1699.09	1064
1700.12	1010
1701.14	1054
1702.17	1018
1703.2	1010
1704.22	1030
1705.25	1040
1706.27	1040
1707.3	1024
1708.32	1000
1709.35	1006
1710.37	1034
1711.4	1026
1712.42	990
1713.45	1022
1714.47	1000
1715.5	1016
1716.52	1016
1717.55	1032
1718.57	1062
1719.59	1026
1720.62	1032
1721.64	1010
1722.67	1026
1723.69	1000
1724.71	984
1725.73	1028
1726.76	1046
1727.78	998
1728.8	1016
1729.82	1018
1730.84	990
1731.87	1032
1732.89	1032
1733.91	990
1734.93	1028
1735.95	998
1736.97	1028
1737.99	978
1739.01	1024
1740.04	1020
1741.06	974
1742.08	1028
1743.1	996
1744.12	1002
1745.14	1052
1746.16	1012
1747.18	1014
1748.19	1068
1749.21	1004
1750.23	996
1751.25	1004
1752.27	978
1753.29	1018
1754.31	954
1755.33	968
1756.34	998
1757.36	1002
1758.38	972
1759.4	996
1760.41	1014
1761.43	990
1762.45	992
1763.47	1004
1764.48	1004
1765.5	988
1766.51	1026
1767.53	992
1768.55	1000
1769.56	1008
1770.58	998
1771.6	998
1772.61	1004
1773.63	982
1774.64	962
1775.66	996
1776.67	986
1777.69	1016
1778.7	996
1779.71	974
1780.73	1028
1781.74	1002
1782.76	988
1783.77	986
1784.78	1018
1785.8	1038
1786.81	956
1787.82	1024
1788.84	992
1789.85	972
1790.86	950
1791.88	990
1792.89	986
1793.9	1000
1794.91	1012
1795.92	972
1796.94	986
1797.95	960
1798.96	1020
1799.97	986
1800.98	972
1801.99	960
1803	982
1804.01	970
1805.02	968
1806.03	1000
1807.04	972
1808.05	982
1809.06	992
1810.07	1020
1811.08	918
1812.09	1000
1813.1	1004
1814.11	940
1815.12	960
1816.13	938
1817.14	992
1818.14	962
1819.15	986
1820.16	998
1821.17	1024
1822.18	938
1823.18	964
1824.19	928
1825.2	958
1826.21	966
1827.21	968
1828.22	938
1829.23	930
1830.23	954
1831.24	938
1832.25	1000
1833.25	942
1834.26	926
1835.27	950
1836.27	940
1837.28	942
1838.28	940
1839.29	940
1840.29	952
1841.3	948
1842.3	918
1843.31	952
1844.31	936
1845.31	930
1846.32	904
1847.32	954
1848.33	944
1849.33	960
1850.33	932
1851.34	942
1852.34	934
1853.34	934
1854.35	920
1855.35	928
1856.35	920
1857.35	982
1858.36	926
1859.36	912
1860.36	924
1861.36	930
1862.36	918
1863.36	952
1864.36	942
1865.37	924
1866.37	908
1867.37	936
1868.37	968
1869.37	924
1870.37	894
1871.37	918
1872.37	908
1873.37	928
1874.37	910
1875.37	912
1876.37	910
1877.37	884
1878.37	914
1879.37	888
1880.36	928
1881.36	892
1882.36	942
1883.36	912
1884.36	906
1885.36	916
1886.35	924
1887.35	922
1888.35	898
1889.35	870
1890.34	926
1891.34	898
1892.34	894
1893.34	906
1894.33	930
1895.33	948
1896.33	934
1897.32	888
1898.32	890
1899.31	874
1900.31	916
1901.3	918
1902.3	916
1903.3	910
1904.29	902
1905.29	910
1906.28	948
1907.27	932
1908.27	924
1909.26	906
1910.26	932
1911.25	914
1912.25	896
1913.24	898
1914.23	902
1915.23	928
1916.22	898
1917.21	906
1918.21	918
1919.2	918
1920.19	922
1921.18	916
1922.18	908
1923.17	904
1924.16	932
1925.15	894
1926.14	910
1927.14	908
1928.13	904
1929.12	924
1930.11	912
1931.1	904
1932.09	918
1933.08	898
1934.07	900
1935.06	874
1936.05	904
1937.04	904
1938.03	866
1939.02	874
1940.01	856
1941	914
1941.99	882
1942.98	880
1943.97	886
1944.96	890
1945.95	908
1946.94	886
1947.92	892
1948.91	916
1949.9	868
1950.89	926
1951.88	892
1952.86	864
1953.85	880
1954.84	866
1955.83	898
1956.81	894
1957.8	898
1958.79	886
1959.77	900
1960.76	878
1961.75	888
1962.73	896
1963.72	856
1964.7	878
1965.69	906
1966.68	910
1967.66	862
1968.65	864
1969.63	918
1970.62	882
1971.6	908
1972.59	884
1973.57	906
1974.55	902
1975.54	884
1976.52	896
1977.51	860
1978.49	844
1979.47	842
1980.46	898
1981.44	886
1982.42	870
1983.41	848
1984.39	838
1985.37	886
1986.35	906
1987.34	850
1988.32	862
1989.3	872
1990.28	888
1991.27	870
1992.25	844
1993.23	836
1994.21	894
1995.19	838
1996.17	894
1997.15	820
1998.13	882
1999.11	866
2000.09	864
2001.07	892
2002.05	858
2003.03	834
2004.01	876
2004.99	842
2005.97	860
2006.95	848
2007.93	862
2008.91	850
2009.89	852
2010.87	838
2011.85	866
2012.82	892
2013.8	878
2014.78	870
2015.76	846
2016.74	812
2017.72	850
2018.69	856
2019.67	844
2020.65	848
2021.62	824
2022.6	872
2023.58	884
2024.55	848
2025.53	850
2026.51	852
2027.48	886
2028.46	838
2029.44	842
2030.41	846
2031.39	824
2032.36	862
2033.34	850
2034.31	826
2035.29	840
2036.26	838
2037.24	818
2038.21	826
2039.19	854
2040.16	830
2041.14	830
2042.11	836
2043.08	868
2044.06	850
2045.03	822
2046	862
2046.98	832
2047.95	852
2048.92	826
2049.9	850
2050.87	832
2051.84	836
2052.81	824
2053.79	810
2054.76	842
2055.73	838
2056.7	826
2057.67	834
2058.64	814
2059.61	838
2060.59	842
2061.56	828
2062.53	800
2063.5	826
2064.47	870
2065.44	818
2066.41	882
2067.38	814
2068.35	806
2069.32	828
2070.29	828
2071.26	814
2072.23	806
2073.2	842
2074.17	850
2075.14	836
2076.1	828
2077.07	794
2078.04	810
2079.01	808
2079.98	850
2080.95	820
2081.91	824
2082.88	824
2083.85	828
2084.82	808
2085.78	774
2086.75	846
2087.72	822
2088.68	780
2089.65	814
2090.62	808
2091.58	802
2092.55	830
2093.52	812
2094.48	760
2095.45	796
2096.41	844
2097.38	796
2098.35	806
2099.31	804
2100.28	798
2101.24	824
2102.21	788
2103.17	792
2104.14	804
2105.1	814
2106.06	796
2107.03	806
2107.99	788
2108.96	798
2109.92	802
2110.88	780
2111.85	806
2112.81	804
2113.77	794
2114.73	788
2115.7	814
2116.66	782
2117.62	804
2118.58	808
2119.55	792
2120.51	824
2121.47	814
2122.43	798
2123.39	798
2124.36	774
2125.32	786
2126.28	840
2127.24	794
2128.2	778
2129.16	768
2130.12	772
2131.08	822
2132.04	788
2133	788
2133.96	778
2134.92	798
2135.88	774
2136.84	786
2137.8	806
2138.76	758
2139.72	802
2140.68	748
2141.64	756
2142.59	802
2143.55	738
2144.51	764
2145.47	780
2146.43	770
2147.39	740
2148.34	752
2149.3	792
2150.26	808
2151.22	768
2152.17	746
2153.13	750
2154.09	768
2155.04	766
2156	806
2156.96	766
2157.91	796
2158.87	742
2159.82	776
2160.78	768
2161.74	794
2162.69	754
2163.65	764
2164.6	756
2165.56	762
2166.51	788
2167.47	762
2168.42	734
2169.38	776
2170.33	764
2171.29	754
2172.24	768
2173.19	720
2174.15	766
2175.1	754
2176.05	772
2177.01	760
2177.96	750
2178.91	800
2179.87	744
2180.82	752
2181.77	722
2182.73	778
2183.68	762
2184.63	732
2185.58	758
2186.53	758
2187.49	754
2188.44	732
2189.39	738
2190.34	752
2191.29	768
2192.24	768
2193.19	732
2194.14	748
2195.09	744
2196.05	718
2197	734
2197.95	730
2198.9	752
2199.85	710
2200.8	708
2201.75	724
2202.7	716
2203.64	714
2204.59	718
2205.54	730
2206.49	746
2207.44	746
2208.39	722
2209.34	716
2210.29	738
2211.23	770
2212.18	744
2213.13	694
2214.08	726
2215.03	688
2215.97	718
2216.92	734
2217.87	736
2218.81	718
2219.76	740.046
2220.71	775.249
2221.66	718.598
2222.6	726.096
2223.55	711.39
2224.49	718.986
2225.44	707.104
2226.39	709.525
2227.33	711.468
2228.28	723.318
2229.22	713.708
2230.17	738.354
2231.11	704.267
2232.06	687.438
2233	706.116
2233.95	717.822
2234.89	709.013
2235.84	716.073
2236.78	707.564
2237.73	691.527
2238.67	712.429
2239.61	716.101
2240.56	733.981
2241.5	721.805
2242.45	721.163
2243.39	722.654
2244.33	743.299
2245.28	706.227
2246.22	685.797
2247.16	717.261
2248.1	713.78
2249.05	721.232
2249.99	726.733
2250.93	733.674
2251.87	733.304
2252.81	725.038
2253.76	703.988
2254.7	718.228
2255.64	724.428
2256.58	743.356
2257.52	695.747
2258.46	732.089
2259.4	721.784
2260.34	750.585
2261.28	722.882
2262.23	695.435
2263.17	716.075
2264.11	706.638
2265.05	728.525
2265.99	710.037
2266.93	739
2267.87	710.642
2268.8	716.281
2269.74	711.245
2270.68	697.219
2271.62	716.703
2272.56	704.241
2273.5	699.055
2274.44	699.041
2275.38	714.797
2276.32	715.512
2277.25	721.828
2278.19	704.434
2279.13	724.78
2280.07	711.822
2281.01	698.606
2281.94	709.295
2282.88	707.345
2283.82	736.959
2284.76	715.561
2285.69	716.063
2286.63	692.688
2287.57	701.106
2288.5	724.486
2289.44	694.628
2290.37	709.145
2291.31	720.749
2292.25	698.789
2293.18	712.787
2294.12	731.638
2295.05	693.808
2295.99	686.392
2296.92	718.625
2297.86	716.756
2298.79	707.855
2299.73	733.235
2300.66	684.052
2301.6	715.114
2302.53	691.994
2303.47	712.898
2304.4	708.901
2305.34	729.184
2306.27	725.124
2307.2	683.968
2308.14	704.041
2309.07	705.316
2310	686.265
2310.94	692.812
2311.87	685.525
2312.8	705.932
2313.74	675.715
2313.98	662
2314.92	712
2315.86	706
2316.79	692
2317.73	708
2318.67	704
2319.6	680
2320.54	696
2321.48	658
2322.41	706
2323.35	722
2324.29	700
2325.22	666
2326.16	684
2327.09	712
2328.03	678
2328.96	694
2329.9	694
2330.83	666
2331.77	706
2332.7	716
2333.64	702
2334.57	688
2335.51	710
2336.44	716
2337.38	678
2338.31	692
2339.24	674
2340.18	712
2341.11	662
2342.04	696
2342.98	676
2343.91	704
2344.84	704
2345.78	676
2346.71	704
2347.64	698
2348.57	696
2349.51	668
2350.44	666
2351.37	696
2352.3	694
2353.24	672
2354.17	656
2355.1	706
2356.03	700
2356.96	704
2357.89	678
2358.82	672
2359.75	684
2360.68	714
2361.62	702
2362.55	656
2363.48	678
2364.41	678
2365.34	686
2366.27	680
2367.2	682
2368.13	708
2369.05	664
2369.98	670
2370.91	690
2371.84	654
2372.77	694
2373.7	698
2374.63	682
2375.56	684
2376.49	662
2377.41	694
2378.34	650
2379.27	690
2380.2	688
2381.12	688
2382.05	656
2382.98	684
2383.91	676
2384.83	664
2385.76	660
2386.69	648
2387.61	660
2388.54	712
2389.47	672
2390.39	670
2391.32	678
2392.25	670
2393.17	660
2394.1	656
2395.02	668
2395.95	678
2396.87	670
2397.8	654
2398.72	642
2399.65	698
2400.57	674
2401.5	694
2402.42	658
2403.35	690
2404.27	658
2405.2	646
2406.12	676
2407.04	650
2407.97	676
2408.89	660
2409.81	650
2410.74	664
2411.66	650
2412.58	666
2413.51	644
2414.43	692
2415.35	640
2416.27	640
2417.2	674
2418.12	642
2419.04	664
2419.96	630
2420.88	652
2421.81	672
2422.73	664
2423.65	652
2424.57	644
2425.49	672
2426.41	666
2427.33	670
2428.25	654
2429.17	672
2430.1	686
2431.02	626
2431.94	642
2432.85	664
2433.77	650
2434.7	636
2435.61	686
2436.53	666
2437.45	662
2438.37	650
2439.29	652
2440.21	652
2441.13	676
2442.05	628
2442.97	676
2443.88	636
2444.8	672
2445.72	676
2446.64	624
2447.56	636
2448.47	642
2449.39	610
2450.31	642
2451.23	638
2452.14	658
2453.06	630
2453.98	654
2454.89	630
2455.81	634
2456.73	646
2457.64	640
2458.56	630
2459.48	682
2460.39	646
2461.31	656
2462.22	648
2463.14	640
2464.05	622
2464.97	634
2465.88	658
2466.8	642
2467.71	622
2468.63	602
2469.54	632
2470.46	634
2471.37	636
2472.29	648
2473.2	648
2474.11	642
2475.03	630
2475.94	630
2476.86	636
2477.77	632
2478.68	620
2479.59	650
2480.51	630
2481.42	624
2482.33	628
2483.25	640
2484.16	668
2485.07	628
2485.98	620
2486.9	646
2487.81	630
2488.72	622
2489.63	640
2490.54	612
2491.45	638
2492.36	636
2493.28	612
2494.19	634
2495.1	620
2496.01	634
2496.92	628
2497.83	610
2498.74	612
2499.65	648
2500.56	602
2501.47	622
2502.38	594
2503.29	644
2504.2	592
2505.11	624
2506.02	632
2506.93	620
2507.83	614
2508.74	644
2509.65	654
2510.56	626
2511.47	610
2512.38	622
2513.29	614
2514.19	612
2515.1	604
2516.01	616
2516.92	628
2517.82	618
2518.73	596
2519.64	608
2520.55	638
2521.45	636
2522.36	618
2523.27	608
2524.17	614
2525.08	606
2525.99	634
2526.89	610
2527.8	610
2528.7	600
2529.61	630
2530.51	610
2531.42	620
2532.33	624
2533.23	616
2534.14	614
2535.04	626
2535.95	628
2536.85	608
2537.75	618
2538.66	628
2539.56	616
2540.47	602
2541.37	588
2542.28	584
2543.18	592
2544.08	602
2544.99	584
2545.89	602
2546.79	594
2547.7	586
2548.6	602
2549.5	588
2550.4	606
2551.31	598
2552.21	624
2553.11	600
2554.01	632
2554.92	572
2555.82	606
2556.72	612
2557.62	622
2558.52	568
2559.42	614
2560.32	568
2561.23	580
2562.13	608
2563.03	570
2563.93	608
2564.83	604
2565.73	630
2566.63	576
2567.53	616
2568.43	600
2569.33	590
2570.23	610
2571.13	586
2572.03	612
2572.93	590
2573.83	598
2574.73	612
2575.63	622
2576.52	590
2577.42	584
2578.32	634
2579.22	600
2580.12	568
2581.02	568
2581.91	582
2582.81	600
2583.71	578
2584.61	588
2585.51	604
2586.4	600
2587.3	590
2588.2	594
2589.09	600
2589.99	574
2590.89	616
2591.78	602
2592.68	604
2593.58	600
2594.47	568
2595.37	572
2596.26	590
2597.16	570
2598.06	590
2598.95	564
2599.85	584
2600.74	608
2601.64	566
2602.53	590
2603.43	580
2604.32	584
2605.22	570
2606.11	580
2607.01	574
2607.9	606
2608.79	590
2609.69	592
2610.58	598
2611.48	562
2612.37	584
2613.26	602
2614.16	560
2615.05	566
2615.94	576
2616.84	572
2617.73	580
2618.62	574
2619.51	566
2620.41	576
2621.3	582
2622.19	550
2623.08	568
2623.97	594
2624.87	570
2625.76	584
2626.65	578
2627.54	564
2628.43	542
2629.32	570
2630.21	542
2631.1	562
2631.99	572
2632.89	576
2633.78	578
2634.67	570
2635.56	554
2636.45	594
2637.34	578
2638.23	528
2639.12	566
2640.01	558
2640.9	540
2641.78	574
2642.67	546
2643.56	556
2644.45	570
2645.34	560
2646.23	588
2647.12	570
2648.01	566
2648.89	568
2649.78	548
2650.67	564
2651.56	566
2652.45	564
2653.33	526
2654.22	560
2655.11	560
2656	570
2656.88	556
2657.77	570
2658.66	546
2659.54	550
2660.43	558
2661.32	552
2662.2	570
2663.09	546
2663.97	546
2664.86	522
2665.75	580
2666.63	578
2667.52	538
2668.4	572
2669.29	538
2670.17	530
2671.06	558
2671.94	544
2672.83	568
2673.71	562
2674.6	558
2675.48	546
2676.37	542
2677.25	556
2678.13	534
2679.02	552
2679.9	556
2680.78	524
2681.67	538
2682.55	552
2683.43	552
2684.32	566
2685.2	536
2686.08	550
2686.97	542
2687.85	552
2688.73	536
2689.61	552
2690.5	544
2691.38	578
2692.26	530
2693.14	556
2694.02	568
2694.9	516
2695.79	534
2696.67	556
2697.55	556
2698.43	528
2699.31	536
2700.19	546
2701.07	544
2701.95	516
2702.83	544
2703.71	558
2704.59	526
2705.47	530
2706.35	544
2707.23	560
2708.11	552
2708.99	520
2709.87	542
2710.75	526
2711.63	532
2712.51	536
2713.39	532
2714.27	534
2715.14	542
2716.02	538
2716.9	534
2717.78	570
2718.66	556
2719.54	508
2720.41	542
2721.29	542
2722.17	482
2723.05	510
2723.92	510
2724.8	530
2725.68	520
2726.55	528
2727.43	496
2728.31	532
2729.18	516
2730.06	560
2730.94	520
2731.81	538
2732.69	532
2733.57	516
2734.44	514
2735.32	528
2736.19	510
2737.07	518
2737.94	504
2738.82	516
2739.69	508
2740.57	506
2741.44	522
2742.32	532
2743.19	514
2744.07	494
2744.94	498
2745.81	520
2746.69	500
2747.56	490
2748.44	486
2749.31	522
2750.18	504
2751.06	524
2751.93	500
2752.8	480
2753.68	508
2754.55	510
2755.42	524
2756.29	512
2757.17	544
2758.04	532
2758.91	484
2759.78	508
2760.65	484
2761.53	484
2762.4	544
2763.27	504
2764.14	504
2765.01	510
2765.88	494
2766.76	504
2767.63	496
2768.5	492
2769.37	524
2770.24	512
2771.11	490
2771.98	530
2772.85	476
2773.72	492
2774.59	496
2775.46	486
2776.33	504
2777.2	498
2778.07	512
2778.94	526
2779.81	518
2780.67	530
2781.54	480
2782.41	506
2783.28	514
2784.15	506
2785.02	512
2785.89	490
2786.75	502
2787.62	504
2788.49	474
2789.36	482
2790.23	508
2791.09	456
2791.96	484
2792.83	476
2793.7	514
2794.56	504
2795.43	498
2796.3	520
2797.16	508
2798.03	498
2798.9	490
2799.76	508
2800.63	462
2801.49	508
2802.36	462
2803.23	460
2804.09	492
2804.96	498
2805.82	498
2806.69	506
2807.55	470
2808.42	492
2809.28	480
2810.15	486
2811.01	524
2811.88	494
2812.74	510
2813.61	492
2814.47	470
2815.33	468
2816.2	478
2817.06	464
2817.93	470
2818.79	502
2819.65	478
2820.52	478
2821.38	458
2822.24	492
2823.11	466
2823.97	480
2824.83	464
2825.69	482
2826.55	516
2827.42	476
2828.28	472
2829.14	460
2830	498
2830.87	492
2831.73	464
2832.59	458
2833.45	460
2834.31	456
2835.17	476
2836.03	446
2836.89	464
2837.76	454
2838.62	468
2839.48	466
2840.34	470
2841.2	468
2842.06	460
2842.92	464
2843.78	460
2844.64	486
2845.5	488
2846.36	468
2847.22	464
2848.07	474
2848.93	456
2849.79	482
2850.65	460
2851.51	458
2852.37	466
2853.23	474
2854.09	448
2854.95	462
2855.8	448
2856.66	440
2857.52	444
2858.38	462
2859.24	462
2860.09	460
2860.95	462
2861.81	450
2862.66	440
2863.52	460
2864.38	420
2865.24	442
2866.09	466
2866.95	460
2867.81	470
2868.66	466
2869.52	440
2870.37	452
2871.23	464
2872.09	452
2872.94	438
2873.8	430
2874.65	458
2875.51	466
2876.36	454
2877.22	454
2878.07	440
2878.93	450
2879.78	470
2880.64	448
2881.49	436
2882.35	448
2883.2	464
2884.05	454
2884.91	462
2885.76	454
2886.62	446
2887.47	456
2888.32	464
2889.18	428
2890.03	436
2890.88	446
2891.74	450
2892.59	454
2893.44	444
2894.29	452
2895.15	440
2896	446
2896.85	436
2897.7	472
2898.55	438
2899.41	454
2900.26	442
2901.11	432
2901.96	426
2902.81	458
2903.66	430
2904.52	458
2905.37	414
2906.22	446
2907.07	440
2907.92	420
2908.77	452
2909.62	436
2910.47	446
2911.32	410
2912.17	430
2913.02	442
2913.87	426
2914.72	444
2915.57	446
2916.42	434
2917.27	432
2918.12	432
2918.97	438
2919.82	432
2920.66	438
2921.51	444
2922.36	442
2923.21	408
2924.06	438
2924.91	422
2925.75	444
2926.6	408
2927.45	406
2928.3	438
2929.15	406
2929.99	410
2930.84	430
2931.69	428
2932.54	424
2933.38	426
2934.23	448
2935.08	404
2935.92	424
2936.77	412
2937.62	426
2938.46	408
2939.31	408
2940.15	434
2941	452
2941.85	436
2942.69	410
2943.54	446
2944.38	438
2945.23	446
2946.07	432
2946.92	426
2947.76	442
2948.61	446
2949.45	418
2950.3	442
2951.14	396
2951.99	436
2952.83	396
2953.67	414
2954.52	400
2955.36	434
2956.21	428
2957.05	440
2957.89	402
2958.74	434
2959.58	420
2960.42	402
2961.27	424
2962.11	402
2962.95	444
2963.79	418
2964.64	396
2965.48	436
2966.32	422
2967.16	410
2968.01	396
2968.85	378
2969.69	390
2970.53	394
2971.37	410
2972.21	418
2973.05	408
2973.9	422
2974.74	406
2975.58	424
2976.42	388
2977.26	408
2978.1	396
2978.94	412
2979.78	396
2980.62	402
2981.46	428
2982.3	390
2983.14	378
2983.98	406
2984.82	384
2985.66	398
2986.5	394
2987.34	364
2988.18	386
2989.02	370
2989.86	386
2990.69	392
2991.53	378
2992.37	400
2993.21	418
2994.05	410
2994.89	402
2995.72	424
2996.56	402
2997.4	398
2998.24	392
2999.08	408
2999.91	400
3000.75	380
3001.59	410
3002.43	400
3003.26	382
3004.1	392
3004.94	386
3005.77	384
3006.61	398
3007.45	394
3008.28	392
3009.12	384
3009.95	364
3010.79	394
3011.63	392
3012.46	380
3013.3	386
3014.13	398
3014.97	382
3015.8	400
3016.64	356
3017.47	396
3018.31	398
3019.14	386
3019.98	382
3020.81	406
3021.65	384
3022.48	382
3023.31	380
3024.15	376
3024.98	384
3025.82	374
3026.65	410
3027.48	400
3028.32	388
3029.15	374
3029.98	362
3030.82	380
3031.65	386
3032.48	382
3033.31	378
3034.15	386
3034.98	374
3035.81	394
3036.64	380
3037.48	410
3038.31	374
3039.14	362
3039.97	380
3040.8	397.722
3041.63	371.8
3042.47	375.694
3043.3	375.513
3044.13	372.493
3044.96	385.175
3045.79	384.018
3046.62	390.323
3047.45	385.046
3048.28	360.659
3049.11	362.393
3049.94	352.857
3050.77	372.646
3051.6	372.138
3052.43	367.49
3053.26	362.55
3054.09	362.406
3054.92	377.078
3055.75	366.345
3056.58	360.303
3057.41	368.792
3058.24	364.628
3059.07	368.613
3059.9	362.072
3060.73	378.785
3061.55	350.721
3062.38	389.348
3063.21	357.668
3064.04	351.549
3064.87	376.687
3065.7	362.593
3066.52	348.522
3067.35	371.938
3068.18	356.166
3069.01	359.21
3069.83	365.673
3070.66	358.291
3071.49	354.45
3072.32	376.705
3073.14	361.398
3073.97	360.262
3074.8	373.042
3075.62	343.992
3076.45	344.255
3077.28	357.952
3078.1	348.006
3078.93	353.969
3079.75	353.09
3080.58	346.221
3081.41	363.191
3082.23	341.845
3083.06	343.04
3083.88	348.907
3084.71	355.794
3085.53	352.386
3086.36	334.265
3087.18	336.302
3088.01	347.659
3088.83	345.257
3089.66	355.823
3090.48	342.036
3091.31	340.71
3092.13	355.672
3092.96	333.307
3093.78	352.072
3094.6	354.44
3095.43	341.744
3096.25	346.964
3097.07	347.76
3097.9	342.255
3098.72	359.105
3099.54	352.833
3100.37	339.137
3101.19	353.182
3102.01	356.641
3102.84	347.819
3103.66	348.117
3104.48	351.396
3105.3	346.677
3106.13	338.834
3106.95	340.471
3107.77	334.393
3108.59	322.672
3109.41	331.735
3110.24	337.009
3111.06	323.808
3111.88	322.471
3112.7	321.98
3113.52	325.095
3114.34	323.337
3115.16	326.23
3115.98	327.022
3116.81	330.91
3117.63	323.932
3118.45	324.708
3119.27	331.627
3120.09	346.848
3120.91	342.421
3121.73	336.144
3122.55	311.213
3123.37	302.695
3123.73	314
3124.56	330
3125.38	318
3126.21	328
3127.03	348
3127.85	318
3128.68	316
3129.5	340
3130.32	328
3131.15	334
3131.97	326
3132.79	300
3133.62	302
3134.44	298
3135.26	316
3136.08	324
3136.91	340
3137.73	306
3138.55	336
3139.37	326
3140.19	322
3141.02	336
3141.84	328
3142.66	326
3143.48	314
3144.3	326
3145.13	318
3145.95	322
3146.77	312
3147.59	312
3148.41	330
3149.23	334
3150.05	340
3150.87	332
3151.69	320
3152.51	320
3153.33	316
3154.15	300
3154.97	304
3155.79	318
3156.61	310
3157.43	302
3158.25	308
3159.07	314
3159.89	316
3160.71	332
3161.53	324
3162.35	312
3163.17	328
3163.98	330
3164.8	302
3165.62	302
3166.44	332
3167.26	326
3168.08	300
3168.89	310
3169.71	328
3170.53	314
3171.35	310
3172.17	318
3172.98	308
3173.8	292
3174.62	308
3175.43	302
3176.25	336
3177.07	294
3177.89	316
3178.7	310
3179.52	324
3180.33	314
3181.15	318
3181.97	314
3182.78	324
3183.6	304
3184.41	272
3185.23	318
3186.05	306
3186.86	310
3187.68	300
3188.49	322
3189.31	306
3190.12	288
3190.94	310
3191.75	286
3192.57	308
3193.38	292
3194.2	308
3195.01	298
3195.82	306
3196.64	324
3197.45	292
3198.27	280
3199.08	298
3199.89	316
3200.71	306
3201.52	298
3202.33	290
3203.15	296
3203.96	294
3204.77	292
3205.59	312
3206.4	306
3207.21	316
3208.02	280
3208.84	308
3209.65	306
3210.46	330
3211.27	312
3212.09	284
3212.9	316
3213.71	294
3214.52	304
3215.33	300
3216.14	298
3216.96	324
3217.77	314
3218.58	290
3219.39	300
3220.2	312
3221.01	290
3221.82	304
3222.63	270
3223.44	306
3224.25	328
3225.06	286
3225.87	278
3226.68	288
3227.49	274
3228.3	274
3229.11	304
3229.92	280
3230.73	300
3231.54	306
3232.35	298
3233.16	296
3233.97	276
3234.77	298
3235.58	298
3236.39	300
3237.2	284
3238.01	304
3238.82	304
3239.63	294
3240.43	262
3241.24	308
3242.05	276
3242.86	280
3243.66	280
3244.47	296
3245.28	292
3246.09	288
3246.89	278
3247.7	300
3248.51	314
3249.31	292
3250.12	290
3250.93	308
3251.73	298
3252.54	302
3253.35	266
3254.15	292
3254.96	286
3255.76	268
3256.57	288
3257.38	270
3258.18	280
3258.99	274
3259.79	278
3260.6	278
3261.4	294
3262.21	302
3263.01	290
3263.82	290
3264.62	290
3265.43	266
3266.23	298
3267.04	288
3267.84	282
3268.64	298
3269.45	266
3270.25	284
3271.06	284
3271.86	268
3272.66	278
3273.47	276
3274.27	296
3275.07	288
3275.88	270
3276.68	296
3277.48	266
3278.28	280
3279.09	270
3279.89	262
3280.69	272
3281.49	280
3282.3	276
3283.1	278
3283.9	298
3284.7	284
3285.5	294
3286.31	306
3287.11	290
3287.91	286
3288.71	294
3289.51	290
3290.31	272
3291.11	272
3291.91	284
3292.71	266
3293.51	276
3294.31	264
3295.12	276
3295.92	278
3296.72	276
3297.52	276
3298.32	264
3299.12	296
3299.92	280
3300.72	278
3301.51	276
3302.31	286
3303.11	266
3303.91	264
3304.71	250
3305.51	280
3306.31	274
3307.11	286
3307.91	246
3308.71	260
3309.5	272
3310.3	270
3311.1	292
3311.9	274
3312.7	284
3313.49	266
3314.29	286
3315.09	272
3315.89	264
3316.69	252
3317.48	280
3318.28	270
3319.08	266
3319.87	266
3320.67	274
3321.47	282
3322.26	262
3323.06	270
3323.86	256
3324.65	266
3325.45	258
3326.25	270
3327.04	270
3327.84	260
3328.63	280
3329.43	270
3330.22	264
3331.02	282
3331.81	284
3332.61	274
3333.4	280
3334.2	256
3334.99	256
3335.79	264
3336.58	246
3337.38	280
3338.17	274
3338.97	264
3339.76	268
3340.56	270
3341.35	258
3342.14	274
3342.94	250
3343.73	260
3344.52	258
3345.32	278
3346.11	256
3346.9	256
3347.7	270
3348.49	282
3349.28	272
3350.08	274
3350.87	264
3351.66	264
3352.45	264
3353.25	262
3354.04	258
3354.83	242
3355.62	250
3356.41	260
3357.21	264
3358	268
3358.79	262
3359.58	258
3360.37	250
3361.16	244
3361.95	260
3362.75	248
3363.54	256
3364.33	248
3365.12	272
3365.91	256
3366.7	274
3367.49	250
3368.28	236
3369.07	252
3369.86	250
3370.65	266
3371.44	252
3372.23	256
3373.02	266
3373.81	262
3374.6	246
3375.39	262
3376.18	268
3376.97	258
3377.75	254
3378.54	250
3379.33	248
3380.12	242
3380.91	248
3381.7	258
3382.49	258
3383.27	266
3384.06	252
3384.85	242
3385.64	234
3386.43	246
3387.21	252
3388	236
3388.79	258
3389.58	244
3390.36	264
3391.15	256
3391.94	240
3392.72	246
3393.51	264
3394.3	258
3395.08	252
3395.87	248
3396.66	246
3397.44	236
3398.23	248
3399.01	234
3399.8	234
3400.59	246
3401.37	240
3402.16	258
3402.94	244
3403.73	232
3404.51	254
3405.3	238
3406.08	240
3406.87	258
3407.65	240
3408.44	256
3409.22	262
3410.01	250
3410.79	244
3411.58	252
3412.36	234
3413.14	252
3413.93	230
3414.71	256
3415.5	248
3416.28	230
3417.06	234
3417.85	250
3418.63	228
3419.41	244
3420.2	224
3420.98	248
3421.76	254
3422.54	238
3423.33	242
3424.11	256
3424.89	234
3425.67	232
3426.46	248
3427.24	254
3428.02	236
3428.8	254
3429.58	218
3430.36	260
3431.15	242
3431.93	246
3432.71	232
3433.49	230
3434.27	222
3435.05	232
3435.83	248
3436.61	228
3437.4	256
3438.18	244
3438.96	240
3439.74	242
3440.52	246
3441.3	260
3442.08	232
3442.86	238
3443.64	246
3444.42	236
3445.2	230
3445.98	260
3446.76	220
3447.53	242
3448.31	244
3449.09	238
3449.87	232
3450.65	230
3451.43	230
3452.21	230
3452.99	238
3453.77	236
3454.54	222
3455.32	240
3456.1	230
3456.88	254
3457.66	236
3458.43	230
3459.21	228
3459.99	244
3460.77	238
3461.54	246
3462.32	236
3463.1	248
3463.88	222
3464.65	220
3465.43	230
3466.21	232
3466.98	220
3467.76	232
3468.53	228
3469.31	246
3470.09	246
3470.86	220
3471.64	236
3472.42	238
3473.19	248
3473.97	212
3474.74	206
3475.52	230
3476.29	234
3477.07	236
3477.84	220
3478.62	228
3479.39	232
3480.17	228
3480.94	238
3481.72	212
3482.49	228
3483.27	218
3484.04	224
3484.82	240
3485.59	228
3486.36	212
3487.14	236
3487.91	226
3488.68	230
3489.46	214
3490.23	232
3491	220
3491.78	210
3492.55	238
3493.32	232
3494.1	222
3494.87	230
3495.64	220
3496.42	224
3497.19	228
3497.96	226
3498.73	230
3499.5	220
3500.28	212
3501.05	228
3501.82	212
3502.59	228
3503.36	232
3504.14	228
3504.91	234
3505.68	226
3506.45	230
3507.22	208
3507.99	212
3508.76	222
3509.53	222
3510.3	230
3511.07	222
3511.84	220
3512.61	252
3513.38	246
3514.16	232
3514.92	206
3515.7	218
3516.46	230
3517.23	210
3518	230
3518.77	212
3519.54	220
3520.31	194
3521.08	236
3521.85	206
3522.62	208
3523.39	206
3524.16	200
3524.93	232
3525.69	220
3526.46	218
3527.23	228
3528	210
3528.77	210
3529.53	224
3530.3	242
3531.07	204
3531.84	208
3532.61	218
3533.37	194
3534.14	204
3534.91	230
3535.68	232
3536.44	220
3537.21	218
3537.98	212
3538.74	226
3539.51	220
3540.28	216
3541.04	228
3541.81	218
3542.58	222
3543.34	204
3544.11	224
3544.87	212
3545.64	218
3546.4	232
3547.17	222
3547.94	218
3548.7	210
3549.47	210
3550.23	216
3551	218
3551.76	208
3552.53	210
3553.29	204
3554.06	218
3554.82	224
3555.59	216
3556.35	222
3557.11	218
3557.88	206
3558.64	208
3559.41	200
3560.17	218
3560.93	216
3561.7	202
3562.46	206
3563.22	208
3563.99	220
3564.75	216
3565.51	210
3566.28	208
3567.04	228
3567.8	216
3568.56	210
3569.33	216
3570.09	212
3570.85	208
3571.61	218
3572.38	204
3573.14	204
3573.9	206
3574.66	208
3575.42	202
3576.19	218
3576.95	210
3577.71	204
3578.47	226
3579.23	208
3579.99	190
3580.75	206
3581.51	206
3582.28	216
3583.04	222
3583.8	214
3584.56	204
3585.32	224
3586.08	220
3586.84	210
3587.6	208
3588.36	198
3589.12	210
3589.88	196
3590.64	206
3591.4	218
3592.16	214
3592.92	200
3593.67	194
3594.43	196
3595.19	204
3595.95	206
3596.71	204
3597.47	196
3598.23	194
3598.99	210
3599.75	210
3600.5	212
3601.26	222
3602.02	204
3602.78	210
3603.54	204
3604.29	208
3605.05	178
3605.81	198
3606.57	218
3607.32	194
3608.08	188
3608.84	208
3609.59	190
3610.35	218
3611.11	208
3611.87	200
3612.62	196
3613.38	206
3614.13	208
3614.89	210
3615.65	194
3616.4	208
3617.16	194
3617.92	210
3618.67	194
3619.43	204
3620.18	188
3620.94	200
3621.69	202
3622.45	222
3623.2	208
3623.96	188
3624.71	202
3625.47	188
3626.22	204
3626.98	192
3627.73	194
3628.49	196
3629.24	208
3630	198
3630.75	202
3631.5	212
3632.26	206
3633.01	210
3633.77	212
3634.52	204
3635.27	194
3636.03	198
3636.78	190
3637.53	200
3638.29	202
3639.04	186
3639.79	208
3640.55	188
3641.3	206
3642.05	210
3642.8	190
3643.56	202
3644.31	188
3645.06	186
3645.81	178
3646.56	196
3647.32	190
3648.07	184
3648.82	172
3649.57	196
3650.32	188
3651.07	180
3651.83	202
3652.58	198
3653.33	194
3654.08	184
3654.83	208
3655.58	198
3656.33	192
3657.08	196
3657.83	190
3658.58	208
3659.33	210
3660.08	194
3660.83	208
3661.58	188
3662.33	208
3663.08	170
3663.83	196
3664.58	188
3665.33	180
3666.08	186
3666.83	196
3667.58	186
3668.33	184
3669.08	186
3669.83	190
3670.57	196
3671.32	180
3672.07	200
3672.82	198
3673.57	194
3674.32	200
3675.07	198
3675.81	178
3676.56	202
3677.31	184
3678.06	174
3678.8	202
3679.55	192
3680.3	194
3681.05	196
3681.79	198
3682.54	186
3683.29	210
3684.04	198
3684.78	194
3685.53	160
3686.28	198
3687.02	206
3687.77	194
3688.51	204
3689.26	186
3690.01	180
3690.75	188
3691.5	192
3692.24	186
3692.99	184
3693.74	192
3694.48	200
3695.23	192
3695.97	192
3696.72	182
3697.46	180
3698.21	192
3698.95	192
3699.7	182
3700.44	174
3701.19	184
3701.93	184
3702.68	202
3703.42	202
3704.16	184
3704.91	200
3705.65	194
3706.4	204
3707.14	184
3707.88	184
3708.63	184
3709.37	184
3710.11	164
3710.86	176
3711.6	176
3712.34	182
3713.09	190
3713.83	174
3714.57	192
3715.31	190
3716.06	190
3716.8	174
3717.54	206
3718.28	190
3719.03	198
3719.77	176
3720.51	178
3721.25	196
3721.99	184
3722.74	180
3723.48	174
3724.22	192
3724.96	184
3725.7	188
3726.44	186
3727.18	190
3727.92	176
3728.67	174
3729.41	186
3730.15	176
3730.89	168
3731.63	190
3732.37	180
3733.11	202
3733.85	174
3734.59	186
3735.33	168
3736.07	190
3736.81	180
3737.55	178
3738.29	174
3739.03	174
3739.77	168
3740.51	182
3741.24	188
3741.98	188
3742.72	186
3743.46	196
3744.2	184
3744.94	186
3745.68	176
3746.42	168
3747.15	174
3747.89	176
3748.63	172
3749.37	176
3750.11	176
3750.84	174
3751.58	170
3752.32	170
3753.06	182
3753.79	192
3754.53	174
3755.27	172
3756.01	176
3756.74	200
3757.48	176
3758.22	188
3758.95	186
3759.69	172
3760.43	164
3761.16	174
3761.9	194
3762.64	176
3763.37	197.961
3764.11	183.974
3764.84	179.963
3765.58	179.776
3766.32	173.913
3767.05	187.629
3767.79	170.978
3768.52	185.351
3769.26	169.347
3769.99	179.523
3770.73	171.037
3771.46	181.258
3772.2	176.383
3772.93	180.819
3773.67	174.783
3774.4	174.721
3775.14	211.274
3775.87	347.584
3776.61	293.978
3777.34	216.603
3778.07	190.144
3778.81	179.258
3779.54	172.16
3780.28	180.859
3781.01	170.378
3781.74	176.711
3782.48	177.381
3783.21	183.728
3783.94	174.611
3784.68	182.313
3785.41	185.864
3786.14	168.421
3786.88	160.988
3787.61	173.071
3788.34	168.59
3789.07	172.942
3789.81	169.215
3790.54	169.007
3791.27	166.925
3792	169.136
3792.74	182.76
3793.47	178.248
3794.2	169.821
3794.93	176.664
3795.66	176.008
3796.4	177.457
3797.13	180.689
3797.86	167.245
3798.59	168.55
3799.32	174.906
3800.05	170.888
3800.78	171.554
3801.52	175.248
3802.25	161.756
3802.98	176.117
3803.71	167.263
3804.44	162.75
3805.17	172.013
3805.9	174.296
3806.63	175.916
3807.36	168.267
3808.09	166.403
3808.82	181.58
3809.55	175.932
3810.28	163.666
3811.01	168.075
3811.74	175.239
3812.47	176.575
3813.2	169.294
3813.93	170.936
3814.66	172.015
3815.38	170.741
3816.11	170.345
3816.84	170.155
3817.57	167.233
3818.3	165.242
3819.03	164.735
3819.76	170.98
3820.49	171.129
3821.21	174.274
3821.94	166.028
3822.67	166.761
3823.4	169.121
3824.13	160.369
3824.85	158.387
3825.58	162.237
3826.31	156.278
3827.04	160.986
3827.77	167.587
3828.49	168.919
3829.22	171.718
3829.95	167.556
3830.67	176.306
3831.4	174.311
3832.13	161.541
3832.85	166.338
3833.58	172.835
3834.31	173.171
3835.03	165.133
3835.76	175.86
3836.49	158.077
3837.21	154.708
3837.94	163.981
3838.52	164
3839.25	166
3839.98	168
3840.71	150
3841.44	172
3842.17	186
3842.9	166
3843.63	164
3844.36	184
3845.09	156
3845.82	172
3846.55	174
3847.28	176
3848	170
3848.73	160
3849.46	168
3850.19	164
3850.92	152
3851.65	154
3852.38	152
3853.1	154
3853.83	170
3854.56	164
3855.29	178
3856.02	158
3856.74	154
3857.47	182
3858.2	164
3858.93	176
3859.65	158
3860.38	170
3861.11	150
3861.84	156
3862.56	168
3863.29	158
3864.02	168
3864.74	164
3865.47	178
3866.2	150
3866.92	154
3867.65	172
3868.38	152
3869.1	178
3869.83	144
3870.55	172
3871.28	158
3872.01	166
3872.73	152
3873.46	172
3874.18	154
3874.91	158
3875.63	154
3876.36	170
3877.08	176
3877.81	152
3878.53	154
3879.26	172
3879.98	156
3880.71	172
3881.43	164
3882.16	156
3882.88	172
3883.6	160
3884.33	176
3885.05	164
3885.78	164
3886.5	166
3887.22	158
3887.95	148
3888.67	152
3889.4	148
3890.12	160
3890.84	150
3891.57	164
3892.29	158
3893.01	170
3893.73	160
3894.46	152
3895.18	174
3895.9	166
3896.63	152
3897.35	156
3898.07	156
3898.79	146
3899.51	164
3900.24	146
3900.96	144
3901.68	160
3902.4	152
3903.12	156
3903.84	148
3904.57	152
3905.29	168
3906.01	166
3906.73	166
3907.45	164
3908.17	168
3908.89	148
3909.61	154
3910.33	158
3911.06	158
3911.78	160
3912.5	160
3913.22	150
3913.94	162
3914.66	164
3915.38	166
3916.1	152
3916.82	162
3917.54	160
3918.26	174
3918.98	166
3919.69	154
3920.41	146
3921.13	166
3921.85	152
3922.57	176
3923.29	164
3924.01	160
3924.73	142
3925.45	172
3926.17	156
3926.88	156
3927.6	168
3928.32	152
3929.04	154
3929.76	160
3930.47	162
3931.19	162
3931.91	150
3932.63	168
3933.35	166
3934.06	160
3934.78	146
3935.5	152
3936.22	154
3936.93	154
3937.65	162
3938.37	150
3939.08	150
3939.8	154
3940.52	150
3941.23	154
3941.95	166
3942.67	158
3943.38	152
3944.1	160
3944.82	160
3945.53	158
3946.25	158
3946.96	146
3947.68	144
3948.4	162
3949.11	152
3949.83	154
3950.54	144
3951.26	162
3951.97	166
3952.69	158
3953.4	154
3954.12	160
3954.83	146
3955.55	160
3956.26	146
3956.98	146
3957.69	164
3958.4	154
3959.12	152
3959.83	154
3960.55	126
3961.26	162
3961.97	152
3962.69	154
3963.4	152
3964.12	144
3964.83	168
3965.54	136
3966.26	174
3966.97	150
3967.68	150
3968.4	158
3969.11	152
3969.82	146
3970.53	168
3971.25	160
3971.96	146
3972.67	150
3973.38	148
3974.1	138
3974.81	160
3975.52	160
3976.23	146
3976.94	168
3977.66	148
3978.37	156
3979.08	154
3979.79	160
3980.5	174
3981.21	156
3981.92	152
3982.64	150
3983.35	148
3984.06	142
3984.77	138
3985.48	144
3986.19	148
3986.9	152
3987.61	146
3988.32	130
3989.03	152
3989.74	160
3990.45	140
3991.16	168
3991.87	146
3992.58	136
3993.29	150
3994	162
3994.71	146
3995.42	140
3996.13	148
3996.84	164
3997.55	164
3998.26	140
3998.97	144
3999.67	132
