#Acq. time (s)=	10
#Accumulations=	1
#Range (cm-¹)=	200...4000
#Windows=	5
#Autofocus=	Off
#AutoExposure=	Off
#Spike filter=	Off
#Delay time (s)=	0
#Binning=	1
#Readout mode=	Signal
#DeNoise=	Off
#ICS correction=	Off
#Dark correction=	Off
#Inst. Process=	Off
#Instrument=	LabRAM HR Evol
#Detector=	Syncerity OE
#Objective=	x100_VIS
#Grating=	600 (500nm)
#ND Filter=	25%
#Laser=	633nm_Edge
#Hole=	100.021
#Range=	Visible
#Project=	Omar
#Sample=	03-07-23
#Site=	1
#Title=	OR
#Remark=	
#Date=	03.07.2023 13:47
#Acquired=	03.07.2023 13:47:25
200.404	760
201.671	732
202.938	708
204.205	724
205.472	754
206.737	716
208.003	724
209.269	718
210.535	758
211.799	730
213.064	714
214.33	730
215.595	754
216.858	738
218.122	740
219.387	712
220.649	716
221.913	762
223.177	762
224.439	746
225.703	748
226.966	750
228.227	750
229.49	748
230.752	730
232.013	750
233.275	742
234.536	778
235.798	714
237.059	750
238.319	754
239.58	762
240.839	740
242.1	768
243.361	720
244.619	726
245.879	740
247.138	770
248.398	790
249.655	742
250.915	758
252.172	764
253.431	748
254.688	784
255.947	754
257.204	744
258.462	770
259.718	772
260.976	732
262.232	746
263.487	752
264.744	772
266	770
267.256	752
268.511	792
269.767	790
271.022	766
272.276	758
273.532	744
274.786	726
276.04	772
277.295	740
278.548	790
279.801	738
281.055	758
282.308	776
283.561	790
284.814	748
286.066	750
287.318	766
288.572	776
289.823	778
291.074	762
292.327	776
293.578	812
294.828	792
296.079	802
297.331	828
298.581	800
299.831	772
301.08	774
302.33	792
303.581	802
304.83	800
306.079	774
307.327	798
308.576	782
309.825	838
311.073	814
312.321	788
313.569	794
314.816	750
316.064	804
317.311	780
318.558	828
319.806	794
321.052	790
322.299	806
323.545	810
324.79	792
326.036	762
327.282	778
328.527	772
329.772	802
331.017	836
332.261	816
333.506	778
334.75	782
335.994	788
337.238	828
338.482	820
339.725	798
340.968	818
342.211	800
343.454	820
344.697	806
345.939	816
347.182	806
348.424	802
349.666	808
350.907	798
352.149	800
353.39	866
354.631	846
355.87	786
357.111	812
358.352	792
359.592	838
360.832	816
362.072	844
363.311	824
364.549	790
365.789	838
367.028	824
368.267	840
369.505	814
370.742	822
371.981	838
373.219	836
374.457	828
375.694	826
376.93	854
378.168	800
379.405	860
380.642	816
381.877	818
383.113	810
384.35	822
385.584	824
386.82	852
388.056	840
389.291	812
390.525	804
391.76	824
392.995	828
394.228	802
395.463	814
396.696	830
397.93	810
399.164	830
400.396	822
401.63	822
402.863	838
404.095	832
405.328	848
406.559	832
407.791	824
409.022	854
410.254	836
411.486	848
412.717	852
413.948	856
415.178	836
416.409	848
417.639	904
418.87	858
420.099	898
421.329	874
422.558	868
423.788	878
425.016	870
426.244	896
427.474	868
428.701	868
429.93	894
431.158	878
432.386	854
433.613	882
434.84	906
436.068	922
437.294	876
438.522	862
439.748	876
440.974	884
442.201	868
443.426	926
444.651	854
445.878	874
447.103	916
448.327	882
449.553	870
450.777	892
452.001	858
453.225	930
454.45	868
455.674	868
456.897	870
458.121	878
459.344	854
460.567	892
461.789	870
463.012	872
464.235	890
465.457	864
466.679	888
467.9	868
469.122	900
470.344	846
471.565	884
472.786	898
474.006	892
475.227	902
476.447	874
477.668	862
478.888	930
480.107	892
481.327	890
482.546	882
483.765	932
484.984	888
486.202	874
487.421	904
488.639	890
489.857	914
491.075	936
492.292	894
493.51	876
494.727	944
495.944	920
497.161	902
498.377	892
499.594	922
500.81	898
502.026	940
503.242	864
504.458	928
505.673	904
506.888	908
508.104	908
509.318	924
510.533	918
511.748	926
512.962	918
514.176	912
515.39	910
516.602	902
517.816	938
519.029	908
520.242	922
521.455	906
522.668	894
523.881	906
525.092	946
526.304	902
527.516	880
528.728	914
529.939	926
531.149	918
532.361	902
533.572	918
534.783	906
535.992	886
537.202	912
538.413	898
539.623	910
540.831	914
542.041	942
543.25	930
544.458	888
545.667	910
546.876	928
548.084	904
549.292	948
550.501	906
551.707	916
552.915	900
554.123	930
555.329	912
556.537	928
557.743	922
558.95	928
560.156	870
561.362	924
562.568	942
563.773	916
564.979	902
566.184	974
567.389	904
568.595	962
569.799	940
571.004	922
572.207	924
573.412	956
574.615	972
575.82	890
577.022	952
578.226	934
579.429	934
580.631	918
581.834	912
583.036	926
584.239	946
585.44	966
586.643	922
587.844	970
589.045	956
590.247	930
591.448	954
592.649	930
593.849	928
595.049	950
596.25	946
597.45	936
598.649	938
599.85	936
601.049	908
602.248	952
603.448	906
604.646	954
605.844	922
607.042	954
608.241	948
609.439	938
610.637	928
611.834	964
613.032	928
614.229	938
615.426	986
616.622	980
617.819	928
619.016	970
620.212	972
621.408	964
622.603	958
623.799	930
624.994	936
626.19	954
627.385	988
628.58	980
629.774	972
630.969	1008
632.163	978
633.356	982
634.55	970
635.744	962
636.938	962
638.131	948
639.324	978
640.517	962
641.71	1010
642.902	1006
644.094	1016
645.286	976
646.478	980
647.67	986
648.861	998
650.052	976
651.243	994
652.434	978
653.625	1002
654.815	976
656.006	978
657.196	992
658.384	1046
659.574	970
660.764	990
661.953	1016
663.142	978
664.331	956
665.52	978
666.709	982
667.897	1022
669.084	990
670.272	986
671.46	998
672.648	1010
673.835	992
675.021	942
676.208	972
677.395	968
678.582	984
679.768	998
680.953	1002
682.14	1038
683.326	1000
684.512	976
685.696	978
686.881	1008
688.067	1012
689.252	1022
690.435	1008
691.62	984
692.804	994
693.987	1030
695.171	1000
696.355	1010
697.538	1002
698.721	1006
699.905	996
701.087	976
702.27	994
703.451	988
704.634	1024
705.816	984
706.997	994
708.179	994
709.36	992
710.542	992
711.722	1014
712.903	1018
714.083	1004
715.264	990
716.445	982
717.624	1014
718.805	1030
719.984	1046
721.162	1014
722.342	1010
723.52	998
724.7	1018
725.878	1046
727.057	1008
728.235	1002
729.414	1032
730.591	1008
731.768	1030
732.946	1006
734.123	1028
735.301	1020
736.477	1020
737.653	1012
738.83	998
740.006	1028
741.182	1048
742.358	1024
743.534	1052
744.709	1014
745.885	1054
747.06	1046
748.234	1022
749.41	1026
750.584	1000
751.758	1016
752.931	1060
754.106	1070
755.28	1030
756.453	1030
757.626	1036
758.8	1034
759.973	1018
761.145	1052
762.318	1042
763.49	1034
764.662	1012
765.835	1018
767.006	1002
768.178	1052
769.349	1054
770.52	1048
771.691	1026
772.861	1036
774.033	1026
775.203	1012
776.373	1022
777.543	1016
778.713	1012
779.883	1014
781.052	1026
782.221	1062
783.39	1016
784.559	1040
785.727	1006
786.896	1040
788.064	1066
789.232	1066
790.4	1062
791.568	1046
792.735	1028
793.903	1024
795.07	1032
796.237	1038
797.404	1034
798.57	1032
799.737	994
800.903	1064
802.068	1020
803.234	1052
804.399	1104
805.565	1032
806.73	1060
807.896	1024
809.061	1060
810.224	1078
811.389	1042
812.553	1026
813.717	1040
814.881	1038
816.045	1064
817.208	1032
818.371	1032
819.535	1054
820.698	1038
821.859	1072
823.022	1060
824.185	1024
825.347	1092
826.508	1096
827.67	1048
828.832	1102
829.993	1074
831.154	1068
832.316	1100
833.476	1032
834.637	1060
835.797	1086
836.957	1112
838.117	1106
839.278	1030
840.436	1090
841.596	1064
842.755	1054
843.914	1096
845.074	1064
846.232	1080
847.391	1084
848.548	1086
849.707	1104
850.864	1054
852.022	1062
853.179	1064
854.337	1122
855.493	1108
856.651	1100
857.807	1054
858.964	1088
860.12	1094
861.277	1106
862.432	1092
863.589	1112
864.744	1100
865.9	1092
867.055	1114
868.209	1096
869.365	1124
870.519	1066
871.674	1096
872.828	1078
873.982	1088
875.136	1100
876.29	1080
877.443	1096
878.597	1072
879.75	1078
880.902	1056
882.056	1108
883.208	1070
884.36	1074
885.512	1088
886.665	1090
887.816	1110
888.967	1108
890.118	1088
891.271	1112
892.421	1106
893.572	1130
894.722	1100
895.874	1080
897.024	1110
898.174	1094
899.323	1118
900.473	1112
901.622	1108
902.771	1088
903.922	1050
905.07	1090
906.219	1072
907.367	1062
908.516	1110
909.664	1104
910.811	1122
911.959	1090
913.107	1060
914.254	1084
915.401	1066
916.55	1078
917.696	1058
918.843	1050
919.99	1082
921.136	1094
922.282	1106
923.428	1080
924.574	1084
925.719	1088
926.863	1074
928.009	1160
929.154	1088
930.299	1094
931.443	1136
932.588	1094
933.732	1108
934.876	1124
936.02	1168
937.164	1090
938.308	1138
939.45	1112
940.593	1098
941.736	1100
942.879	1114
944.022	1110
945.165	1114
946.306	1084
947.448	1110
948.59	1124
949.732	1098
950.874	1120
952.014	1114
953.155	1096
954.296	1138
955.437	1154
956.577	1150
957.718	1148
958.858	1130
959.997	1148
961.137	1146
962.277	1116
963.416	1138
964.555	1140
965.695	1106
966.833	1122
967.972	1100
969.111	1126
970.248	1122
971.387	1132
972.524	1122
973.662	1116
974.8	1146
975.936	1126
977.074	1160
978.21	1158
979.348	1160
980.483	1136
981.62	1178
982.757	1150
983.893	1148
985.029	1128
986.164	1142
987.299	1132
988.435	1158
989.569	1128
990.705	1180
991.839	1138
992.974	1140
994.108	1142
995.243	1154
996.376	1134
997.509	1134
998.644	1142
999.777	1112
1000.91	1154
1002.04	1118
1003.18	1130
1004.31	1194
1005.44	1144
1006.57	1122
1007.71	1162
1008.84	1094
1009.97	1112
1011.1	1142
1012.23	1114
1013.36	1130
1014.49	1136
1015.63	1128
1016.76	1170
1017.89	1116
1019.02	1190
1020.15	1142
1021.28	1140
1022.41	1130
1023.54	1176
1024.66	1192
1025.79	1148
1026.92	1136
1028.05	1124
1029.18	1140
1030.31	1162
1031.44	1140
1032.56	1182
1033.69	1166
1034.82	1170
1035.95	1162
1037.08	1168
1038.2	1130
1039.33	1210
1040.46	1188
1041.58	1204
1042.71	1192
1043.83	1138
1044.96	1178
1046.09	1166
1047.21	1184
1048.34	1198
1049.46	1152
1050.59	1176
1051.71	1168
1052.84	1178
1053.96	1200
1055.09	1172
1056.21	1188
1057.33	1170
1058.46	1174
1059.58	1178
1060.71	1158
1061.83	1192
1062.95	1192
1064.07	1208
1065.2	1178
1066.32	1234
1067.44	1188
1068.56	1190
1069.69	1200
1070.81	1174
1071.93	1172
1073.05	1160
1074.17	1190
1075.29	1186
1076.41	1212
1077.54	1156
1078.66	1170
1079.78	1198
1080.9	1178
1082.02	1174
1083.14	1186
1084.25	1180
1085.37	1168
1086.49	1162
1087.61	1154
1088.73	1144
1089.85	1174
1090.97	1182
1092.09	1178
1093.21	1142
1094.32	1114
1095.44	1202
1096.56	1196
1097.68	1140
1098.79	1198
1099.91	1152
1101.03	1166
1102.14	1180
1103.26	1134
1104.38	1134
1105.49	1166
1106.61	1152
1107.72	1208
1108.84	1160
1109.96	1170
1111.07	1168
1112.19	1184
1113.3	1182
1114.42	1142
1115.53	1170
1116.64	1162
1117.76	1158
1118.87	1188
1119.99	1146
1121.1	1148
1122.21	1196
1123.33	1212
1124.44	1148
1125.55	1160
1126.66	1174
1127.78	1218
1128.89	1204
1130	1136
1131.11	1188
1132.23	1176
1133.34	1130
1134.45	1166
1135.56	1194
1136.67	1186
1137.78	1172
1138.89	1156
1140	1198
1141.11	1154
1142.22	1188
1143.33	1192
1144.44	1188
1145.55	1210
1146.66	1184
1147.77	1184
1148.88	1190
1149.99	1224
1151.1	1212
1152.21	1234
1153.32	1170
1154.42	1176
1155.53	1192
1156.64	1204
1157.75	1256
1158.85	1216
1159.96	1210
1161.07	1200
1162.17	1228
1163.28	1238
1164.39	1198
1165.49	1228
1166.6	1188
1167.71	1220
1168.81	1216
1169.92	1188
1171.02	1250
1172.13	1210
1173.23	1154
1174.34	1176
1175.44	1208
1176.55	1180
1177.65	1166
1178.76	1212
1179.86	1212
1180.97	1216
1182.07	1206
1183.17	1236
1184.28	1222
1185.38	1194
1186.48	1210
1187.58	1232
1188.69	1210
1189.79	1252
1190.89	1198
1191.99	1208
1193.1	1196
1194.2	1160
1195.3	1192
1196.4	1206
1197.5	1170
1198.6	1204
1199.7	1162
1200.8	1180
1201.9	1168
1203	1198
1204.1	1202
1205.2	1230
1206.3	1210
1207.4	1202
1208.5	1216
1209.6	1176
1210.7	1148
1211.8	1146
1212.9	1184
1214	1224
1215.1	1212
1216.19	1172
1217.29	1180
1218.39	1142
1219.49	1162
1220.58	1212
1221.68	1166
1222.78	1214
1223.88	1152
1224.97	1178
1226.07	1206
1227.17	1180
1228.26	1160
1229.36	1224
1230.45	1188
1231.55	1164
1232.65	1170
1233.74	1198
1234.84	1188
1235.93	1188
1237.02	1190
1238.12	1144
1239.21	1170
1240.31	1212
1241.4	1130
1242.5	1184
1243.59	1192
1244.68	1196
1245.78	1192
1246.87	1184
1247.96	1186
1249.06	1170
1250.15	1208
1251.24	1172
1252.33	1196
1253.43	1172
1254.52	1200
1255.61	1202
1256.7	1240
1257.79	1138
1258.88	1204
1259.98	1196
1261.07	1206
1262.16	1160
1263.25	1194
1264.34	1200
1265.43	1184
1266.52	1192
1267.61	1216
1268.7	1218
1269.79	1204
1270.88	1214
1271.96	1168
1273.05	1194
1274.14	1188
1275.23	1172
1276.32	1174
1277.41	1208
1278.5	1166
1279.58	1182
1280.67	1237.95
1281.76	1211.84
1282.85	1251.39
1283.93	1244.43
1285.02	1202.17
1286.11	1238.07
1287.19	1206.91
1288.28	1229.01
1289.37	1190.17
1290.45	1200.92
1291.54	1232.35
1292.63	1226.43
1293.71	1194.86
1294.8	1212.13
1295.88	1217.76
1296.97	1218.58
1298.05	1208.9
1299.14	1237.94
1300.22	1263.24
1301.31	1222.87
1302.39	1247.99
1303.47	1202.84
1304.56	1206.7
1305.64	1203.16
1306.72	1178.64
1307.81	1235.57
1308.89	1207.5
1309.97	1209.51
1311.06	1233.55
1312.14	1223.95
1313.22	1230.17
1314.3	1226.67
1315.39	1192.9
1316.47	1238.41
1317.55	1221.14
1318.63	1216.26
1319.71	1208.91
1320.79	1219.49
1321.88	1236.05
1322.96	1227.55
1324.04	1218.76
1325.12	1207.28
1326.2	1226.56
1327.28	1240.23
1328.36	1215.11
1329.44	1205.21
1330.52	1225.82
1331.6	1199.71
1332.68	1193.39
1333.76	1226.29
1334.84	1243.15
1335.91	1234
1336.99	1216.03
1338.07	1219.47
1339.15	1205.85
1340.23	1234.03
1341.31	1229.77
1342.38	1213.02
1343.46	1206.2
1344.54	1203.06
1345.62	1215.71
1346.69	1210.73
1347.77	1187.72
1348.85	1197.36
1349.92	1202.54
1351	1215.29
1352.08	1217.93
1353.15	1226.21
1354.23	1221.75
1355.3	1233.52
1356.38	1226.98
1357.46	1217.58
1358.53	1251.16
1359.6	1212.87
1360.68	1232.94
1361.75	1204.39
1362.83	1209.47
1363.9	1183.39
1364.98	1212.08
1366.05	1203.62
1367.13	1213.8
1368.2	1198.6
1369.27	1211.42
1370.35	1223.58
1371.42	1221.73
1372.49	1221.69
1373.56	1209.34
1374.64	1196.99
1375.71	1207.74
1376.78	1246.66
1377.85	1252.21
1378.93	1220.16
1380	1196.28
1381.07	1208.76
1382.14	1198.64
1383.21	1221.53
1384.28	1246.23
1385.35	1219.23
1386.43	1205.89
1387.5	1220.77
1388.57	1219.57
1389.64	1178.2
1390.13	1150
1391.2	1254
1392.28	1216
1393.35	1212
1394.43	1238
1395.5	1230
1396.57	1218
1397.65	1214
1398.72	1160
1399.8	1200
1400.87	1188
1401.94	1192
1403.02	1228
1404.09	1240
1405.17	1196
1406.24	1190
1407.31	1254
1408.38	1224
1409.46	1178
1410.53	1190
1411.6	1198
1412.67	1222
1413.74	1160
1414.82	1206
1415.89	1188
1416.96	1198
1418.03	1178
1419.1	1216
1420.17	1256
1421.24	1220
1422.31	1196
1423.38	1218
1424.45	1222
1425.52	1226
1426.59	1192
1427.66	1154
1428.73	1208
1429.8	1174
1430.87	1192
1431.94	1206
1433.01	1236
1434.08	1180
1435.14	1180
1436.21	1174
1437.28	1232
1438.35	1160
1439.42	1156
1440.48	1204
1441.55	1212
1442.62	1250
1443.68	1172
1444.75	1160
1445.82	1212
1446.89	1164
1447.95	1156
1449.02	1198
1450.08	1154
1451.15	1164
1452.22	1182
1453.28	1202
1454.35	1210
1455.41	1192
1456.48	1200
1457.54	1202
1458.61	1198
1459.67	1196
1460.73	1172
1461.8	1232
1462.86	1170
1463.93	1186
1464.99	1174
1466.05	1212
1467.12	1172
1468.18	1138
1469.24	1240
1470.31	1216
1471.37	1176
1472.43	1196
1473.49	1176
1474.56	1194
1475.62	1202
1476.68	1112
1477.74	1206
1478.8	1178
1479.86	1218
1480.93	1170
1481.99	1172
1483.05	1206
1484.11	1184
1485.17	1178
1486.23	1206
1487.29	1184
1488.35	1162
1489.41	1184
1490.47	1168
1491.53	1198
1492.59	1196
1493.65	1220
1494.71	1196
1495.76	1200
1496.82	1188
1497.88	1190
1498.94	1162
1500	1174
1501.06	1204
1502.11	1208
1503.17	1198
1504.23	1206
1505.29	1156
1506.34	1140
1507.4	1162
1508.46	1208
1509.51	1172
1510.57	1160
1511.63	1160
1512.68	1192
1513.74	1206
1514.8	1204
1515.85	1188
1516.91	1208
1517.96	1154
1519.02	1184
1520.07	1216
1521.13	1202
1522.18	1182
1523.24	1224
1524.29	1176
1525.34	1162
1526.4	1160
1527.45	1206
1528.51	1184
1529.56	1176
1530.61	1178
1531.67	1210
1532.72	1218
1533.77	1152
1534.82	1164
1535.88	1186
1536.93	1188
1537.98	1206
1539.03	1134
1540.08	1186
1541.14	1174
1542.19	1188
1543.24	1166
1544.29	1164
1545.34	1116
1546.39	1172
1547.44	1152
1548.49	1162
1549.54	1182
1550.59	1144
1551.64	1154
1552.69	1166
1553.74	1150
1554.79	1158
1555.84	1138
1556.89	1150
1557.94	1164
1558.99	1198
1560.04	1180
1561.09	1126
1562.14	1164
1563.18	1124
1564.23	1186
1565.28	1114
1566.33	1136
1567.37	1196
1568.42	1158
1569.47	1168
1570.52	1186
1571.56	1154
1572.61	1168
1573.66	1154
1574.7	1162
1575.75	1146
1576.79	1158
1577.84	1186
1578.89	1106
1579.93	1140
1580.98	1186
1582.02	1134
1583.07	1162
1584.11	1104
1585.16	1146
1586.2	1162
1587.25	1160
1588.29	1172
1589.34	1162
1590.38	1134
1591.42	1156
1592.47	1184
1593.51	1160
1594.55	1128
1595.6	1180
1596.64	1116
1597.68	1118
1598.72	1140
1599.77	1174
1600.81	1162
1601.85	1152
1602.89	1150
1603.94	1152
1604.98	1174
1606.02	1152
1607.06	1158
1608.1	1136
1609.14	1162
1610.18	1166
1611.22	1142
1612.26	1132
1613.3	1158
1614.34	1130
1615.38	1136
1616.42	1166
1617.46	1134
1618.5	1120
1619.54	1146
1620.58	1144
1621.62	1150
1622.66	1144
1623.7	1122
1624.74	1152
1625.78	1136
1626.81	1140
1627.85	1154
1628.89	1138
1629.93	1122
1630.97	1140
1632	1066
1633.04	1146
1634.08	1120
1635.11	1144
1636.15	1050
1637.19	1118
1638.22	1122
1639.26	1130
1640.3	1110
1641.33	1100
1642.37	1136
1643.4	1120
1644.44	1104
1645.47	1116
1646.51	1172
1647.55	1086
1648.58	1082
1649.61	1118
1650.65	1074
1651.68	1114
1652.72	1110
1653.75	1102
1654.79	1090
1655.82	1106
1656.85	1056
1657.89	1074
1658.92	1108
1659.95	1062
1660.98	1042
1662.02	1102
1663.05	1100
1664.08	1144
1665.12	1120
1666.15	1112
1667.18	1070
1668.21	1074
1669.24	1094
1670.27	1104
1671.3	1060
1672.34	1090
1673.37	1066
1674.4	1108
1675.43	1090
1676.46	1104
1677.49	1026
1678.52	1044
1679.55	1060
1680.58	1066
1681.61	1042
1682.64	1062
1683.67	1032
1684.7	1062
1685.73	994
1686.75	1012
1687.78	1072
1688.81	1054
1689.84	1076
1690.87	1062
1691.9	1038
1692.93	1030
1693.95	1024
1694.98	1034
1696.01	1028
1697.03	1032
1698.06	1030
1699.09	1026
1700.12	1030
1701.14	1086
1702.17	1048
1703.2	1020
1704.22	1014
1705.25	1034
1706.27	1034
1707.3	1052
1708.32	1048
1709.35	1044
1710.37	1024
1711.4	1046
1712.42	1020
1713.45	1056
1714.47	1074
1715.5	1060
1716.52	1008
1717.55	1036
1718.57	1036
1719.59	1042
1720.62	986
1721.64	1058
1722.67	1008
1723.69	1016
1724.71	1054
1725.73	1038
1726.76	1034
1727.78	992
1728.8	1034
1729.82	1008
1730.84	1038
1731.87	1054
1732.89	1046
1733.91	998
1734.93	1018
1735.95	1008
1736.97	984
1737.99	1024
1739.01	1014
1740.04	1046
1741.06	972
1742.08	1014
1743.1	1054
1744.12	982
1745.14	996
1746.16	1006
1747.18	1018
1748.19	1054
1749.21	1000
1750.23	1038
1751.25	1042
1752.27	996
1753.29	1038
1754.31	1010
1755.33	1018
1756.34	998
1757.36	988
1758.38	1030
1759.4	994
1760.41	990
1761.43	1030
1762.45	984
1763.47	1024
1764.48	1046
1765.5	1010
1766.51	990
1767.53	1020
1768.55	970
1769.56	988
1770.58	994
1771.6	994
1772.61	1012
1773.63	1012
1774.64	1004
1775.66	986
1776.67	992
1777.69	1000
1778.7	1016
1779.71	1024
1780.73	990
1781.74	1000
1782.76	1038
1783.77	1006
1784.78	1036
1785.8	988
1786.81	996
1787.82	1006
1788.84	1006
1789.85	1002
1790.86	990
1791.88	1000
1792.89	964
1793.9	994
1794.91	988
1795.92	1012
1796.94	1012
1797.95	1006
1798.96	1004
1799.97	1000
1800.98	994
1801.99	972
1803	956
1804.01	1020
1805.02	1012
1806.03	1010
1807.04	1004
1808.05	968
1809.06	952
1810.07	1026
1811.08	1000
1812.09	1002
1813.1	1000
1814.11	994
1815.12	954
1816.13	984
1817.14	986
1818.14	988
1819.15	998
1820.16	990
1821.17	978
1822.18	948
1823.18	996
1824.19	972
1825.2	988
1826.21	980
1827.21	960
1828.22	1004
1829.23	968
1830.23	1004
1831.24	948
1832.25	952
1833.25	966
1834.26	970
1835.27	996
1836.27	956
1837.28	1004
1838.28	946
1839.29	970
1840.29	962
1841.3	960
1842.3	958
1843.31	960
1844.31	986
1845.31	940
1846.32	968
1847.32	980
1848.33	930
1849.33	946
1850.33	948
1851.34	948
1852.34	966
1853.34	982
1854.35	950
1855.35	978
1856.35	930
1857.35	950
1858.36	994
1859.36	924
1860.36	906
1861.36	954
1862.36	966
1863.36	942
1864.36	950
1865.37	962
1866.37	934
1867.37	942
1868.37	922
1869.37	984
1870.37	948
1871.37	958
1872.37	972
1873.37	950
1874.37	936
1875.37	926
1876.37	912
1877.37	940
1878.37	932
1879.37	988
1880.36	964
1881.36	930
1882.36	934
1883.36	948
1884.36	928
1885.36	956
1886.35	918
1887.35	950
1888.35	942
1889.35	946
1890.34	956
1891.34	920
1892.34	948
1893.34	930
1894.33	940
1895.33	948
1896.33	936
1897.32	924
1898.32	970
1899.31	952
1900.31	952
1901.3	898
1902.3	936
1903.3	920
1904.29	942
1905.29	978
1906.28	940
1907.27	948
1908.27	916
1909.26	938
1910.26	918
1911.25	912
1912.25	904
1913.24	946
1914.23	922
1915.23	886
1916.22	918
1917.21	918
1918.21	936
1919.2	938
1920.19	888
1921.18	938
1922.18	890
1923.17	930
1924.16	912
1925.15	922
1926.14	892
1927.14	932
1928.13	920
1929.12	942
1930.11	952
1931.1	940
1932.09	940
1933.08	918
1934.07	920
1935.06	930
1936.05	958
1937.04	950
1938.03	920
1939.02	958
1940.01	934
1941	948
1941.99	946
1942.98	918
1943.97	984
1944.96	916
1945.95	922
1946.94	900
1947.92	910
1948.91	920
1949.9	904
1950.89	900
1951.88	894
1952.86	944
1953.85	912
1954.84	930
1955.83	920
1956.81	894
1957.8	892
1958.79	902
1959.77	878
1960.76	896
1961.75	918
1962.73	924
1963.72	876
1964.7	868
1965.69	900
1966.68	906
1967.66	916
1968.65	884
1969.63	904
1970.62	902
1971.6	894
1972.59	928
1973.57	878
1974.55	914
1975.54	920
1976.52	900
1977.51	896
1978.49	910
1979.47	882
1980.46	928
1981.44	910
1982.42	874
1983.41	912
1984.39	922
1985.37	870
1986.35	890
1987.34	892
1988.32	890
1989.3	900
1990.28	890
1991.27	916
1992.25	888
1993.23	898
1994.21	904
1995.19	894
1996.17	896
1997.15	910
1998.13	874
1999.11	884
2000.09	880
2001.07	888
2002.05	876
2003.03	870
2004.01	874
2004.99	890
2005.97	898
2006.95	860
2007.93	830
2008.91	820
2009.89	876
2010.87	894
2011.85	872
2012.82	862
2013.8	892
2014.78	856
2015.76	894
2016.74	884
2017.72	900
2018.69	866
2019.67	860
2020.65	858
2021.62	850
2022.6	870
2023.58	864
2024.55	882
2025.53	890
2026.51	898
2027.48	896
2028.46	860
2029.44	876
2030.41	904
2031.39	856
2032.36	870
2033.34	892
2034.31	848
2035.29	866
2036.26	870
2037.24	870
2038.21	858
2039.19	888
2040.16	866
2041.14	904
2042.11	876
2043.08	868
2044.06	870
2045.03	856
2046	862
2046.98	882
2047.95	844
2048.92	818
2049.9	868
2050.87	886
2051.84	846
2052.81	896
2053.79	848
2054.76	844
2055.73	850
2056.7	838
2057.67	872
2058.64	854
2059.61	854
2060.59	886
2061.56	824
2062.53	860
2063.5	830
2064.47	848
2065.44	834
2066.41	870
2067.38	866
2068.35	858
2069.32	834
2070.29	880
2071.26	850
2072.23	836
2073.2	826
2074.17	856
2075.14	850
2076.1	852
2077.07	832
2078.04	860
2079.01	842
2079.98	860
2080.95	818
2081.91	850
2082.88	842
2083.85	846
2084.82	814
2085.78	834
2086.75	854
2087.72	858
2088.68	844
2089.65	832
2090.62	814
2091.58	838
2092.55	828
2093.52	816
2094.48	818
2095.45	844
2096.41	818
2097.38	858
2098.35	834
2099.31	838
2100.28	848
2101.24	854
2102.21	840
2103.17	822
2104.14	832
2105.1	850
2106.06	826
2107.03	844
2107.99	818
2108.96	848
2109.92	794
2110.88	810
2111.85	836
2112.81	814
2113.77	830
2114.73	830
2115.7	812
2116.66	830
2117.62	790
2118.58	806
2119.55	844
2120.51	820
2121.47	800
2122.43	804
2123.39	824
2124.36	832
2125.32	806
2126.28	836
2127.24	820
2128.2	810
2129.16	816
2130.12	798
2131.08	798
2132.04	824
2133	818
2133.96	832
2134.92	812
2135.88	808
2136.84	814
2137.8	822
2138.76	820
2139.72	818
2140.68	826
2141.64	812
2142.59	800
2143.55	826
2144.51	772
2145.47	784
2146.43	830
2147.39	792
2148.34	788
2149.3	820
2150.26	804
2151.22	800
2152.17	770
2153.13	798
2154.09	762
2155.04	786
2156	818
2156.96	818
2157.91	768
2158.87	814
2159.82	798
2160.78	794
2161.74	798
2162.69	766
2163.65	792
2164.6	772
2165.56	792
2166.51	790
2167.47	766
2168.42	778
2169.38	788
2170.33	772
2171.29	802
2172.24	812
2173.19	814
2174.15	774
2175.1	774
2176.05	794
2177.01	792
2177.96	786
2178.91	778
2179.87	796
2180.82	788
2181.77	802
2182.73	772
2183.68	810
2184.63	820
2185.58	784
2186.53	754
2187.49	782
2188.44	772
2189.39	774
2190.34	772
2191.29	754
2192.24	806
2193.19	780
2194.14	730
2195.09	760
2196.05	778
2197	766
2197.95	766
2198.9	782
2199.85	754
2200.8	758
2201.75	758
2202.7	764
2203.64	748
2204.59	728
2205.54	766
2206.49	746
2207.44	768
2208.39	772
2209.34	764
2210.29	790
2211.23	760
2212.18	752
2213.13	768
2214.08	750
2215.03	752
2215.97	738
2216.92	752
2217.87	782
2218.81	746
2219.76	758.141
2220.71	762.155
2221.66	766.996
2222.6	718.096
2223.55	714.774
2224.49	754.361
2225.44	739.502
2226.39	733.422
2227.33	764.083
2228.28	772.337
2229.22	777.079
2230.17	741.364
2231.11	713.161
2232.06	732.916
2233	726.734
2233.95	741.956
2234.89	766.529
2235.84	747.617
2236.78	740.624
2237.73	741.454
2238.67	762.023
2239.61	746.67
2240.56	736.774
2241.5	758.099
2242.45	758.633
2243.39	759.99
2244.33	758.137
2245.28	759.452
2246.22	738.007
2247.16	756.185
2248.1	753.511
2249.05	758.701
2249.99	740.059
2250.93	746.843
2251.87	761.459
2252.81	766.111
2253.76	766.778
2254.7	730.07
2255.64	747.707
2256.58	738.082
2257.52	747.025
2258.46	757.721
2259.4	749.601
2260.34	748.799
2261.28	742.113
2262.23	741.216
2263.17	734.103
2264.11	749.99
2265.05	751.23
2265.99	745.191
2266.93	744
2267.87	758.164
2268.8	754.609
2269.74	751.616
2270.68	768.829
2271.62	755.218
2272.56	746.413
2273.5	736.203
2274.44	738.613
2275.38	777.822
2276.32	728.642
2277.25	733.632
2278.19	745.701
2279.13	741.226
2280.07	753.109
2281.01	743.165
2281.94	718.539
2282.88	740.725
2283.82	760.51
2284.76	747.806
2285.69	732.041
2286.63	758.757
2287.57	755.909
2288.5	737.702
2289.44	728.512
2290.37	746.807
2291.31	752.21
2292.25	753.452
2293.18	750.434
2294.12	755.634
2295.05	740.593
2295.99	737.496
2296.92	747.789
2297.86	745.7
2298.79	751.091
2299.73	750.931
2300.66	730.159
2301.6	722.406
2302.53	733.81
2303.47	726.692
2304.4	742.059
2305.34	745.356
2306.27	743.119
2307.2	737.558
2308.14	733.897
2309.07	742.001
2310	747.73
2310.94	746.185
2311.87	727.971
2312.8	707.874
2313.74	719.726
2313.98	726
2314.92	736
2315.86	744
2316.79	732
2317.73	722
2318.67	738
2319.6	764
2320.54	718
2321.48	748
2322.41	736
2323.35	730
2324.29	712
2325.22	750
2326.16	756
2327.09	734
2328.03	744
2328.96	746
2329.9	738
2330.83	730
2331.77	706
2332.7	728
2333.64	732
2334.57	750
2335.51	730
2336.44	752
2337.38	710
2338.31	758
2339.24	712
2340.18	754
2341.11	750
2342.04	740
2342.98	696
2343.91	720
2344.84	728
2345.78	720
2346.71	710
2347.64	730
2348.57	744
2349.51	752
2350.44	742
2351.37	706
2352.3	744
2353.24	734
2354.17	696
2355.1	772
2356.03	712
2356.96	744
2357.89	712
2358.82	686
2359.75	734
2360.68	736
2361.62	746
2362.55	738
2363.48	730
2364.41	706
2365.34	712
2366.27	722
2367.2	724
2368.13	724
2369.05	738
2369.98	714
2370.91	700
2371.84	690
2372.77	704
2373.7	720
2374.63	708
2375.56	720
2376.49	732
2377.41	722
2378.34	754
2379.27	708
2380.2	672
2381.12	738
2382.05	716
2382.98	724
2383.91	718
2384.83	738
2385.76	728
2386.69	744
2387.61	696
2388.54	720
2389.47	672
2390.39	694
2391.32	728
2392.25	702
2393.17	714
2394.1	722
2395.02	704
2395.95	708
2396.87	696
2397.8	684
2398.72	736
2399.65	700
2400.57	678
2401.5	736
2402.42	708
2403.35	724
2404.27	680
2405.2	732
2406.12	696
2407.04	706
2407.97	716
2408.89	736
2409.81	682
2410.74	694
2411.66	702
2412.58	680
2413.51	708
2414.43	712
2415.35	704
2416.27	730
2417.2	704
2418.12	708
2419.04	708
2419.96	722
2420.88	706
2421.81	718
2422.73	728
2423.65	710
2424.57	710
2425.49	688
2426.41	694
2427.33	706
2428.25	722
2429.17	712
2430.1	690
2431.02	646
2431.94	712
2432.85	714
2433.77	668
2434.7	694
2435.61	674
2436.53	684
2437.45	710
2438.37	714
2439.29	660
2440.21	700
2441.13	686
2442.05	676
2442.97	708
2443.88	700
2444.8	660
2445.72	690
2446.64	722
2447.56	692
2448.47	690
2449.39	686
2450.31	666
2451.23	680
2452.14	696
2453.06	692
2453.98	676
2454.89	686
2455.81	654
2456.73	716
2457.64	662
2458.56	692
2459.48	722
2460.39	660
2461.31	676
2462.22	690
2463.14	688
2464.05	668
2464.97	700
2465.88	690
2466.8	688
2467.71	678
2468.63	684
2469.54	686
2470.46	712
2471.37	668
2472.29	668
2473.2	668
2474.11	694
2475.03	726
2475.94	710
2476.86	660
2477.77	664
2478.68	684
2479.59	690
2480.51	660
2481.42	694
2482.33	656
2483.25	686
2484.16	682
2485.07	686
2485.98	644
2486.9	710
2487.81	654
2488.72	652
2489.63	692
2490.54	662
2491.45	708
2492.36	670
2493.28	654
2494.19	688
2495.1	680
2496.01	690
2496.92	632
2497.83	674
2498.74	658
2499.65	666
2500.56	692
2501.47	646
2502.38	656
2503.29	702
2504.2	680
2505.11	666
2506.02	704
2506.93	658
2507.83	650
2508.74	688
2509.65	672
2510.56	652
2511.47	646
2512.38	644
2513.29	666
2514.19	658
2515.1	658
2516.01	658
2516.92	654
2517.82	662
2518.73	670
2519.64	654
2520.55	662
2521.45	680
2522.36	662
2523.27	694
2524.17	630
2525.08	660
2525.99	654
2526.89	656
2527.8	630
2528.7	652
2529.61	664
2530.51	640
2531.42	646
2532.33	688
2533.23	642
2534.14	638
2535.04	658
2535.95	642
2536.85	660
2537.75	636
2538.66	636
2539.56	644
2540.47	632
2541.37	664
2542.28	656
2543.18	654
2544.08	636
2544.99	624
2545.89	650
2546.79	682
2547.7	632
2548.6	642
2549.5	658
2550.4	646
2551.31	612
2552.21	656
2553.11	666
2554.01	684
2554.92	646
2555.82	640
2556.72	642
2557.62	636
2558.52	662
2559.42	642
2560.32	660
2561.23	636
2562.13	638
2563.03	654
2563.93	640
2564.83	630
2565.73	656
2566.63	624
2567.53	634
2568.43	648
2569.33	668
2570.23	626
2571.13	624
2572.03	640
2572.93	656
2573.83	646
2574.73	634
2575.63	644
2576.52	608
2577.42	630
2578.32	614
2579.22	620
2580.12	632
2581.02	634
2581.91	640
2582.81	618
2583.71	666
2584.61	638
2585.51	628
2586.4	634
2587.3	600
2588.2	610
2589.09	622
2589.99	632
2590.89	630
2591.78	598
2592.68	652
2593.58	614
2594.47	640
2595.37	610
2596.26	618
2597.16	634
2598.06	648
2598.95	638
2599.85	628
2600.74	630
2601.64	626
2602.53	614
2603.43	640
2604.32	604
2605.22	636
2606.11	604
2607.01	664
2607.9	610
2608.79	622
2609.69	588
2610.58	608
2611.48	614
2612.37	616
2613.26	624
2614.16	642
2615.05	592
2615.94	628
2616.84	616
2617.73	634
2618.62	610
2619.51	596
2620.41	616
2621.3	610
2622.19	602
2623.08	652
2623.97	588
2624.87	624
2625.76	596
2626.65	620
2627.54	576
2628.43	580
2629.32	582
2630.21	622
2631.1	610
2631.99	590
2632.89	612
2633.78	628
2634.67	598
2635.56	632
2636.45	628
2637.34	606
2638.23	572
2639.12	588
2640.01	606
2640.9	604
2641.78	608
2642.67	610
2643.56	580
2644.45	626
2645.34	602
2646.23	618
2647.12	594
2648.01	618
2648.89	614
2649.78	578
2650.67	602
2651.56	562
2652.45	612
2653.33	578
2654.22	614
2655.11	596
2656	574
2656.88	604
2657.77	604
2658.66	574
2659.54	554
2660.43	598
2661.32	578
2662.2	610
2663.09	578
2663.97	600
2664.86	578
2665.75	578
2666.63	602
2667.52	614
2668.4	572
2669.29	578
2670.17	616
2671.06	610
2671.94	596
2672.83	600
2673.71	584
2674.6	588
2675.48	564
2676.37	578
2677.25	578
2678.13	606
2679.02	590
2679.9	574
2680.78	578
2681.67	584
2682.55	598
2683.43	616
2684.32	588
2685.2	558
2686.08	606
2686.97	586
2687.85	584
2688.73	604
2689.61	616
2690.5	584
2691.38	574
2692.26	558
2693.14	598
2694.02	574
2694.9	612
2695.79	578
2696.67	580
2697.55	574
2698.43	590
2699.31	590
2700.19	584
2701.07	578
2701.95	586
2702.83	590
2703.71	568
2704.59	570
2705.47	556
2706.35	548
2707.23	568
2708.11	562
2708.99	568
2709.87	564
2710.75	590
2711.63	554
2712.51	584
2713.39	588
2714.27	560
2715.14	584
2716.02	576
2716.9	598
2717.78	570
2718.66	574
2719.54	564
2720.41	566
2721.29	598
2722.17	588
2723.05	552
2723.92	578
2724.8	558
2725.68	554
2726.55	566
2727.43	542
2728.31	556
2729.18	590
2730.06	560
2730.94	534
2731.81	554
2732.69	544
2733.57	564
2734.44	546
2735.32	566
2736.19	554
2737.07	560
2737.94	570
2738.82	558
2739.69	556
2740.57	556
2741.44	544
2742.32	538
2743.19	534
2744.07	568
2744.94	536
2745.81	536
2746.69	546
2747.56	552
2748.44	538
2749.31	560
2750.18	562
2751.06	536
2751.93	530
2752.8	562
2753.68	558
2754.55	552
2755.42	544
2756.29	552
2757.17	522
2758.04	546
2758.91	544
2759.78	550
2760.65	532
2761.53	552
2762.4	550
2763.27	552
2764.14	550
2765.01	538
2765.88	550
2766.76	550
2767.63	542
2768.5	528
2769.37	548
2770.24	540
2771.11	526
2771.98	552
2772.85	550
2773.72	552
2774.59	530
2775.46	526
2776.33	534
2777.2	548
2778.07	552
2778.94	566
2779.81	564
2780.67	536
2781.54	538
2782.41	542
2783.28	536
2784.15	528
2785.02	550
2785.89	562
2786.75	528
2787.62	544
2788.49	548
2789.36	544
2790.23	520
2791.09	504
2791.96	532
2792.83	520
2793.7	514
2794.56	574
2795.43	540
2796.3	542
2797.16	524
2798.03	534
2798.9	518
2799.76	524
2800.63	538
2801.49	548
2802.36	532
2803.23	534
2804.09	512
2804.96	534
2805.82	528
2806.69	550
2807.55	518
2808.42	532
2809.28	522
2810.15	510
2811.01	526
2811.88	530
2812.74	508
2813.61	540
2814.47	520
2815.33	524
2816.2	520
2817.06	510
2817.93	502
2818.79	516
2819.65	496
2820.52	530
2821.38	512
2822.24	550
2823.11	536
2823.97	524
2824.83	542
2825.69	512
2826.55	514
2827.42	526
2828.28	522
2829.14	510
2830	522
2830.87	520
2831.73	536
2832.59	488
2833.45	488
2834.31	528
2835.17	518
2836.03	530
2836.89	502
2837.76	514
2838.62	514
2839.48	514
2840.34	508
2841.2	504
2842.06	516
2842.92	500
2843.78	502
2844.64	502
2845.5	514
2846.36	510
2847.22	526
2848.07	492
2848.93	502
2849.79	520
2850.65	498
2851.51	512
2852.37	520
2853.23	490
2854.09	494
2854.95	490
2855.8	518
2856.66	498
2857.52	502
2858.38	484
2859.24	508
2860.09	504
2860.95	500
2861.81	480
2862.66	508
2863.52	510
2864.38	498
2865.24	478
2866.09	490
2866.95	500
2867.81	490
2868.66	490
2869.52	504
2870.37	495
2871.23	486
2872.09	474
2872.94	478
2873.8	486
2874.65	478
2875.51	496
2876.36	506
2877.22	482
2878.07	484
2878.93	480
2879.78	486
2880.64	468
2881.49	480
2882.35	484
2883.2	492
2884.05	464
2884.91	478
2885.76	472
2886.62	492
2887.47	504
2888.32	478
2889.18	508
2890.03	482
2890.88	506
2891.74	492
2892.59	482
2893.44	482
2894.29	486
2895.15	486
2896	474
2896.85	484
2897.7	488
2898.55	482
2899.41	494
2900.26	496
2901.11	484
2901.96	468
2902.81	472
2903.66	480
2904.52	460
2905.37	474
2906.22	490
2907.07	510
2907.92	456
2908.77	456
2909.62	474
2910.47	466
2911.32	470
2912.17	464
2913.02	470
2913.87	484
2914.72	494
2915.57	486
2916.42	450
2917.27	478
2918.12	456
2918.97	460
2919.82	460
2920.66	468
2921.51	454
2922.36	482
2923.21	442
2924.06	456
2924.91	470
2925.75	482
2926.6	476
2927.45	486
2928.3	464
2929.15	466
2929.99	468
2930.84	476
2931.69	488
2932.54	466
2933.38	454
2934.23	462
2935.08	478
2935.92	452
2936.77	486
2937.62	480
2938.46	498
2939.31	472
2940.15	476
2941	470
2941.85	486
2942.69	458
2943.54	468
2944.38	468
2945.23	464
2946.07	440
2946.92	462
2947.76	476
2948.61	464
2949.45	470
2950.3	438
2951.14	434
2951.99	452
2952.83	464
2953.67	454
2954.52	462
2955.36	474
2956.21	452
2957.05	468
2957.89	472
2958.74	468
2959.58	432
2960.42	468
2961.27	446
2962.11	446
2962.95	442
2963.79	478
2964.64	462
2965.48	442
2966.32	452
2967.16	452
2968.01	432
2968.85	436
2969.69	456
2970.53	472
2971.37	474
2972.21	444
2973.05	438
2973.9	456
2974.74	440
2975.58	450
2976.42	460
2977.26	460
2978.1	436
2978.94	426
2979.78	444
2980.62	444
2981.46	448
2982.3	462
2983.14	454
2983.98	436
2984.82	450
2985.66	420
2986.5	416
2987.34	428
2988.18	454
2989.02	440
2989.86	426
2990.69	436
2991.53	466
2992.37	432
2993.21	448
2994.05	434
2994.89	470
2995.72	430
2996.56	442
2997.4	436
2998.24	432
2999.08	444
2999.91	456
3000.75	424
3001.59	432
3002.43	454
3003.26	426
3004.1	456
3004.94	436
3005.77	400
3006.61	430
3007.45	430
3008.28	414
3009.12	440
3009.95	408
3010.79	440
3011.63	440
3012.46	442
3013.3	422
3014.13	426
3014.97	424
3015.8	432
3016.64	430
3017.47	440
3018.31	420
3019.14	422
3019.98	420
3020.81	416
3021.65	426
3022.48	402
3023.31	422
3024.15	422
3024.98	398
3025.82	422
3026.65	412
3027.48	440
3028.32	434
3029.15	396
3029.98	442
3030.82	402
3031.65	424
3032.48	418
3033.31	428
3034.15	424
3034.98	420
3035.81	394
3036.64	428
3037.48	410
3038.31	388
3039.14	422
3039.97	404
3040.8	423.925
3041.63	409.852
3042.47	427.759
3043.3	428.955
3044.13	420.876
3044.96	408.506
3045.79	408.773
3046.62	394.58
3047.45	401.111
3048.28	408.834
3049.11	402.676
3049.94	419.719
3050.77	412.967
3051.6	404.64
3052.43	413.987
3053.26	393.664
3054.09	425.513
3054.92	392.634
3055.75	413.067
3056.58	423.054
3057.41	400.376
3058.24	396.622
3059.07	407.948
3059.9	424.006
3060.73	396.056
3061.55	397.515
3062.38	412.252
3063.21	416.407
3064.04	397.933
3064.87	403.658
3065.7	414.867
3066.52	385.743
3067.35	395.844
3068.18	398.081
3069.01	385.389
3069.83	431.666
3070.66	398.84
3071.49	401.251
3072.32	411.837
3073.14	382.864
3073.97	409.137
3074.8	384.323
3075.62	415.354
3076.45	408.433
3077.28	398.592
3078.1	402.909
3078.93	388.731
3079.75	386.894
3080.58	394.686
3081.41	406.656
3082.23	373.352
3083.06	402.346
3083.88	384.481
3084.71	377.53
3085.53	400.437
3086.36	406.614
3087.18	397.536
3088.01	403.877
3088.83	387.762
3089.66	385.752
3090.48	393.737
3091.31	391.338
3092.13	390.163
3092.96	393.203
3093.78	393.902
3094.6	377.696
3095.43	383.421
3096.25	391.918
3097.07	393.042
3097.9	388.227
3098.72	366.322
3099.54	363.587
3100.37	385.495
3101.19	385.837
3102.01	395.18
3102.84	389.638
3103.66	376.397
3104.48	384.385
3105.3	386.004
3106.13	379.754
3106.95	405.757
3107.77	375.411
3108.59	359.219
3109.41	376.737
3110.24	378.071
3111.06	376.884
3111.88	377.906
3112.7	373.267
3113.52	374.723
3114.34	375.802
3115.16	378.064
3115.98	363.859
3116.81	359.646
3117.63	360.223
3118.45	367.157
3119.27	384.268
3120.09	381.814
3120.91	365.976
3121.73	363.357
3122.55	373.321
3123.37	366.643
3123.73	356
3124.56	376
3125.38	372
3126.21	364
3127.03	380
3127.85	346
3128.68	370
3129.5	366
3130.32	370
3131.15	354
3131.97	360
3132.79	362
3133.62	358
3134.44	340
3135.26	358
3136.08	382
3136.91	350
3137.73	348
3138.55	358
3139.37	358
3140.19	380
3141.02	346
3141.84	364
3142.66	362
3143.48	370
3144.3	356
3145.13	336
3145.95	346
3146.77	352
3147.59	342
3148.41	348
3149.23	362
3150.05	370
3150.87	350
3151.69	352
3152.51	368
3153.33	362
3154.15	352
3154.97	372
3155.79	346
3156.61	354
3157.43	342
3158.25	346
3159.07	362
3159.89	356
3160.71	336
3161.53	368
3162.35	342
3163.17	338
3163.98	342
3164.8	350
3165.62	356
3166.44	364
3167.26	364
3168.08	322
3168.89	326
3169.71	356
3170.53	354
3171.35	356
3172.17	352
3172.98	348
3173.8	342
3174.62	338
3175.43	354
3176.25	366
3177.07	346
3177.89	344
3178.7	358
3179.52	374
3180.33	366
3181.15	342
3181.97	322
3182.78	346
3183.6	344
3184.41	322
3185.23	326
3186.05	344
3186.86	330
3187.68	336
3188.49	364
3189.31	344
3190.12	344
3190.94	332
3191.75	344
3192.57	352
3193.38	342
3194.2	342
3195.01	346
3195.82	350
3196.64	358
3197.45	338
3198.27	324
3199.08	340
3199.89	342
3200.71	346
3201.52	332
3202.33	338
3203.15	340
3203.96	332
3204.77	364
3205.59	330
3206.4	354
3207.21	330
3208.02	320
3208.84	350
3209.65	352
3210.46	342
3211.27	328
3212.09	318
3212.9	358
3213.71	360
3214.52	320
3215.33	332
3216.14	330
3216.96	338
3217.77	348
3218.58	334
3219.39	352
3220.2	348
3221.01	342
3221.82	330
3222.63	336
3223.44	322
3224.25	322
3225.06	362
3225.87	332
3226.68	316
3227.49	344
3228.3	330
3229.11	326
3229.92	336
3230.73	320
3231.54	326
3232.35	324
3233.16	328
3233.97	326
3234.77	336
3235.58	310
3236.39	304
3237.2	338
3238.01	316
3238.82	332
3239.63	324
3240.43	340
3241.24	312
3242.05	328
3242.86	330
3243.66	318
3244.47	350
3245.28	326
3246.09	322
3246.89	328
3247.7	328
3248.51	356
3249.31	330
3250.12	312
3250.93	326
3251.73	324
3252.54	320
3253.35	316
3254.15	350
3254.96	306
3255.76	318
3256.57	302
3257.38	330
3258.18	318
3258.99	320
3259.79	340
3260.6	310
3261.4	326
3262.21	306
3263.01	308
3263.82	334
3264.62	330
3265.43	328
3266.23	320
3267.04	318
3267.84	306
3268.64	326
3269.45	324
3270.25	302
3271.06	332
3271.86	306
3272.66	304
3273.47	306
3274.27	314
3275.07	288
3275.88	330
3276.68	328
3277.48	320
3278.28	308
3279.09	314
3279.89	326
3280.69	316
3281.49	294
3282.3	306
3283.1	294
3283.9	316
3284.7	294
3285.5	316
3286.31	316
3287.11	328
3287.91	336
3288.71	300
3289.51	324
3290.31	300
3291.11	322
3291.91	314
3292.71	340
3293.51	302
3294.31	302
3295.12	306
3295.92	332
3296.72	316
3297.52	322
3298.32	302
3299.12	306
3299.92	322
3300.72	312
3301.51	318
3302.31	314
3303.11	310
3303.91	300
3304.71	306
3305.51	306
3306.31	302
3307.11	286
3307.91	316
3308.71	320
3309.5	308
3310.3	326
3311.1	298
3311.9	290
3312.7	306
3313.49	324
3314.29	308
3315.09	302
3315.89	318
3316.69	304
3317.48	314
3318.28	308
3319.08	340
3319.87	324
3320.67	306
3321.47	314
3322.26	302
3323.06	304
3323.86	306
3324.65	296
3325.45	274
3326.25	310
3327.04	318
3327.84	318
3328.63	292
3329.43	276
3330.22	280
3331.02	312
3331.81	312
3332.61	298
3333.4	326
3334.2	296
3334.99	320
3335.79	308
3336.58	298
3337.38	296
3338.17	302
3338.97	316
3339.76	292
3340.56	296
3341.35	304
3342.14	294
3342.94	322
3343.73	296
3344.52	306
3345.32	308
3346.11	286
3346.9	314
3347.7	308
3348.49	318
3349.28	286
3350.08	298
3350.87	298
3351.66	292
3352.45	290
3353.25	318
3354.04	276
3354.83	294
3355.62	302
3356.41	278
3357.21	292
3358	282
3358.79	288
3359.58	264
3360.37	294
3361.16	300
3361.95	294
3362.75	296
3363.54	282
3364.33	302
3365.12	282
3365.91	306
3366.7	312
3367.49	266
3368.28	302
3369.07	296
3369.86	298
3370.65	280
3371.44	262
3372.23	300
3373.02	288
3373.81	304
3374.6	304
3375.39	290
3376.18	276
3376.97	288
3377.75	300
3378.54	290
3379.33	274
3380.12	278
3380.91	286
3381.7	302
3382.49	288
3383.27	284
3384.06	302
3384.85	294
3385.64	282
3386.43	276
3387.21	300
3388	304
3388.79	298
3389.58	292
3390.36	282
3391.15	272
3391.94	276
3392.72	278
3393.51	282
3394.3	282
3395.08	280
3395.87	274
3396.66	300
3397.44	296
3398.23	284
3399.01	276
3399.8	270
3400.59	292
3401.37	298
3402.16	296
3402.94	282
3403.73	270
3404.51	278
3405.3	272
3406.08	284
3406.87	288
3407.65	288
3408.44	272
3409.22	288
3410.01	290
3410.79	272
3411.58	270
3412.36	260
3413.14	272
3413.93	278
3414.71	294
3415.5	290
3416.28	270
3417.06	256
3417.85	284
3418.63	274
3419.41	278
3420.2	290
3420.98	260
3421.76	264
3422.54	272
3423.33	264
3424.11	276
3424.89	290
3425.67	274
3426.46	276
3427.24	270
3428.02	280
3428.8	276
3429.58	274
3430.36	274
3431.15	282
3431.93	286
3432.71	270
3433.49	268
3434.27	278
3435.05	262
3435.83	268
3436.61	274
3437.4	286
3438.18	256
3438.96	268
3439.74	268
3440.52	276
3441.3	290
3442.08	274
3442.86	254
3443.64	266
3444.42	264
3445.2	268
3445.98	258
3446.76	272
3447.53	296
3448.31	268
3449.09	264
3449.87	284
3450.65	264
3451.43	264
3452.21	264
3452.99	258
3453.77	280
3454.54	250
3455.32	256
3456.1	258
3456.88	250
3457.66	272
3458.43	276
3459.21	272
3459.99	252
3460.77	262
3461.54	262
3462.32	276
3463.1	246
3463.88	274
3464.65	264
3465.43	252
3466.21	274
3466.98	248
3467.76	268
3468.53	252
3469.31	254
3470.09	260
3470.86	268
3471.64	256
3472.42	270
3473.19	262
3473.97	266
3474.74	274
3475.52	258
3476.29	256
3477.07	274
3477.84	266
3478.62	268
3479.39	268
3480.17	278
3480.94	254
3481.72	278
3482.49	278
3483.27	246
3484.04	268
3484.82	248
3485.59	272
3486.36	234
3487.14	250
3487.91	278
3488.68	270
3489.46	254
3490.23	262
3491	254
3491.78	252
3492.55	260
3493.32	250
3494.1	260
3494.87	244
3495.64	266
3496.42	254
3497.19	254
3497.96	254
3498.73	262
3499.5	274
3500.28	244
3501.05	258
3501.82	238
3502.59	264
3503.36	244
3504.14	258
3504.91	258
3505.68	256
3506.45	258
3507.22	264
3507.99	270
3508.76	266
3509.53	274
3510.3	244
3511.07	248
3511.84	250
3512.61	242
3513.38	266
3514.16	238
3514.92	248
3515.7	242
3516.46	250
3517.23	248
3518	234
3518.77	276
3519.54	246
3520.31	264
3521.08	256
3521.85	252
3522.62	254
3523.39	254
3524.16	256
3524.93	254
3525.69	256
3526.46	236
3527.23	232
3528	264
3528.77	258
3529.53	238
3530.3	256
3531.07	240
3531.84	254
3532.61	250
3533.37	246
3534.14	266
3534.91	242
3535.68	248
3536.44	246
3537.21	236
3537.98	252
3538.74	240
3539.51	264
3540.28	262
3541.04	248
3541.81	250
3542.58	232
3543.34	262
3544.11	248
3544.87	236
3545.64	246
3546.4	250
3547.17	246
3547.94	240
3548.7	250
3549.47	254
3550.23	268
3551	262
3551.76	254
3552.53	242
3553.29	258
3554.06	238
3554.82	266
3555.59	242
3556.35	258
3557.11	250
3557.88	236
3558.64	256
3559.41	238
3560.17	252
3560.93	250
3561.7	238
3562.46	254
3563.22	250
3563.99	244
3564.75	258
3565.51	256
3566.28	246
3567.04	236
3567.8	242
3568.56	250
3569.33	242
3570.09	242
3570.85	234
3571.61	256
3572.38	256
3573.14	232
3573.9	244
3574.66	238
3575.42	250
3576.19	250
3576.95	256
3577.71	242
3578.47	240
3579.23	238
3579.99	236
3580.75	214
3581.51	240
3582.28	240
3583.04	246
3583.8	242
3584.56	244
3585.32	236
3586.08	246
3586.84	262
3587.6	232
3588.36	230
3589.12	236
3589.88	244
3590.64	230
3591.4	234
3592.16	250
3592.92	236
3593.67	226
3594.43	232
3595.19	244
3595.95	244
3596.71	236
3597.47	234
3598.23	234
3598.99	236
3599.75	224
3600.5	242
3601.26	258
3602.02	230
3602.78	240
3603.54	228
3604.29	238
3605.05	234
3605.81	238
3606.57	220
3607.32	228
3608.08	240
3608.84	254
3609.59	238
3610.35	210
3611.11	232
3611.87	256
3612.62	238
3613.38	234
3614.13	229
3614.89	224
3615.65	214
3616.4	244
3617.16	224
3617.92	230
3618.67	230
3619.43	238
3620.18	234
3620.94	238
3621.69	246
3622.45	240
3623.2	244
3623.96	220
3624.71	222
3625.47	234
3626.22	232
3626.98	224
3627.73	218
3628.49	222
3629.24	232
3630	218
3630.75	226
3631.5	224
3632.26	230
3633.01	246
3633.77	222
3634.52	238
3635.27	232
3636.03	220
3636.78	234
3637.53	236
3638.29	240
3639.04	230
3639.79	238
3640.55	236
3641.3	214
3642.05	228
3642.8	216
3643.56	224
3644.31	230
3645.06	216
3645.81	218
3646.56	234
3647.32	226
3648.07	232
3648.82	232
3649.57	216
3650.32	218
3651.07	220
3651.83	228
3652.58	222
3653.33	222
3654.08	214
3654.83	216
3655.58	232
3656.33	220
3657.08	234
3657.83	220
3658.58	228
3659.33	228
3660.08	234
3660.83	214
3661.58	208
3662.33	214
3663.08	228
3663.83	244
3664.58	252
3665.33	218
3666.08	204
3666.83	222
3667.58	238
3668.33	220
3669.08	216
3669.83	216
3670.57	230
3671.32	198
3672.07	224
3672.82	216
3673.57	220
3674.32	236
3675.07	218
3675.81	228
3676.56	220
3677.31	204
3678.06	212
3678.8	216
3679.55	232
3680.3	224
3681.05	216
3681.79	218
3682.54	230
3683.29	210
3684.04	206
3684.78	216
3685.53	216
3686.28	228
3687.02	202
3687.77	208
3688.51	216
3689.26	204
3690.01	224
3690.75	214
3691.5	218
3692.24	220
3692.99	226
3693.74	224
3694.48	218
3695.23	212
3695.97	212
3696.72	224
3697.46	210
3698.21	220
3698.95	210
3699.7	222
3700.44	204
3701.19	212
3701.93	230
3702.68	214
3703.42	208
3704.16	216
3704.91	214
3705.65	218
3706.4	216
3707.14	208
3707.88	202
3708.63	214
3709.37	210
3710.11	214
3710.86	210
3711.6	220
3712.34	226
3713.09	208
3713.83	206
3714.57	218
3715.31	230
3716.06	208
3716.8	230
3717.54	226
3718.28	216
3719.03	214
3719.77	202
3720.51	206
3721.25	216
3721.99	202
3722.74	224
3723.48	226
3724.22	198
3724.96	216
3725.7	212
3726.44	194
3727.18	206
3727.92	202
3728.67	206
3729.41	196
3730.15	216
3730.89	216
3731.63	220
3732.37	226
3733.11	210
3733.85	208
3734.59	218
3735.33	208
3736.07	224
3736.81	214
3737.55	226
3738.29	224
3739.03	216
3739.77	194
3740.51	216
3741.24	206
3741.98	210
3742.72	228
3743.46	206
3744.2	206
3744.94	208
3745.68	216
3746.42	208
3747.15	204
3747.89	224
3748.63	204
3749.37	206
3750.11	194
3750.84	210
3751.58	202
3752.32	214
3753.06	212
3753.79	196
3754.53	216
3755.27	210
3756.01	196
3756.74	216
3757.48	208
3758.22	190
3758.95	216
3759.69	222
3760.43	212
3761.16	204
3761.9	206
3762.64	184
3763.37	192.029
3764.11	184.43
3764.84	202.015
3765.58	204.004
3766.32	218.658
3767.05	190.485
3767.79	207.653
3768.52	204.843
3769.26	197.861
3769.99	192.198
3770.73	202.313
3771.46	197.241
3772.2	189.49
3772.93	203.585
3773.67	195.26
3774.4	208.927
3775.14	199.039
3775.87	211.302
3776.61	213.299
3777.34	203.188
3778.07	192.637
3778.81	204.557
3779.54	200.861
3780.28	207.276
3781.01	221.984
3781.74	203.669
3782.48	204.165
3783.21	209.411
3783.94	219.429
3784.68	188.59
3785.41	188.869
3786.14	212.731
3786.88	192.734
3787.61	196.534
3788.34	201.284
3789.07	192.371
3789.81	202.651
3790.54	205.811
3791.27	204.65
3792	206.661
3792.74	202.602
3793.47	201.334
3794.2	205.821
3794.93	202.551
3795.66	204.495
3796.4	203.666
3797.13	206.129
3797.86	204.724
3798.59	200.25
3799.32	195.454
3800.05	194.416
3800.78	198.454
3801.52	191.694
3802.25	197.432
3802.98	199.058
3803.71	206.358
3804.44	201.402
3805.17	208.16
3805.9	204.957
3806.63	186.411
3807.36	191.348
3808.09	197.043
3808.82	198.843
3809.55	197.189
3810.28	192.007
3811.01	192.604
3811.74	198.759
3812.47	201.864
3813.2	205.169
3813.93	209.664
3814.66	195.234
3815.38	180.979
3816.11	202.042
3816.84	202.212
3817.57	189.635
3818.3	193.188
3819.03	192.49
3819.76	199.448
3820.49	199.174
3821.21	203.442
3821.94	195.486
3822.67	191.853
3823.4	187.432
3824.13	182.952
3824.85	200.318
3825.58	197.4
3826.31	192.498
3827.04	193.398
3827.77	199.056
3828.49	202.224
3829.22	198.693
3829.95	185.173
3830.67	184.148
3831.4	193.579
3832.13	193.835
3832.85	188.918
3833.58	202.932
3834.31	185.645
3835.03	192.783
3835.76	198.464
3836.49	187.515
3837.21	187.704
3837.94	191.297
3838.52	212
3839.25	196
3839.98	190
3840.71	192
3841.44	194
3842.17	190
3842.9	228
3843.63	202
3844.36	206
3845.09	176
3845.82	198
3846.55	184
3847.28	206
3848	196
3848.73	200
3849.46	186
3850.19	188
3850.92	194
3851.65	198
3852.38	186
3853.1	172
3853.83	184
3854.56	202
3855.29	206
3856.02	184
3856.74	198
3857.47	202
3858.2	198
3858.93	182
3859.65	180
3860.38	176
3861.11	198
3861.84	188
3862.56	184
3863.29	198
3864.02	182
3864.74	198
3865.47	188
3866.2	184
3866.92	194
3867.65	200
3868.38	196
3869.1	202
3869.83	196
3870.55	212
3871.28	190
3872.01	200
3872.73	198
3873.46	182
3874.18	176
3874.91	190
3875.63	194
3876.36	198
3877.08	188
3877.81	188
3878.53	182
3879.26	200
3879.98	174
3880.71	202
3881.43	206
3882.16	178
3882.88	192
3883.6	184
3884.33	188
3885.05	164
3885.78	188
3886.5	198
3887.22	198
3887.95	190
3888.67	184
3889.4	194
3890.12	196
3890.84	182
3891.57	174
3892.29	202
3893.01	180
3893.73	188
3894.46	196
3895.18	172
3895.9	186
3896.63	190
3897.35	190
3898.07	196
3898.79	180
3899.51	188
3900.24	194
3900.96	198
3901.68	186
3902.4	198
3903.12	196
3903.84	190
3904.57	184
3905.29	180
3906.01	194
3906.73	182
3907.45	186
3908.17	178
3908.89	186
3909.61	186
3910.33	186
3911.06	194
3911.78	184
3912.5	180
3913.22	174
3913.94	178
3914.66	188
3915.38	184
3916.1	190
3916.82	168
3917.54	188
3918.26	198
3918.98	184
3919.69	192
3920.41	178
3921.13	174
3921.85	188
3922.57	176
3923.29	188
3924.01	184
3924.73	166
3925.45	188
3926.17	182
3926.88	182
3927.6	176
3928.32	178
3929.04	198
3929.76	194
3930.47	188
3931.19	186
3931.91	180
3932.63	186
3933.35	180
3934.06	180
3934.78	168
3935.5	180
3936.22	168
3936.93	168
3937.65	174
3938.37	174
3939.08	178
3939.8	192
3940.52	170
3941.23	198
3941.95	186
3942.67	176
3943.38	178
3944.1	172
3944.82	174
3945.53	180
3946.25	182
3946.96	190
3947.68	184
3948.4	176
3949.11	182
3949.83	188
3950.54	182
3951.26	180
3951.97	194
3952.69	166
3953.4	184
3954.12	174
3954.83	186
3955.55	186
3956.26	184
3956.98	206
3957.69	176
3958.4	178
3959.12	198
3959.83	174
3960.55	170
3961.26	186
3961.97	188
3962.69	180
3963.4	188
3964.12	174
3964.83	178
3965.54	180
3966.26	162
3966.97	174
3967.68	176
3968.4	190
3969.11	180
3969.82	182
3970.53	184
3971.25	178
3971.96	166
3972.67	188
3973.38	164
3974.1	176
3974.81	162
3975.52	192
3976.23	194
3976.94	170
3977.66	174
3978.37	170
3979.08	188
3979.79	172
3980.5	174
3981.21	180
3981.92	180
3982.64	162
3983.35	184
3984.06	174
3984.77	176
3985.48	168
3986.19	176
3986.9	190
3987.61	182
3988.32	176
3989.03	182
3989.74	154
3990.45	168
3991.16	178
3991.87	158
3992.58	174
3993.29	182
3994	180
3994.71	176
3995.42	168
3996.13	176
3996.84	180
3997.55	160
3998.26	156
3998.97	172
3999.67	166
